{
  "aor": 0.0009965365853658536,
  "aqi": 0.012018830951219512,
  "bids_meta": {
    "AcquisitionMatrixPE": 104,
    "AcquisitionNumber": 1,
    "AcquisitionTime": "19:09:0.100000",
    "BandwidthPerPixelPhaseEncode": 17.17,
    "BaseResolution": 104,
    "BodyPartExamined": "BRAIN",
    "CogAtlasID": "trm_4c898da401420",
    "ConsistencyInfo": "N4_VE11C_LATEST_20160120",
    "ConversionSoftware": "dcm2niix",
    "ConversionSoftwareVersion": "v1.0.20171215 (OpenJPEG build) GCC7.3.0",
    "DerivedVendorReportedEchoSpacing": 0.000560011,
    "DeviceSerialNumber": "167006",
    "DwellTime": 2.1e-06,
    "EchoTime": 0.037,
    "EchoTrainLength": 104,
    "EffectiveEchoSpacing": 0.000560011,
    "FlipAngle": 52,
    "ImageComments": "Unaliased_MB4_PE3_LB",
    "ImageOrientationPatientDICOM": [
      0.998921,
      0.0197831,
      -0.0420157,
      -0.0331376,
      0.937492,
      -0.346426
    ],
    "ImageType": [
      "ORIGINAL",
      "PRIMARY",
      "M",
      "MB",
      "ND",
      "MOSAIC"
    ],
    "InPlanePhaseEncodingDirectionDICOM": "COL",
    "InstitutionAddress": "Chemin_Queen-Mary_4565_Montreal_District_CA_H3W_1W5",
    "InstitutionName": "IUGM",
    "InstitutionalDepartmentName": "Department",
    "MRAcquisitionType": "2D",
    "MagneticFieldStrength": 3,
    "Manufacturer": "Siemens",
    "ManufacturersModelName": "Prisma_fit",
    "Modality": "MR",
    "MultibandAccelerationFactor": 4,
    "PartialFourier": 1,
    "PatientPosition": "HFS",
    "PercentPhaseFOV": 100,
    "PhaseEncodingDirection": "j-",
    "PhaseEncodingSteps": 104,
    "PhaseResolution": 1,
    "PixelBandwidth": 2290,
    "ProcedureStepDescription": "video5_generic",
    "ProtocolName": "func_task-figures4",
    "PulseSequenceDetails": "%CustomerSeq%_cmrr_mbep2d_bold",
    "ReceiveCoilActiveElements": "HC1-7;NC1,2",
    "ReceiveCoilName": "HeadNeck_64",
    "ReconMatrixPE": 104,
    "RepetitionTime": 1.49,
    "SAR": 0.0367372,
    "ScanOptions": "FS",
    "ScanningSequence": "EP",
    "SequenceName": "epfid2d1_104",
    "SequenceVariant": "SK_SS",
    "SeriesDescription": "func_task-figures4",
    "SeriesNumber": 13,
    "ShimSetting": [
      604,
      -7243,
      -8874,
      385,
      17,
      -356,
      -3,
      47
    ],
    "SliceThickness": 2,
    "SliceTiming": [
      0,
      0.785,
      0.1,
      0.8825,
      0.1975,
      0.98,
      0.295,
      1.08,
      0.3925,
      1.1775,
      0.49,
      1.275,
      0.59,
      1.3725,
      0.6875,
      0,
      0.785,
      0.1,
      0.8825,
      0.1975,
      0.98,
      0.295,
      1.08,
      0.3925,
      1.1775,
      0.49,
      1.275,
      0.59,
      1.3725,
      0.6875,
      0,
      0.785,
      0.1,
      0.8825,
      0.1975,
      0.98,
      0.295,
      1.08,
      0.3925,
      1.1775,
      0.49,
      1.275,
      0.59,
      1.3725,
      0.6875,
      0,
      0.785,
      0.1,
      0.8825,
      0.1975,
      0.98,
      0.295,
      1.08,
      0.3925,
      1.1775,
      0.49,
      1.275,
      0.59,
      1.3725,
      0.6875
    ],
    "SoftwareVersions": "syngo_MR_E11",
    "SpacingBetweenSlices": 2,
    "StationName": "MRC35049",
    "TaskName": "figures04",
    "TotalReadoutTime": 0.0576811,
    "TxRefAmp": 239.757,
    "dataset": "<unset>",
    "dcmmeta_affine": [
      [
        -1.9978421926498413,
        -0.06627517193555832,
        -0.06507206708192825,
        107.61157989501953
      ],
      [
        -0.03956616297364235,
        1.8749834299087524,
        -0.6948895454406738,
        -67.4260482788086
      ],
      [
        -0.08403149247169495,
        0.6928524971008301,
        1.8742716312408447,
        -73.73448181152344
      ],
      [
        0.0,
        0.0,
        0.0,
        1.0
      ]
    ],
    "dcmmeta_reorient_transform": [
      [
        0.0,
        -1.0,
        0.0,
        103.0
      ],
      [
        1.0,
        0.0,
        0.0,
        0.0
      ],
      [
        0.0,
        0.0,
        1.0,
        0.0
      ],
      [
        0.0,
        0.0,
        0.0,
        1.0
      ]
    ],
    "dcmmeta_shape": [
      104,
      104,
      60,
      410
    ],
    "dcmmeta_slice_dim": 2,
    "dcmmeta_version": 0.6,
    "global": {
      "const": {
        "AcquisitionMatrix": [
          104,
          0,
          0,
          104
        ],
        "AngioFlag": "N",
        "BitsAllocated": 16,
        "BitsStored": 16,
        "BodyPartExamined": "BRAIN",
        "Columns": 832,
        "EchoNumbers": 1,
        "EchoTime": 37.0,
        "EchoTrainLength": 104,
        "FlipAngle": 52.0,
        "HighBit": 15,
        "ImageOrientationPatient": [
          0.99892107136943,
          0.01978308136748,
          -0.0420157454505,
          -0.0331375852643,
          0.93749173789006,
          -0.3464262429879
        ],
        "ImagePositionPatient": [
          -803.87561356873,
          -822.5933184913,
          280.41508814055
        ],
        "ImageType": [
          "ORIGINAL",
          "PRIMARY",
          "M",
          "MB",
          "ND",
          "MOSAIC"
        ],
        "ImagedNucleus": "1H",
        "ImagingFrequency": 123.259391,
        "InPlanePhaseEncodingDirection": "COL",
        "MRAcquisitionType": "2D",
        "MagneticFieldStrength": 3.0,
        "Manufacturer": "SIEMENS",
        "ManufacturerModelName": "Prisma_fit",
        "Modality": "MR",
        "NumberOfAverages": 1.0,
        "NumberOfPhaseEncodingSteps": 104,
        "PercentPhaseFieldOfView": 100.0,
        "PercentSampling": 100.0,
        "PerformedProcedureStepStartTime": "183410.009000",
        "PhotometricInterpretation": "MONOCHROME2",
        "PixelBandwidth": 2290.0,
        "PixelRepresentation": 0,
        "PixelSpacing": [
          2.0,
          2.0
        ],
        "ProtocolName": "func_task-figures4",
        "RepetitionTime": 1490.0,
        "Rows": 832,
        "SAR": 0.03673719174607,
        "SamplesPerPixel": 1,
        "ScanOptions": "FS",
        "ScanningSequence": "EP",
        "SequenceName": "epfid2d1_104",
        "SequenceVariant": [
          "SK",
          "SS"
        ],
        "SeriesDescription": "func_task-figures4",
        "SeriesNumber": 13,
        "SeriesTime": "191014.112000",
        "SliceLocation": -49.173653295695,
        "SliceThickness": 2.0,
        "SmallestImagePixelValue": 0,
        "SoftwareVersions": "syngo MR E11",
        "SpacingBetweenSlices": 1.9999999667665,
        "SpecificCharacterSet": "ISO_IR 100",
        "StudyID": "1",
        "StudyTime": "183409.925000",
        "TransmitCoilName": "Body",
        "VariableFlipAngleFlag": "N",
        "WindowCenterWidthExplanation": "Algo1",
        "dBdt": 0.0
      },
      "slices": {}
    },
    "modality": "bold",
    "run_id": 1,
    "session_id": "002",
    "subject_id": "05",
    "task_id": "figures04",
    "time": {
      "samples": {
        "AcquisitionNumber": [
          1,
          2,
          3,
          4,
          5,
          6,
          7,
          8,
          9,
          10,
          11,
          12,
          13,
          14,
          15,
          16,
          17,
          18,
          19,
          20,
          21,
          22,
          23,
          24,
          25,
          26,
          27,
          28,
          29,
          30,
          31,
          32,
          33,
          34,
          35,
          36,
          37,
          38,
          39,
          40,
          41,
          42,
          43,
          44,
          45,
          46,
          47,
          48,
          49,
          50,
          51,
          52,
          53,
          54,
          55,
          56,
          57,
          58,
          59,
          60,
          61,
          62,
          63,
          64,
          65,
          66,
          67,
          68,
          69,
          70,
          71,
          72,
          73,
          74,
          75,
          76,
          77,
          78,
          79,
          80,
          81,
          82,
          83,
          84,
          85,
          86,
          87,
          88,
          89,
          90,
          91,
          92,
          93,
          94,
          95,
          96,
          97,
          98,
          99,
          100,
          101,
          102,
          103,
          104,
          105,
          106,
          107,
          108,
          109,
          110,
          111,
          112,
          113,
          114,
          115,
          116,
          117,
          118,
          119,
          120,
          121,
          122,
          123,
          124,
          125,
          126,
          127,
          128,
          129,
          130,
          131,
          132,
          133,
          134,
          135,
          136,
          137,
          138,
          139,
          140,
          141,
          142,
          143,
          144,
          145,
          146,
          147,
          148,
          149,
          150,
          151,
          152,
          153,
          154,
          155,
          156,
          157,
          158,
          159,
          160,
          161,
          162,
          163,
          164,
          165,
          166,
          167,
          168,
          169,
          170,
          171,
          172,
          173,
          174,
          175,
          176,
          177,
          178,
          179,
          180,
          181,
          182,
          183,
          184,
          185,
          186,
          187,
          188,
          189,
          190,
          191,
          192,
          193,
          194,
          195,
          196,
          197,
          198,
          199,
          200,
          201,
          202,
          203,
          204,
          205,
          206,
          207,
          208,
          209,
          210,
          211,
          212,
          213,
          214,
          215,
          216,
          217,
          218,
          219,
          220,
          221,
          222,
          223,
          224,
          225,
          226,
          227,
          228,
          229,
          230,
          231,
          232,
          233,
          234,
          235,
          236,
          237,
          238,
          239,
          240,
          241,
          242,
          243,
          244,
          245,
          246,
          247,
          248,
          249,
          250,
          251,
          252,
          253,
          254,
          255,
          256,
          257,
          258,
          259,
          260,
          261,
          262,
          263,
          264,
          265,
          266,
          267,
          268,
          269,
          270,
          271,
          272,
          273,
          274,
          275,
          276,
          277,
          278,
          279,
          280,
          281,
          282,
          283,
          284,
          285,
          286,
          287,
          288,
          289,
          290,
          291,
          292,
          293,
          294,
          295,
          296,
          297,
          298,
          299,
          300,
          301,
          302,
          303,
          304,
          305,
          306,
          307,
          308,
          309,
          310,
          311,
          312,
          313,
          314,
          315,
          316,
          317,
          318,
          319,
          320,
          321,
          322,
          323,
          324,
          325,
          326,
          327,
          328,
          329,
          330,
          331,
          332,
          333,
          334,
          335,
          336,
          337,
          338,
          339,
          340,
          341,
          342,
          343,
          344,
          345,
          346,
          347,
          348,
          349,
          350,
          351,
          352,
          353,
          354,
          355,
          356,
          357,
          358,
          359,
          360,
          361,
          362,
          363,
          364,
          365,
          366,
          367,
          368,
          369,
          370,
          371,
          372,
          373,
          374,
          375,
          376,
          377,
          378,
          379,
          380,
          381,
          382,
          383,
          384,
          385,
          386,
          387,
          388,
          389,
          390,
          391,
          392,
          393,
          394,
          395,
          396,
          397,
          398,
          399,
          400,
          401,
          402,
          403,
          404,
          405,
          406,
          407,
          408,
          409,
          410
        ],
        "AcquisitionTime": [
          "190900.100000",
          "190901.590000",
          "190903.080000",
          "190904.570000",
          "190906.060000",
          "190907.550000",
          "190909.040000",
          "190910.530000",
          "190912.020000",
          "190913.510000",
          "190915.000000",
          "190916.490000",
          "190917.980000",
          "190919.470000",
          "190920.960000",
          "190922.450000",
          "190923.940000",
          "190925.430000",
          "190926.920000",
          "190928.410000",
          "190929.900000",
          "190931.390000",
          "190932.880000",
          "190934.370000",
          "190935.860000",
          "190937.350000",
          "190938.840000",
          "190940.330000",
          "190941.820000",
          "190943.310000",
          "190944.800000",
          "190946.290000",
          "190947.780000",
          "190949.270000",
          "190950.760000",
          "190952.250000",
          "190953.740000",
          "190955.230000",
          "190956.720000",
          "190958.210000",
          "190959.700000",
          "191001.190000",
          "191002.680000",
          "191004.170000",
          "191005.660000",
          "191007.150000",
          "191008.640000",
          "191010.130000",
          "191011.620000",
          "191013.110000",
          "191014.600000",
          "191016.090000",
          "191017.580000",
          "191019.070000",
          "191020.560000",
          "191022.050000",
          "191023.540000",
          "191025.030000",
          "191026.520000",
          "191028.010000",
          "191029.500000",
          "191030.990000",
          "191032.480000",
          "191033.970000",
          "191035.460000",
          "191036.950000",
          "191038.440000",
          "191039.930000",
          "191041.420000",
          "191042.910000",
          "191044.400000",
          "191045.890000",
          "191047.380000",
          "191048.870000",
          "191050.360000",
          "191051.850000",
          "191053.340000",
          "191054.830000",
          "191056.320000",
          "191057.810000",
          "191059.300000",
          "191100.790000",
          "191102.280000",
          "191103.770000",
          "191105.260000",
          "191106.750000",
          "191108.240000",
          "191109.730000",
          "191111.220000",
          "191112.710000",
          "191114.200000",
          "191115.690000",
          "191117.180000",
          "191118.670000",
          "191120.160000",
          "191121.650000",
          "191123.140000",
          "191124.630000",
          "191126.120000",
          "191127.610000",
          "191129.100000",
          "191130.590000",
          "191132.080000",
          "191133.570000",
          "191135.060000",
          "191136.550000",
          "191138.040000",
          "191139.530000",
          "191141.020000",
          "191142.510000",
          "191144.000000",
          "191145.490000",
          "191146.980000",
          "191148.470000",
          "191149.960000",
          "191151.450000",
          "191152.940000",
          "191154.430000",
          "191155.920000",
          "191157.410000",
          "191158.900000",
          "191200.390000",
          "191201.880000",
          "191203.370000",
          "191204.860000",
          "191206.350000",
          "191207.840000",
          "191209.330000",
          "191210.820000",
          "191212.310000",
          "191213.800000",
          "191215.290000",
          "191216.780000",
          "191218.270000",
          "191219.760000",
          "191221.250000",
          "191222.740000",
          "191224.230000",
          "191225.720000",
          "191227.210000",
          "191228.700000",
          "191230.190000",
          "191231.680000",
          "191233.170000",
          "191234.660000",
          "191236.150000",
          "191237.640000",
          "191239.130000",
          "191240.620000",
          "191242.110000",
          "191243.600000",
          "191245.090000",
          "191246.580000",
          "191248.070000",
          "191249.560000",
          "191251.050000",
          "191252.540000",
          "191254.030000",
          "191255.520000",
          "191257.010000",
          "191258.500000",
          "191259.990000",
          "191301.480000",
          "191302.970000",
          "191304.460000",
          "191305.950000",
          "191307.440000",
          "191308.930000",
          "191310.420000",
          "191311.910000",
          "191313.400000",
          "191314.890000",
          "191316.380000",
          "191317.870000",
          "191319.360000",
          "191320.850000",
          "191322.340000",
          "191323.830000",
          "191325.320000",
          "191326.810000",
          "191328.300000",
          "191329.790000",
          "191331.280000",
          "191332.770000",
          "191334.260000",
          "191335.750000",
          "191337.240000",
          "191338.730000",
          "191340.220000",
          "191341.710000",
          "191343.200000",
          "191344.690000",
          "191346.180000",
          "191347.670000",
          "191349.160000",
          "191350.650000",
          "191352.140000",
          "191353.630000",
          "191355.120000",
          "191356.610000",
          "191358.100000",
          "191359.590000",
          "191401.080000",
          "191402.570000",
          "191404.060000",
          "191405.550000",
          "191407.040000",
          "191408.530000",
          "191410.020000",
          "191411.510000",
          "191413.000000",
          "191414.490000",
          "191415.980000",
          "191417.470000",
          "191418.960000",
          "191420.450000",
          "191421.940000",
          "191423.430000",
          "191424.920000",
          "191426.410000",
          "191427.900000",
          "191429.390000",
          "191430.880000",
          "191432.370000",
          "191433.860000",
          "191435.350000",
          "191436.840000",
          "191438.330000",
          "191439.820000",
          "191441.310000",
          "191442.800000",
          "191444.290000",
          "191445.780000",
          "191447.270000",
          "191448.760000",
          "191450.250000",
          "191451.740000",
          "191453.230000",
          "191454.720000",
          "191456.210000",
          "191457.700000",
          "191459.190000",
          "191500.680000",
          "191502.170000",
          "191503.660000",
          "191505.150000",
          "191506.640000",
          "191508.130000",
          "191509.620000",
          "191511.110000",
          "191512.600000",
          "191514.090000",
          "191515.580000",
          "191517.070000",
          "191518.560000",
          "191520.050000",
          "191521.540000",
          "191523.030000",
          "191524.520000",
          "191526.010000",
          "191527.500000",
          "191528.990000",
          "191530.480000",
          "191531.970000",
          "191533.460000",
          "191534.950000",
          "191536.440000",
          "191537.930000",
          "191539.420000",
          "191540.910000",
          "191542.400000",
          "191543.890000",
          "191545.380000",
          "191546.870000",
          "191548.360000",
          "191549.850000",
          "191551.340000",
          "191552.830000",
          "191554.320000",
          "191555.810000",
          "191557.300000",
          "191558.790000",
          "191600.280000",
          "191601.770000",
          "191603.260000",
          "191604.750000",
          "191606.240000",
          "191607.730000",
          "191609.220000",
          "191610.710000",
          "191612.200000",
          "191613.690000",
          "191615.180000",
          "191616.670000",
          "191618.160000",
          "191619.650000",
          "191621.140000",
          "191622.630000",
          "191624.120000",
          "191625.610000",
          "191627.100000",
          "191628.590000",
          "191630.080000",
          "191631.570000",
          "191633.060000",
          "191634.550000",
          "191636.040000",
          "191637.530000",
          "191639.020000",
          "191640.510000",
          "191642.000000",
          "191643.490000",
          "191644.980000",
          "191646.470000",
          "191647.960000",
          "191649.450000",
          "191650.940000",
          "191652.430000",
          "191653.920000",
          "191655.410000",
          "191656.900000",
          "191658.390000",
          "191659.880000",
          "191701.370000",
          "191702.860000",
          "191704.350000",
          "191705.840000",
          "191707.330000",
          "191708.820000",
          "191710.310000",
          "191711.800000",
          "191713.290000",
          "191714.780000",
          "191716.270000",
          "191717.760000",
          "191719.250000",
          "191720.740000",
          "191722.230000",
          "191723.720000",
          "191725.210000",
          "191726.700000",
          "191728.190000",
          "191729.680000",
          "191731.170000",
          "191732.660000",
          "191734.150000",
          "191735.640000",
          "191737.130000",
          "191738.620000",
          "191740.110000",
          "191741.600000",
          "191743.090000",
          "191744.580000",
          "191746.070000",
          "191747.560000",
          "191749.050000",
          "191750.540000",
          "191752.030000",
          "191753.520000",
          "191755.010000",
          "191756.500000",
          "191757.990000",
          "191759.480000",
          "191800.970000",
          "191802.460000",
          "191803.950000",
          "191805.440000",
          "191806.930000",
          "191808.420000",
          "191809.910000",
          "191811.400000",
          "191812.890000",
          "191814.380000",
          "191815.870000",
          "191817.360000",
          "191818.850000",
          "191820.340000",
          "191821.830000",
          "191823.320000",
          "191824.810000",
          "191826.300000",
          "191827.790000",
          "191829.280000",
          "191830.770000",
          "191832.260000",
          "191833.750000",
          "191835.240000",
          "191836.730000",
          "191838.220000",
          "191839.710000",
          "191841.200000",
          "191842.690000",
          "191844.180000",
          "191845.670000",
          "191847.160000",
          "191848.650000",
          "191850.140000",
          "191851.630000",
          "191853.120000",
          "191854.610000",
          "191856.100000",
          "191857.590000",
          "191859.080000",
          "191900.570000",
          "191902.060000",
          "191903.550000",
          "191905.040000",
          "191906.530000",
          "191908.020000",
          "191909.510000"
        ],
        "ContentTime": [
          "191014.115000",
          "191014.118000",
          "191014.131000",
          "191014.138000",
          "191014.141000",
          "191014.144000",
          "191014.147000",
          "191014.150000",
          "191014.153000",
          "191014.155000",
          "191014.165000",
          "191014.168000",
          "191014.182000",
          "191014.184000",
          "191014.187000",
          "191014.190000",
          "191014.193000",
          "191014.196000",
          "191014.199000",
          "191014.201000",
          "191014.204000",
          "191034.078000",
          "191034.081000",
          "191034.084000",
          "191034.086000",
          "191034.089000",
          "191034.092000",
          "191034.095000",
          "191034.098000",
          "191034.101000",
          "191034.103000",
          "191034.106000",
          "191034.109000",
          "191034.112000",
          "191034.115000",
          "191034.118000",
          "191034.121000",
          "191034.124000",
          "191034.133000",
          "191034.136000",
          "191034.139000",
          "191054.078000",
          "191054.081000",
          "191054.083000",
          "191054.086000",
          "191054.089000",
          "191054.092000",
          "191054.095000",
          "191054.107000",
          "191054.109000",
          "191054.112000",
          "191054.115000",
          "191054.118000",
          "191054.121000",
          "191054.123000",
          "191054.126000",
          "191054.129000",
          "191054.132000",
          "191054.135000",
          "191054.138000",
          "191054.141000",
          "191114.078000",
          "191114.081000",
          "191114.084000",
          "191114.087000",
          "191114.090000",
          "191114.092000",
          "191114.095000",
          "191114.098000",
          "191114.101000",
          "191114.104000",
          "191114.106000",
          "191114.109000",
          "191114.112000",
          "191114.115000",
          "191114.117000",
          "191114.120000",
          "191114.123000",
          "191114.126000",
          "191114.129000",
          "191114.131000",
          "191114.134000",
          "191134.078000",
          "191134.081000",
          "191134.084000",
          "191134.086000",
          "191134.089000",
          "191134.092000",
          "191134.095000",
          "191134.098000",
          "191134.100000",
          "191134.103000",
          "191134.106000",
          "191134.109000",
          "191134.112000",
          "191134.114000",
          "191134.117000",
          "191134.125000",
          "191134.128000",
          "191134.131000",
          "191134.134000",
          "191134.137000",
          "191214.079000",
          "191214.082000",
          "191214.085000",
          "191214.088000",
          "191214.090000",
          "191214.093000",
          "191214.096000",
          "191214.099000",
          "191214.102000",
          "191214.105000",
          "191214.108000",
          "191214.111000",
          "191214.113000",
          "191214.116000",
          "191214.119000",
          "191214.122000",
          "191214.125000",
          "191214.127000",
          "191214.130000",
          "191214.133000",
          "191214.136000",
          "191214.139000",
          "191214.141000",
          "191214.144000",
          "191214.147000",
          "191214.150000",
          "191214.153000",
          "191254.078000",
          "191254.081000",
          "191254.084000",
          "191254.087000",
          "191254.089000",
          "191254.092000",
          "191254.095000",
          "191254.098000",
          "191254.101000",
          "191254.104000",
          "191254.107000",
          "191254.110000",
          "191254.113000",
          "191254.116000",
          "191254.118000",
          "191254.121000",
          "191254.124000",
          "191254.127000",
          "191254.130000",
          "191254.133000",
          "191254.136000",
          "191254.139000",
          "191254.142000",
          "191254.145000",
          "191254.147000",
          "191254.150000",
          "191254.153000",
          "191334.078000",
          "191334.081000",
          "191334.084000",
          "191334.087000",
          "191334.090000",
          "191334.092000",
          "191334.095000",
          "191334.098000",
          "191334.101000",
          "191334.104000",
          "191334.107000",
          "191334.109000",
          "191334.112000",
          "191334.115000",
          "191334.118000",
          "191334.121000",
          "191334.124000",
          "191334.126000",
          "191334.129000",
          "191334.132000",
          "191334.135000",
          "191334.138000",
          "191334.141000",
          "191334.143000",
          "191334.146000",
          "191334.149000",
          "191334.152000",
          "191414.079000",
          "191414.082000",
          "191414.085000",
          "191414.087000",
          "191414.090000",
          "191414.093000",
          "191414.096000",
          "191414.099000",
          "191414.102000",
          "191414.104000",
          "191414.107000",
          "191414.110000",
          "191414.113000",
          "191414.116000",
          "191414.119000",
          "191414.122000",
          "191414.125000",
          "191414.127000",
          "191414.130000",
          "191414.133000",
          "191414.136000",
          "191414.139000",
          "191414.141000",
          "191414.144000",
          "191414.147000",
          "191414.150000",
          "191414.153000",
          "191454.078000",
          "191454.081000",
          "191454.084000",
          "191454.087000",
          "191454.089000",
          "191454.092000",
          "191454.095000",
