{
  "aor": 0.001024780487804878,
  "aqi": 0.00820898587804878,
  "bids_meta": {
    "AcquisitionMatrixPE": 104,
    "AcquisitionNumber": 1,
    "AcquisitionTime": "18:47:50.285000",
    "BandwidthPerPixelPhaseEncode": 17.17,
    "BaseResolution": 104,
    "BodyPartExamined": "BRAIN",
    "CogAtlasID": "trm_4c898da401420",
    "ConsistencyInfo": "N4_VE11C_LATEST_20160120",
    "ConversionSoftware": "dcm2niix",
    "ConversionSoftwareVersion": "v1.0.20171215 (OpenJPEG build) GCC7.3.0",
    "DerivedVendorReportedEchoSpacing": 0.000560011,
    "DeviceSerialNumber": "167006",
    "DwellTime": 2.1e-06,
    "EchoTime": 0.037,
    "EchoTrainLength": 104,
    "EffectiveEchoSpacing": 0.000560011,
    "FlipAngle": 52,
    "ImageComments": "Unaliased_MB4_PE3_LB",
    "ImageOrientationPatientDICOM": [
      0.998921,
      0.0197831,
      -0.0420157,
      -0.0331376,
      0.937492,
      -0.346426
    ],
    "ImageType": [
      "ORIGINAL",
      "PRIMARY",
      "M",
      "MB",
      "ND",
      "MOSAIC"
    ],
    "InPlanePhaseEncodingDirectionDICOM": "COL",
    "InstitutionAddress": "Chemin_Queen-Mary_4565_Montreal_District_CA_H3W_1W5",
    "InstitutionName": "IUGM",
    "InstitutionalDepartmentName": "Department",
    "MRAcquisitionType": "2D",
    "MagneticFieldStrength": 3,
    "Manufacturer": "Siemens",
    "ManufacturersModelName": "Prisma_fit",
    "Modality": "MR",
    "MultibandAccelerationFactor": 4,
    "PartialFourier": 1,
    "PatientPosition": "HFS",
    "PercentPhaseFOV": 100,
    "PhaseEncodingDirection": "j-",
    "PhaseEncodingSteps": 104,
    "PhaseResolution": 1,
    "PixelBandwidth": 2290,
    "ProcedureStepDescription": "video5_generic",
    "ProtocolName": "func_task-figures2",
    "PulseSequenceDetails": "%CustomerSeq%_cmrr_mbep2d_bold",
    "ReceiveCoilActiveElements": "HC1-7;NC1,2",
    "ReceiveCoilName": "HeadNeck_64",
    "ReconMatrixPE": 104,
    "RepetitionTime": 1.49,
    "SAR": 0.0367372,
    "ScanOptions": "FS",
    "ScanningSequence": "EP",
    "SequenceName": "epfid2d1_104",
    "SequenceVariant": "SK_SS",
    "SeriesDescription": "func_task-figures2",
    "SeriesNumber": 9,
    "ShimSetting": [
      604,
      -7243,
      -8874,
      385,
      17,
      -356,
      -3,
      47
    ],
    "SliceThickness": 2,
    "SliceTiming": [
      0,
      0.785,
      0.0975,
      0.8825,
      0.1975,
      0.98,
      0.295,
      1.0775,
      0.3925,
      1.175,
      0.49,
      1.275,
      0.5875,
      1.3725,
      0.6875,
      0,
      0.785,
      0.0975,
      0.8825,
      0.1975,
      0.98,
      0.295,
      1.0775,
      0.3925,
      1.175,
      0.49,
      1.275,
      0.5875,
      1.3725,
      0.6875,
      0,
      0.785,
      0.0975,
      0.8825,
      0.1975,
      0.98,
      0.295,
      1.0775,
      0.3925,
      1.175,
      0.49,
      1.275,
      0.5875,
      1.3725,
      0.6875,
      0,
      0.785,
      0.0975,
      0.8825,
      0.1975,
      0.98,
      0.295,
      1.0775,
      0.3925,
      1.175,
      0.49,
      1.275,
      0.5875,
      1.3725,
      0.6875
    ],
    "SoftwareVersions": "syngo_MR_E11",
    "SpacingBetweenSlices": 2,
    "StationName": "MRC35049",
    "TaskName": "figures02",
    "TotalReadoutTime": 0.0576811,
    "TxRefAmp": 239.757,
    "dataset": "<unset>",
    "dcmmeta_affine": [
      [
        -1.9978421926498413,
        -0.06627517193555832,
        -0.06507206708192825,
        107.61157989501953
      ],
      [
        -0.03956616297364235,
        1.8749834299087524,
        -0.6948895454406738,
        -67.4260482788086
      ],
      [
        -0.08403149247169495,
        0.6928524971008301,
        1.8742716312408447,
        -73.73448181152344
      ],
      [
        0.0,
        0.0,
        0.0,
        1.0
      ]
    ],
    "dcmmeta_reorient_transform": [
      [
        0.0,
        -1.0,
        0.0,
        103.0
      ],
      [
        1.0,
        0.0,
        0.0,
        0.0
      ],
      [
        0.0,
        0.0,
        1.0,
        0.0
      ],
      [
        0.0,
        0.0,
        0.0,
        1.0
      ]
    ],
    "dcmmeta_shape": [
      104,
      104,
      60,
      410
    ],
    "dcmmeta_slice_dim": 2,
    "dcmmeta_version": 0.6,
    "global": {
      "const": {
        "AcquisitionMatrix": [
          104,
          0,
          0,
          104
        ],
        "AngioFlag": "N",
        "BitsAllocated": 16,
        "BitsStored": 16,
        "BodyPartExamined": "BRAIN",
        "Columns": 832,
        "EchoNumbers": 1,
        "EchoTime": 37.0,
        "EchoTrainLength": 104,
        "FlipAngle": 52.0,
        "HighBit": 15,
        "ImageOrientationPatient": [
          0.99892107136943,
          0.01978308136748,
          -0.0420157454505,
          -0.0331375852643,
          0.93749173789006,
          -0.3464262429879
        ],
        "ImagePositionPatient": [
          -803.87561356873,
          -822.5933184913,
          280.41508814055
        ],
        "ImageType": [
          "ORIGINAL",
          "PRIMARY",
          "M",
          "MB",
          "ND",
          "MOSAIC"
        ],
        "ImagedNucleus": "1H",
        "ImagingFrequency": 123.259388,
        "InPlanePhaseEncodingDirection": "COL",
        "MRAcquisitionType": "2D",
        "MagneticFieldStrength": 3.0,
        "Manufacturer": "SIEMENS",
        "ManufacturerModelName": "Prisma_fit",
        "Modality": "MR",
        "NumberOfAverages": 1.0,
        "NumberOfPhaseEncodingSteps": 104,
        "PercentPhaseFieldOfView": 100.0,
        "PercentSampling": 100.0,
        "PerformedProcedureStepStartTime": "183410.009000",
        "PhotometricInterpretation": "MONOCHROME2",
        "PixelBandwidth": 2290.0,
        "PixelRepresentation": 0,
        "PixelSpacing": [
          2.0,
          2.0
        ],
        "ProtocolName": "func_task-figures2",
        "RepetitionTime": 1490.0,
        "Rows": 832,
        "SAR": 0.03673719174607,
        "SamplesPerPixel": 1,
        "ScanOptions": "FS",
        "ScanningSequence": "EP",
        "SequenceName": "epfid2d1_104",
        "SequenceVariant": [
          "SK",
          "SS"
        ],
        "SeriesDescription": "func_task-figures2",
        "SeriesNumber": 9,
        "SeriesTime": "184857.983000",
        "SliceLocation": -49.173653295695,
        "SliceThickness": 2.0,
        "SmallestImagePixelValue": 0,
        "SoftwareVersions": "syngo MR E11",
        "SpacingBetweenSlices": 1.9999999667665,
        "SpecificCharacterSet": "ISO_IR 100",
        "StudyID": "1",
        "StudyTime": "183409.925000",
        "TransmitCoilName": "Body",
        "VariableFlipAngleFlag": "N",
        "WindowCenterWidthExplanation": "Algo1",
        "dBdt": 0.0
      },
      "slices": {}
    },
    "modality": "bold",
    "run_id": 1,
    "session_id": "002",
    "subject_id": "05",
    "task_id": "figures02",
    "time": {
      "samples": {
        "AcquisitionNumber": [
          1,
          2,
          3,
          4,
          5,
          6,
          7,
          8,
          9,
          10,
          11,
          12,
          13,
          14,
          15,
          16,
          17,
          18,
          19,
          20,
          21,
          22,
          23,
          24,
          25,
          26,
          27,
          28,
          29,
          30,
          31,
          32,
          33,
          34,
          35,
          36,
          37,
          38,
          39,
          40,
          41,
          42,
          43,
          44,
          45,
          46,
          47,
          48,
          49,
          50,
          51,
          52,
          53,
          54,
          55,
          56,
          57,
          58,
          59,
          60,
          61,
          62,
          63,
          64,
          65,
          66,
          67,
          68,
          69,
          70,
          71,
          72,
          73,
          74,
          75,
          76,
          77,
          78,
          79,
          80,
          81,
          82,
          83,
          84,
          85,
          86,
          87,
          88,
          89,
          90,
          91,
          92,
          93,
          94,
          95,
          96,
          97,
          98,
          99,
          100,
          101,
          102,
          103,
          104,
          105,
          106,
          107,
          108,
          109,
          110,
          111,
          112,
          113,
          114,
          115,
          116,
          117,
          118,
          119,
          120,
          121,
          122,
          123,
          124,
          125,
          126,
          127,
          128,
          129,
          130,
          131,
          132,
          133,
          134,
          135,
          136,
          137,
          138,
          139,
          140,
          141,
          142,
          143,
          144,
          145,
          146,
          147,
          148,
          149,
          150,
          151,
          152,
          153,
          154,
          155,
          156,
          157,
          158,
          159,
          160,
          161,
          162,
          163,
          164,
          165,
          166,
          167,
          168,
          169,
          170,
          171,
          172,
          173,
          174,
          175,
          176,
          177,
          178,
          179,
          180,
          181,
          182,
          183,
          184,
          185,
          186,
          187,
          188,
          189,
          190,
          191,
          192,
          193,
          194,
          195,
          196,
          197,
          198,
          199,
          200,
          201,
          202,
          203,
          204,
          205,
          206,
          207,
          208,
          209,
          210,
          211,
          212,
          213,
          214,
          215,
          216,
          217,
          218,
          219,
          220,
          221,
          222,
          223,
          224,
          225,
          226,
          227,
          228,
          229,
          230,
          231,
          232,
          233,
          234,
          235,
          236,
          237,
          238,
          239,
          240,
          241,
          242,
          243,
          244,
          245,
          246,
          247,
          248,
          249,
          250,
          251,
          252,
          253,
          254,
          255,
          256,
          257,
          258,
          259,
          260,
          261,
          262,
          263,
          264,
          265,
          266,
          267,
          268,
          269,
          270,
          271,
          272,
          273,
          274,
          275,
          276,
          277,
          278,
          279,
          280,
          281,
          282,
          283,
          284,
          285,
          286,
          287,
          288,
          289,
          290,
          291,
          292,
          293,
          294,
          295,
          296,
          297,
          298,
          299,
          300,
          301,
          302,
          303,
          304,
          305,
          306,
          307,
          308,
          309,
          310,
          311,
          312,
          313,
          314,
          315,
          316,
          317,
          318,
          319,
          320,
          321,
          322,
          323,
          324,
          325,
          326,
          327,
          328,
          329,
          330,
          331,
          332,
          333,
          334,
          335,
          336,
          337,
          338,
          339,
          340,
          341,
          342,
          343,
          344,
          345,
          346,
          347,
          348,
          349,
          350,
          351,
          352,
          353,
          354,
          355,
          356,
          357,
          358,
          359,
          360,
          361,
          362,
          363,
          364,
          365,
          366,
          367,
          368,
          369,
          370,
          371,
          372,
          373,
          374,
          375,
          376,
          377,
          378,
          379,
          380,
          381,
          382,
          383,
          384,
          385,
          386,
          387,
          388,
          389,
          390,
          391,
          392,
          393,
          394,
          395,
          396,
          397,
          398,
          399,
          400,
          401,
          402,
          403,
          404,
          405,
          406,
          407,
          408,
          409,
          410
        ],
        "AcquisitionTime": [
          "184750.285000",
          "184751.775000",
          "184753.265000",
          "184754.755000",
          "184756.245000",
          "184757.735000",
          "184759.225000",
          "184800.715000",
          "184802.205000",
          "184803.695000",
          "184805.185000",
          "184806.675000",
          "184808.165000",
          "184809.655000",
          "184811.145000",
          "184812.635000",
          "184814.125000",
          "184815.615000",
          "184817.105000",
          "184818.595000",
          "184820.085000",
          "184821.575000",
          "184823.065000",
          "184824.555000",
          "184826.045000",
          "184827.535000",
          "184829.025000",
          "184830.515000",
          "184832.005000",
          "184833.495000",
          "184834.985000",
          "184836.475000",
          "184837.965000",
          "184839.455000",
          "184840.945000",
          "184842.435000",
          "184843.925000",
          "184845.415000",
          "184846.905000",
          "184848.395000",
          "184849.885000",
          "184851.375000",
          "184852.865000",
          "184854.355000",
          "184855.845000",
          "184857.335000",
          "184858.825000",
          "184900.315000",
          "184901.805000",
          "184903.295000",
          "184904.785000",
          "184906.275000",
          "184907.765000",
          "184909.255000",
          "184910.745000",
          "184912.235000",
          "184913.725000",
          "184915.215000",
          "184916.705000",
          "184918.195000",
          "184919.685000",
          "184921.175000",
          "184922.665000",
          "184924.155000",
          "184925.645000",
          "184927.135000",
          "184928.625000",
          "184930.115000",
          "184931.605000",
          "184933.095000",
          "184934.585000",
          "184936.075000",
          "184937.565000",
          "184939.055000",
          "184940.545000",
          "184942.035000",
          "184943.525000",
          "184945.015000",
          "184946.505000",
          "184947.995000",
          "184949.485000",
          "184950.975000",
          "184952.465000",
          "184953.955000",
          "184955.445000",
          "184956.935000",
          "184958.425000",
          "184959.915000",
          "185001.405000",
          "185002.895000",
          "185004.385000",
          "185005.875000",
          "185007.365000",
          "185008.855000",
          "185010.345000",
          "185011.835000",
          "185013.325000",
          "185014.815000",
          "185016.305000",
          "185017.795000",
          "185019.285000",
          "185020.775000",
          "185022.265000",
          "185023.755000",
          "185025.245000",
          "185026.735000",
          "185028.225000",
          "185029.715000",
          "185031.205000",
          "185032.695000",
          "185034.185000",
          "185035.675000",
          "185037.165000",
          "185038.655000",
          "185040.145000",
          "185041.635000",
          "185043.125000",
          "185044.615000",
          "185046.105000",
          "185047.595000",
          "185049.085000",
          "185050.575000",
          "185052.065000",
          "185053.555000",
          "185055.045000",
          "185056.535000",
          "185058.025000",
          "185059.515000",
          "185101.005000",
          "185102.495000",
          "185103.985000",
          "185105.475000",
          "185106.965000",
          "185108.455000",
          "185109.945000",
          "185111.435000",
          "185112.925000",
          "185114.415000",
          "185115.905000",
          "185117.395000",
          "185118.885000",
          "185120.375000",
          "185121.865000",
          "185123.355000",
          "185124.845000",
          "185126.335000",
          "185127.825000",
          "185129.315000",
          "185130.805000",
          "185132.295000",
          "185133.785000",
          "185135.275000",
          "185136.765000",
          "185138.255000",
          "185139.745000",
          "185141.235000",
          "185142.725000",
          "185144.215000",
          "185145.705000",
          "185147.195000",
          "185148.685000",
          "185150.175000",
          "185151.665000",
          "185153.155000",
          "185154.645000",
          "185156.135000",
          "185157.625000",
          "185159.115000",
          "185200.605000",
          "185202.095000",
          "185203.585000",
          "185205.075000",
          "185206.565000",
          "185208.055000",
          "185209.545000",
          "185211.035000",
          "185212.525000",
          "185214.015000",
          "185215.505000",
          "185216.995000",
          "185218.485000",
          "185219.975000",
          "185221.465000",
          "185222.955000",
          "185224.445000",
          "185225.935000",
          "185227.425000",
          "185228.915000",
          "185230.405000",
          "185231.895000",
          "185233.385000",
          "185234.875000",
          "185236.365000",
          "185237.855000",
          "185239.345000",
          "185240.835000",
          "185242.325000",
          "185243.815000",
          "185245.305000",
          "185246.795000",
          "185248.285000",
          "185249.775000",
          "185251.265000",
          "185252.755000",
          "185254.245000",
          "185255.735000",
          "185257.225000",
          "185258.715000",
          "185300.205000",
          "185301.695000",
          "185303.185000",
          "185304.675000",
          "185306.165000",
          "185307.655000",
          "185309.145000",
          "185310.635000",
          "185312.125000",
          "185313.615000",
          "185315.105000",
          "185316.595000",
          "185318.085000",
          "185319.575000",
          "185321.065000",
          "185322.555000",
          "185324.045000",
          "185325.535000",
          "185327.025000",
          "185328.515000",
          "185330.005000",
          "185331.495000",
          "185332.985000",
          "185334.475000",
          "185335.965000",
          "185337.455000",
          "185338.945000",
          "185340.435000",
          "185341.925000",
          "185343.415000",
          "185344.905000",
          "185346.395000",
          "185347.885000",
          "185349.375000",
          "185350.865000",
          "185352.355000",
          "185353.845000",
          "185355.335000",
          "185356.825000",
          "185358.315000",
          "185359.805000",
          "185401.295000",
          "185402.785000",
          "185404.275000",
          "185405.765000",
          "185407.255000",
          "185408.745000",
          "185410.235000",
          "185411.725000",
          "185413.215000",
          "185414.705000",
          "185416.195000",
          "185417.685000",
          "185419.175000",
          "185420.665000",
          "185422.155000",
          "185423.645000",
          "185425.135000",
          "185426.625000",
          "185428.115000",
          "185429.605000",
          "185431.095000",
          "185432.585000",
          "185434.075000",
          "185435.565000",
          "185437.055000",
          "185438.545000",
          "185440.035000",
          "185441.525000",
          "185443.015000",
          "185444.505000",
          "185445.995000",
          "185447.485000",
          "185448.975000",
          "185450.465000",
          "185451.955000",
          "185453.445000",
          "185454.935000",
          "185456.425000",
          "185457.915000",
          "185459.405000",
          "185500.895000",
          "185502.385000",
          "185503.875000",
          "185505.365000",
          "185506.855000",
          "185508.345000",
          "185509.835000",
          "185511.325000",
          "185512.815000",
          "185514.305000",
          "185515.795000",
          "185517.285000",
          "185518.775000",
          "185520.265000",
          "185521.755000",
          "185523.245000",
          "185524.735000",
          "185526.225000",
          "185527.715000",
          "185529.205000",
          "185530.695000",
          "185532.185000",
          "185533.675000",
          "185535.165000",
          "185536.655000",
          "185538.145000",
          "185539.635000",
          "185541.125000",
          "185542.615000",
          "185544.105000",
          "185545.595000",
          "185547.085000",
          "185548.575000",
          "185550.065000",
          "185551.555000",
          "185553.045000",
          "185554.535000",
          "185556.025000",
          "185557.515000",
          "185559.005000",
          "185600.495000",
          "185601.985000",
          "185603.475000",
          "185604.965000",
          "185606.455000",
          "185607.945000",
          "185609.435000",
          "185610.925000",
          "185612.415000",
          "185613.905000",
          "185615.395000",
          "185616.885000",
          "185618.375000",
          "185619.865000",
          "185621.355000",
          "185622.845000",
          "185624.335000",
          "185625.825000",
          "185627.315000",
          "185628.805000",
          "185630.295000",
          "185631.785000",
          "185633.275000",
          "185634.765000",
          "185636.255000",
          "185637.745000",
          "185639.235000",
          "185640.725000",
          "185642.215000",
          "185643.705000",
          "185645.195000",
          "185646.685000",
          "185648.175000",
          "185649.665000",
          "185651.155000",
          "185652.645000",
          "185654.135000",
          "185655.625000",
          "185657.115000",
          "185658.605000",
          "185700.095000",
          "185701.585000",
          "185703.075000",
          "185704.565000",
          "185706.055000",
          "185707.545000",
          "185709.035000",
          "185710.525000",
          "185712.015000",
          "185713.505000",
          "185714.995000",
          "185716.485000",
          "185717.975000",
          "185719.465000",
          "185720.955000",
          "185722.445000",
          "185723.935000",
          "185725.425000",
          "185726.915000",
          "185728.405000",
          "185729.895000",
          "185731.385000",
          "185732.875000",
          "185734.365000",
          "185735.855000",
          "185737.345000",
          "185738.835000",
          "185740.325000",
          "185741.815000",
          "185743.305000",
          "185744.795000",
          "185746.285000",
          "185747.775000",
          "185749.265000",
          "185750.755000",
          "185752.245000",
          "185753.735000",
          "185755.225000",
          "185756.715000",
          "185758.205000",
          "185759.695000"
        ],
        "ContentTime": [
          "184857.986000",
          "184857.989000",
          "184857.993000",
          "184857.995000",
          "184857.998000",
          "184858.002000",
          "184858.005000",
          "184858.008000",
          "184858.019000",
          "184858.022000",
          "184858.024000",
          "184858.027000",
          "184858.030000",
          "184858.034000",
          "184858.037000",
          "184917.953000",
          "184917.956000",
          "184917.959000",
          "184917.962000",
          "184917.965000",
          "184917.968000",
          "184917.971000",
          "184917.974000",
          "184917.976000",
          "184917.979000",
          "184917.990000",
          "184917.993000",
          "184917.996000",
          "184918.000000",
          "184918.003000",
          "184918.005000",
          "184918.008000",
          "184918.011000",
          "184918.014000",
          "184918.016000",
          "184937.953000",
          "184937.956000",
          "184937.959000",
          "184937.961000",
          "184937.964000",
          "184937.967000",
          "184937.970000",
          "184937.973000",
          "184937.976000",
          "184937.979000",
          "184937.981000",
          "184937.984000",
          "184937.987000",
          "184937.990000",
          "184937.993000",
          "184937.995000",
          "184937.998000",
          "184938.002000",
          "184938.005000",
          "184938.008000",
          "184957.952000",
          "184957.955000",
          "184957.958000",
          "184957.960000",
          "184957.963000",
          "184957.966000",
          "184957.969000",
          "184957.972000",
          "184957.975000",
          "184957.977000",
          "184957.980000",
          "184957.983000",
          "184957.986000",
          "184957.989000",
          "184957.992000",
          "184957.994000",
          "184957.997000",
          "184958.001000",
          "184958.004000",
          "184958.007000",
          "184958.009000",
          "185017.952000",
          "185017.955000",
          "185017.958000",
          "185017.961000",
          "185017.963000",
          "185017.966000",
          "185017.969000",
          "185017.972000",
          "185017.975000",
          "185017.977000",
          "185017.980000",
          "185017.983000",
          "185017.986000",
          "185017.988000",
          "185017.991000",
          "185017.994000",
          "185018.004000",
          "185018.006000",
          "185018.009000",
          "185018.012000",
          "185057.953000",
          "185057.956000",
          "185057.959000",
          "185057.962000",
          "185057.964000",
          "185057.967000",
          "185057.970000",
          "185057.973000",
          "185057.976000",
          "185057.978000",
          "185057.982000",
          "185057.985000",
          "185057.988000",
          "185057.991000",
          "185057.993000",
          "185057.996000",
          "185058.000000",
          "185058.003000",
          "185058.006000",
          "185058.009000",
          "185058.011000",
          "185058.014000",
          "185058.017000",
          "185058.020000",
          "185058.023000",
          "185058.026000",
          "185058.029000",
          "185058.031000",
          "185058.034000",
          "185137.953000",
          "185137.956000",
          "185137.959000",
          "185137.962000",
          "185137.965000",
          "185137.968000",
          "185137.970000",
          "185137.973000",
          "185137.976000",
          "185137.979000",
          "185137.982000",
          "185137.985000",
          "185137.987000",
          "185137.990000",
          "185137.993000",
          "185137.996000",
          "185138.000000",
          "185138.003000",
          "185138.005000",
          "185138.008000",
          "185138.011000",
          "185138.014000",
          "185138.017000",
          "185138.020000",
          "185138.022000",
          "185138.025000",
          "185138.028000",
          "185217.952000",
          "185217.955000",
          "185217.958000",
          "185217.961000",
          "185217.963000",
          "185217.966000",
          "185217.969000",
          "185217.972000",
          "185217.975000",
          "185217.978000",
          "185217.981000",
          "185217.984000",
          "185217.987000",
          "185217.990000",
          "185217.992000",
          "185217.995000",
          "185217.998000",
          "185218.002000",
          "185218.005000",
          "185218.008000",
          "185218.010000",
          "185218.013000",
          "185218.016000",
          "185218.019000",
          "185218.022000",
          "185218.025000",
          "185218.027000",
          "185257.953000",
          "185257.956000",
          "185257.959000",
          "185257.961000",
          "185257.964000",
          "185257.967000",
          "185257.970000",
          "185257.973000",
          "185257.976000",
          "185257.979000",
          "185257.981000",
          "185257.984000",
          "185257.987000",
          "185257.990000",
          "185257.993000",
          "185257.996000",
          "185257.998000",
          "185258.001000",
          "185258.004000",
          "185258.007000",
          "185258.010000",
          "185258.013000",
          "185258.015000",
          "185258.018000",
          "185258.021000",
          "185258.024000",
          "185258.027000",
          "185337.953000",
          "185337.956000",
          "185337.959000",
          "185337.962000",
          "185337.965000",
          "185337.968000",
          "185337.971000",
          "185337.974000",
          "185337.976000",
          "185337.979000",
