{
  "aor": 0.0013441951219512194,
  "aqi": 0.01155935412195122,
  "bids_meta": {
    "AcquisitionMatrixPE": 104,
    "AcquisitionNumber": 1,
    "AcquisitionTime": "18:37:14.935000",
    "BandwidthPerPixelPhaseEncode": 17.17,
    "BaseResolution": 104,
    "BodyPartExamined": "BRAIN",
    "CogAtlasID": "trm_4c898da401420",
    "ConsistencyInfo": "N4_VE11C_LATEST_20160120",
    "ConversionSoftware": "dcm2niix",
    "ConversionSoftwareVersion": "v1.0.20171215 (OpenJPEG build) GCC7.3.0",
    "DerivedVendorReportedEchoSpacing": 0.000560011,
    "DeviceSerialNumber": "167006",
    "DwellTime": 2.1e-06,
    "EchoTime": 0.037,
    "EchoTrainLength": 104,
    "EffectiveEchoSpacing": 0.000560011,
    "FlipAngle": 52,
    "ImageComments": "Unaliased_MB4_PE3_LB",
    "ImageOrientationPatientDICOM": [
      0.998921,
      0.0197831,
      -0.0420157,
      -0.0331376,
      0.937492,
      -0.346426
    ],
    "ImageType": [
      "ORIGINAL",
      "PRIMARY",
      "M",
      "MB",
      "ND",
      "MOSAIC"
    ],
    "InPlanePhaseEncodingDirectionDICOM": "COL",
    "InstitutionAddress": "Chemin_Queen-Mary_4565_Montreal_District_CA_H3W_1W5",
    "InstitutionName": "IUGM",
    "InstitutionalDepartmentName": "Department",
    "MRAcquisitionType": "2D",
    "MagneticFieldStrength": 3,
    "Manufacturer": "Siemens",
    "ManufacturersModelName": "Prisma_fit",
    "Modality": "MR",
    "MultibandAccelerationFactor": 4,
    "PartialFourier": 1,
    "PatientPosition": "HFS",
    "PercentPhaseFOV": 100,
    "PhaseEncodingDirection": "j-",
    "PhaseEncodingSteps": 104,
    "PhaseResolution": 1,
    "PixelBandwidth": 2290,
    "ProcedureStepDescription": "video5_generic",
    "ProtocolName": "func_task-figures1",
    "PulseSequenceDetails": "%CustomerSeq%_cmrr_mbep2d_bold",
    "ReceiveCoilActiveElements": "HC1-7;NC1,2",
    "ReceiveCoilName": "HeadNeck_64",
    "ReconMatrixPE": 104,
    "RepetitionTime": 1.49,
    "SAR": 0.0367372,
    "ScanOptions": "FS",
    "ScanningSequence": "EP",
    "SequenceName": "epfid2d1_104",
    "SequenceVariant": "SK_SS",
    "SeriesDescription": "func_task-figures1",
    "SeriesNumber": 7,
    "ShimSetting": [
      604,
      -7243,
      -8874,
      385,
      17,
      -356,
      -3,
      47
    ],
    "SliceThickness": 2,
    "SliceTiming": [
      0,
      0.7825,
      0.0975,
      0.88,
      0.195,
      0.98,
      0.2925,
      1.0775,
      0.39,
      1.175,
      0.49,
      1.2725,
      0.5875,
      1.37,
      0.685,
      0,
      0.7825,
      0.0975,
      0.88,
      0.195,
      0.98,
      0.2925,
      1.0775,
      0.39,
      1.175,
      0.49,
      1.2725,
      0.5875,
      1.37,
      0.685,
      0,
      0.7825,
      0.0975,
      0.88,
      0.195,
      0.98,
      0.2925,
      1.0775,
      0.39,
      1.175,
      0.49,
      1.2725,
      0.5875,
      1.37,
      0.685,
      0,
      0.7825,
      0.0975,
      0.88,
      0.195,
      0.98,
      0.2925,
      1.0775,
      0.39,
      1.175,
      0.49,
      1.2725,
      0.5875,
      1.37,
      0.685
    ],
    "SoftwareVersions": "syngo_MR_E11",
    "SpacingBetweenSlices": 2,
    "StationName": "MRC35049",
    "TaskName": "figures01",
    "TotalReadoutTime": 0.0576811,
    "TxRefAmp": 239.757,
    "dataset": "<unset>",
    "dcmmeta_affine": [
      [
        -1.9978421926498413,
        -0.06627517193555832,
        -0.06507206708192825,
        107.61157989501953
      ],
      [
        -0.03956616297364235,
        1.8749834299087524,
        -0.6948895454406738,
        -67.4260482788086
      ],
      [
        -0.08403149247169495,
        0.6928524971008301,
        1.8742716312408447,
        -73.73448181152344
      ],
      [
        0.0,
        0.0,
        0.0,
        1.0
      ]
    ],
    "dcmmeta_reorient_transform": [
      [
        0.0,
        -1.0,
        0.0,
        103.0
      ],
      [
        1.0,
        0.0,
        0.0,
        0.0
      ],
      [
        0.0,
        0.0,
        1.0,
        0.0
      ],
      [
        0.0,
        0.0,
        0.0,
        1.0
      ]
    ],
    "dcmmeta_shape": [
      104,
      104,
      60,
      410
    ],
    "dcmmeta_slice_dim": 2,
    "dcmmeta_version": 0.6,
    "global": {
      "const": {
        "AcquisitionMatrix": [
          104,
          0,
          0,
          104
        ],
        "AngioFlag": "N",
        "BitsAllocated": 16,
        "BitsStored": 16,
        "BodyPartExamined": "BRAIN",
        "Columns": 832,
        "EchoNumbers": 1,
        "EchoTime": 37.0,
        "EchoTrainLength": 104,
        "FlipAngle": 52.0,
        "HighBit": 15,
        "ImageOrientationPatient": [
          0.99892107136943,
          0.01978308136748,
          -0.0420157454505,
          -0.0331375852643,
          0.93749173789006,
          -0.3464262429879
        ],
        "ImagePositionPatient": [
          -803.87561356873,
          -822.5933184913,
          280.41508814055
        ],
        "ImageType": [
          "ORIGINAL",
          "PRIMARY",
          "M",
          "MB",
          "ND",
          "MOSAIC"
        ],
        "ImagedNucleus": "1H",
        "ImagingFrequency": 123.259384,
        "InPlanePhaseEncodingDirection": "COL",
        "MRAcquisitionType": "2D",
        "MagneticFieldStrength": 3.0,
        "Manufacturer": "SIEMENS",
        "ManufacturerModelName": "Prisma_fit",
        "Modality": "MR",
        "NumberOfAverages": 1.0,
        "NumberOfPhaseEncodingSteps": 104,
        "PercentPhaseFieldOfView": 100.0,
        "PercentSampling": 100.0,
        "PerformedProcedureStepStartTime": "183410.009000",
        "PhotometricInterpretation": "MONOCHROME2",
        "PixelBandwidth": 2290.0,
        "PixelRepresentation": 0,
        "PixelSpacing": [
          2.0,
          2.0
        ],
        "ProtocolName": "func_task-figures1",
        "RepetitionTime": 1490.0,
        "Rows": 832,
        "SAR": 0.03673719174607,
        "SamplesPerPixel": 1,
        "ScanOptions": "FS",
        "ScanningSequence": "EP",
        "SequenceName": "epfid2d1_104",
        "SequenceVariant": [
          "SK",
          "SS"
        ],
        "SeriesDescription": "func_task-figures1",
        "SeriesNumber": 7,
        "SeriesTime": "183814.112000",
        "SliceLocation": -49.173653295695,
        "SliceThickness": 2.0,
        "SmallestImagePixelValue": 0,
        "SoftwareVersions": "syngo MR E11",
        "SpacingBetweenSlices": 1.9999999667665,
        "SpecificCharacterSet": "ISO_IR 100",
        "StudyID": "1",
        "StudyTime": "183409.925000",
        "TransmitCoilName": "Body",
        "VariableFlipAngleFlag": "N",
        "WindowCenterWidthExplanation": "Algo1",
        "dBdt": 0.0
      },
      "slices": {}
    },
    "modality": "bold",
    "run_id": 1,
    "session_id": "002",
    "subject_id": "05",
    "task_id": "figures01",
    "time": {
      "samples": {
        "AcquisitionNumber": [
          1,
          2,
          3,
          4,
          5,
          6,
          7,
          8,
          9,
          10,
          11,
          12,
          13,
          14,
          15,
          16,
          17,
          18,
          19,
          20,
          21,
          22,
          23,
          24,
          25,
          26,
          27,
          28,
          29,
          30,
          31,
          32,
          33,
          34,
          35,
          36,
          37,
          38,
          39,
          40,
          41,
          42,
          43,
          44,
          45,
          46,
          47,
          48,
          49,
          50,
          51,
          52,
          53,
          54,
          55,
          56,
          57,
          58,
          59,
          60,
          61,
          62,
          63,
          64,
          65,
          66,
          67,
          68,
          69,
          70,
          71,
          72,
          73,
          74,
          75,
          76,
          77,
          78,
          79,
          80,
          81,
          82,
          83,
          84,
          85,
          86,
          87,
          88,
          89,
          90,
          91,
          92,
          93,
          94,
          95,
          96,
          97,
          98,
          99,
          100,
          101,
          102,
          103,
          104,
          105,
          106,
          107,
          108,
          109,
          110,
          111,
          112,
          113,
          114,
          115,
          116,
          117,
          118,
          119,
          120,
          121,
          122,
          123,
          124,
          125,
          126,
          127,
          128,
          129,
          130,
          131,
          132,
          133,
          134,
          135,
          136,
          137,
          138,
          139,
          140,
          141,
          142,
          143,
          144,
          145,
          146,
          147,
          148,
          149,
          150,
          151,
          152,
          153,
          154,
          155,
          156,
          157,
          158,
          159,
          160,
          161,
          162,
          163,
          164,
          165,
          166,
          167,
          168,
          169,
          170,
          171,
          172,
          173,
          174,
          175,
          176,
          177,
          178,
          179,
          180,
          181,
          182,
          183,
          184,
          185,
          186,
          187,
          188,
          189,
          190,
          191,
          192,
          193,
          194,
          195,
          196,
          197,
          198,
          199,
          200,
          201,
          202,
          203,
          204,
          205,
          206,
          207,
          208,
          209,
          210,
          211,
          212,
          213,
          214,
          215,
          216,
          217,
          218,
          219,
          220,
          221,
          222,
          223,
          224,
          225,
          226,
          227,
          228,
          229,
          230,
          231,
          232,
          233,
          234,
          235,
          236,
          237,
          238,
          239,
          240,
          241,
          242,
          243,
          244,
          245,
          246,
          247,
          248,
          249,
          250,
          251,
          252,
          253,
          254,
          255,
          256,
          257,
          258,
          259,
          260,
          261,
          262,
          263,
          264,
          265,
          266,
          267,
          268,
          269,
          270,
          271,
          272,
          273,
          274,
          275,
          276,
          277,
          278,
          279,
          280,
          281,
          282,
          283,
          284,
          285,
          286,
          287,
          288,
          289,
          290,
          291,
          292,
          293,
          294,
          295,
          296,
          297,
          298,
          299,
          300,
          301,
          302,
          303,
          304,
          305,
          306,
          307,
          308,
          309,
          310,
          311,
          312,
          313,
          314,
          315,
          316,
          317,
          318,
          319,
          320,
          321,
          322,
          323,
          324,
          325,
          326,
          327,
          328,
          329,
          330,
          331,
          332,
          333,
          334,
          335,
          336,
          337,
          338,
          339,
          340,
          341,
          342,
          343,
          344,
          345,
          346,
          347,
          348,
          349,
          350,
          351,
          352,
          353,
          354,
          355,
          356,
          357,
          358,
          359,
          360,
          361,
          362,
          363,
          364,
          365,
          366,
          367,
          368,
          369,
          370,
          371,
          372,
          373,
          374,
          375,
          376,
          377,
          378,
          379,
          380,
          381,
          382,
          383,
          384,
          385,
          386,
          387,
          388,
          389,
          390,
          391,
          392,
          393,
          394,
          395,
          396,
          397,
          398,
          399,
          400,
          401,
          402,
          403,
          404,
          405,
          406,
          407,
          408,
          409,
          410
        ],
        "AcquisitionTime": [
          "183714.935000",
          "183716.425000",
          "183717.915000",
          "183719.405000",
          "183720.895000",
          "183722.385000",
          "183723.875000",
          "183725.365000",
          "183726.855000",
          "183728.345000",
          "183729.835000",
          "183731.325000",
          "183732.815000",
          "183734.305000",
          "183735.795000",
          "183737.285000",
          "183738.775000",
          "183740.265000",
          "183741.755000",
          "183743.245000",
          "183744.735000",
          "183746.225000",
          "183747.715000",
          "183749.205000",
          "183750.695000",
          "183752.185000",
          "183753.675000",
          "183755.165000",
          "183756.655000",
          "183758.145000",
          "183759.635000",
          "183801.125000",
          "183802.615000",
          "183804.105000",
          "183805.595000",
          "183807.085000",
          "183808.575000",
          "183810.065000",
          "183811.555000",
          "183813.045000",
          "183814.535000",
          "183816.025000",
          "183817.515000",
          "183819.005000",
          "183820.495000",
          "183821.985000",
          "183823.475000",
          "183824.965000",
          "183826.455000",
          "183827.945000",
          "183829.435000",
          "183830.925000",
          "183832.415000",
          "183833.905000",
          "183835.395000",
          "183836.885000",
          "183838.375000",
          "183839.865000",
          "183841.355000",
          "183842.845000",
          "183844.335000",
          "183845.825000",
          "183847.315000",
          "183848.805000",
          "183850.295000",
          "183851.785000",
          "183853.275000",
          "183854.765000",
          "183856.255000",
          "183857.745000",
          "183859.235000",
          "183900.725000",
          "183902.215000",
          "183903.705000",
          "183905.195000",
          "183906.685000",
          "183908.175000",
          "183909.665000",
          "183911.155000",
          "183912.645000",
          "183914.135000",
          "183915.625000",
          "183917.115000",
          "183918.605000",
          "183920.095000",
          "183921.585000",
          "183923.075000",
          "183924.565000",
          "183926.055000",
          "183927.545000",
          "183929.035000",
          "183930.525000",
          "183932.015000",
          "183933.505000",
          "183934.995000",
          "183936.485000",
          "183937.975000",
          "183939.465000",
          "183940.955000",
          "183942.445000",
          "183943.935000",
          "183945.425000",
          "183946.915000",
          "183948.405000",
          "183949.895000",
          "183951.385000",
          "183952.875000",
          "183954.365000",
          "183955.855000",
          "183957.345000",
          "183958.835000",
          "184000.325000",
          "184001.815000",
          "184003.305000",
          "184004.795000",
          "184006.285000",
          "184007.775000",
          "184009.265000",
          "184010.755000",
          "184012.245000",
          "184013.735000",
          "184015.225000",
          "184016.715000",
          "184018.205000",
          "184019.695000",
          "184021.185000",
          "184022.675000",
          "184024.165000",
          "184025.655000",
          "184027.145000",
          "184028.635000",
          "184030.125000",
          "184031.615000",
          "184033.105000",
          "184034.595000",
          "184036.085000",
          "184037.575000",
          "184039.065000",
          "184040.555000",
          "184042.045000",
          "184043.535000",
          "184045.025000",
          "184046.515000",
          "184048.005000",
          "184049.495000",
          "184050.985000",
          "184052.475000",
          "184053.965000",
          "184055.455000",
          "184056.945000",
          "184058.435000",
          "184059.925000",
          "184101.415000",
          "184102.905000",
          "184104.395000",
          "184105.885000",
          "184107.375000",
          "184108.865000",
          "184110.355000",
          "184111.845000",
          "184113.335000",
          "184114.825000",
          "184116.315000",
          "184117.805000",
          "184119.295000",
          "184120.785000",
          "184122.275000",
          "184123.765000",
          "184125.255000",
          "184126.745000",
          "184128.235000",
          "184129.725000",
          "184131.215000",
          "184132.705000",
          "184134.195000",
          "184135.685000",
          "184137.175000",
          "184138.665000",
          "184140.155000",
          "184141.645000",
          "184143.135000",
          "184144.625000",
          "184146.115000",
          "184147.605000",
          "184149.095000",
          "184150.585000",
          "184152.075000",
          "184153.565000",
          "184155.055000",
          "184156.545000",
          "184158.035000",
          "184159.525000",
          "184201.015000",
          "184202.505000",
          "184203.995000",
          "184205.485000",
          "184206.975000",
          "184208.465000",
          "184209.955000",
          "184211.445000",
          "184212.935000",
          "184214.425000",
          "184215.915000",
          "184217.405000",
          "184218.895000",
          "184220.385000",
          "184221.875000",
          "184223.365000",
          "184224.855000",
          "184226.345000",
          "184227.835000",
          "184229.325000",
          "184230.815000",
          "184232.305000",
          "184233.795000",
          "184235.285000",
          "184236.775000",
          "184238.265000",
          "184239.755000",
          "184241.245000",
          "184242.735000",
          "184244.225000",
          "184245.715000",
          "184247.205000",
          "184248.695000",
          "184250.185000",
          "184251.675000",
          "184253.165000",
          "184254.655000",
          "184256.145000",
          "184257.635000",
          "184259.125000",
          "184300.615000",
          "184302.105000",
          "184303.595000",
          "184305.085000",
          "184306.575000",
          "184308.065000",
          "184309.555000",
          "184311.045000",
          "184312.535000",
          "184314.025000",
          "184315.515000",
          "184317.005000",
          "184318.495000",
          "184319.985000",
          "184321.475000",
          "184322.965000",
          "184324.455000",
          "184325.945000",
          "184327.435000",
          "184328.925000",
          "184330.415000",
          "184331.905000",
          "184333.395000",
          "184334.885000",
          "184336.375000",
          "184337.865000",
          "184339.355000",
          "184340.845000",
          "184342.335000",
          "184343.825000",
          "184345.315000",
          "184346.805000",
          "184348.295000",
          "184349.785000",
          "184351.275000",
          "184352.765000",
          "184354.255000",
          "184355.745000",
          "184357.235000",
          "184358.725000",
          "184400.215000",
          "184401.705000",
          "184403.195000",
          "184404.685000",
          "184406.175000",
          "184407.665000",
          "184409.155000",
          "184410.645000",
          "184412.135000",
          "184413.625000",
          "184415.115000",
          "184416.605000",
          "184418.095000",
          "184419.585000",
          "184421.075000",
          "184422.565000",
          "184424.055000",
          "184425.545000",
          "184427.035000",
          "184428.525000",
          "184430.015000",
          "184431.505000",
          "184432.995000",
          "184434.485000",
          "184435.975000",
          "184437.465000",
          "184438.955000",
          "184440.445000",
          "184441.935000",
          "184443.425000",
          "184444.915000",
          "184446.405000",
          "184447.895000",
          "184449.385000",
          "184450.875000",
          "184452.365000",
          "184453.855000",
          "184455.345000",
          "184456.835000",
          "184458.325000",
          "184459.815000",
          "184501.305000",
          "184502.795000",
          "184504.285000",
          "184505.775000",
          "184507.265000",
          "184508.755000",
          "184510.245000",
          "184511.735000",
          "184513.225000",
          "184514.715000",
          "184516.205000",
          "184517.695000",
          "184519.185000",
          "184520.675000",
          "184522.165000",
          "184523.655000",
          "184525.145000",
          "184526.635000",
          "184528.125000",
          "184529.615000",
          "184531.105000",
          "184532.595000",
          "184534.085000",
          "184535.575000",
          "184537.065000",
          "184538.555000",
          "184540.045000",
          "184541.535000",
          "184543.025000",
          "184544.515000",
          "184546.005000",
          "184547.495000",
          "184548.985000",
          "184550.475000",
          "184551.965000",
          "184553.455000",
          "184554.945000",
          "184556.435000",
          "184557.925000",
          "184559.415000",
          "184600.905000",
          "184602.395000",
          "184603.885000",
          "184605.375000",
          "184606.865000",
          "184608.355000",
          "184609.845000",
          "184611.335000",
          "184612.825000",
          "184614.315000",
          "184615.805000",
          "184617.295000",
          "184618.785000",
          "184620.275000",
          "184621.765000",
          "184623.255000",
          "184624.745000",
          "184626.235000",
          "184627.725000",
          "184629.215000",
          "184630.705000",
          "184632.195000",
          "184633.685000",
          "184635.175000",
          "184636.665000",
          "184638.155000",
          "184639.645000",
          "184641.135000",
          "184642.625000",
          "184644.115000",
          "184645.605000",
          "184647.095000",
          "184648.585000",
          "184650.075000",
          "184651.565000",
          "184653.055000",
          "184654.545000",
          "184656.035000",
          "184657.525000",
          "184659.015000",
          "184700.505000",
          "184701.995000",
          "184703.485000",
          "184704.975000",
          "184706.465000",
          "184707.955000",
          "184709.445000",
          "184710.935000",
          "184712.425000",
          "184713.915000",
          "184715.405000",
          "184716.895000",
          "184718.385000",
          "184719.875000",
          "184721.365000",
          "184722.855000",
          "184724.345000"
        ],
        "ContentTime": [
          "183814.115000",
          "183814.118000",
          "183814.121000",
          "183814.124000",
          "183814.127000",
          "183814.129000",
          "183834.078000",
          "183834.081000",
          "183834.084000",
          "183834.086000",
          "183834.111000",
          "183834.120000",
          "183834.122000",
          "183834.125000",
          "183834.128000",
          "183834.131000",
          "183834.134000",
          "183834.137000",
          "183834.139000",
          "183834.148000",
          "183834.151000",
          "183834.154000",
          "183834.157000",
          "183834.159000",
          "183834.162000",
          "183834.165000",
          "183854.078000",
          "183854.081000",
          "183854.084000",
          "183854.086000",
          "183854.089000",
          "183854.092000",
          "183854.095000",
          "183854.104000",
          "183854.106000",
          "183854.109000",
          "183854.112000",
          "183854.115000",
          "183854.118000",
          "183854.121000",
          "183854.123000",
          "183854.126000",
          "183854.129000",
          "183854.132000",
          "183854.135000",
          "183854.138000",
          "183854.140000",
          "183914.078000",
          "183914.081000",
          "183914.084000",
          "183914.087000",
          "183914.089000",
          "183914.092000",
          "183914.095000",
          "183914.098000",
          "183914.106000",
          "183914.109000",
          "183914.112000",
          "183914.115000",
          "183914.118000",
          "183914.120000",
          "183914.123000",
          "183914.126000",
          "183914.129000",
          "183914.132000",
          "183914.135000",
          "183914.137000",
          "183934.079000",
          "183934.082000",
          "183934.085000",
          "183934.088000",
          "183934.090000",
          "183934.093000",
          "183934.096000",
          "183934.099000",
          "183934.102000",
          "183934.105000",
          "183934.108000",
          "183934.110000",
          "183934.113000",
          "183934.116000",
          "183934.119000",
          "183934.122000",
          "183934.125000",
          "183934.128000",
          "183934.131000",
          "183934.134000",
          "184014.078000",
          "184014.081000",
          "184014.084000",
          "184014.087000",
          "184014.090000",
          "184014.092000",
          "184014.095000",
          "184014.098000",
          "184014.101000",
          "184014.104000",
          "184014.106000",
          "184014.109000",
          "184014.112000",
          "184014.115000",
          "184014.118000",
          "184014.121000",
          "184014.124000",
          "184014.126000",
          "184014.129000",
          "184014.132000",
          "184014.144000",
          "184014.147000",
          "184014.150000",
          "184014.153000",
          "184014.156000",
          "184014.159000",
          "184014.162000",
          "184014.164000",
          "184014.167000",
          "184014.181000",
          "184014.184000",
          "184014.187000",
          "184054.078000",
          "184054.081000",
          "184054.084000",
          "184054.087000",
          "184054.089000",
          "184054.092000",
          "184054.095000",
          "184054.098000",
          "184054.101000",
          "184054.104000",
          "184054.107000",
          "184054.110000",
          "184054.113000",
          "184054.116000",
          "184054.118000",
          "184054.121000",
          "184054.124000",
          "184054.127000",
          "184054.130000",
          "184054.133000",
          "184054.136000",
          "184054.138000",
          "184054.141000",
          "184054.144000",
          "184054.147000",
          "184054.150000",
          "184054.153000",
          "184134.078000",
          "184134.081000",
          "184134.084000",
          "184134.086000",
          "184134.089000",
          "184134.092000",
          "184134.095000",
          "184134.098000",
          "184134.101000",
          "184134.104000",
          "184134.106000",
          "184134.109000",
          "184134.112000",
          "184134.115000",
          "184134.118000",
          "184134.120000",
          "184134.123000",
          "184134.126000",
          "184134.129000",
          "184134.132000",
          "184134.135000",
          "184134.137000",
          "184134.140000",
          "184134.143000",
          "184134.146000",
          "184134.149000",
          "184134.152000",
          "184214.079000",
          "184214.082000",
          "184214.085000",
          "184214.088000",
          "184214.090000",
          "184214.093000",
          "184214.096000",
          "184214.099000",
          "184214.102000",
          "184214.105000",
          "184214.108000",
          "184214.111000",
          "184214.113000",
          "184214.116000",
          "184214.119000",
          "184214.122000",
          "184214.125000",
          "184214.128000",
          "184214.131000",
          "184214.134000",
          "184214.136000",
          "184214.139000",
          "184214.142000",
          "184214.145000",
          "184214.148000",
          "184214.151000",
          "184214.154000",
          "184254.078000",
          "184254.081000",
          "184254.084000",
          "184254.087000",
          "184254.089000",
          "184254.092000",
          "184254.095000",
          "184254.100000",
          "184254.103000",
          "184254.106000",
          "184254.109000",
          "184254.112000",
          "184254.115000",
          "184254.117000",
          "184254.120000",
          "184254.123000",
          "184254.126000",
