{
  "aor": 0.0006955256723716382,
  "aqi": 0.01259616870415648,
  "bids_meta": {
    "AcquisitionMatrixPE": 104,
    "AcquisitionNumber": 1,
    "AcquisitionTime": "19:20:12.030000",
    "BandwidthPerPixelPhaseEncode": 17.17,
    "BaseResolution": 104,
    "BodyPartExamined": "BRAIN",
    "CogAtlasID": "trm_4c898da401420",
    "ConsistencyInfo": "N4_VE11C_LATEST_20160120",
    "ConversionSoftware": "dcm2niix",
    "ConversionSoftwareVersion": "v1.0.20171215 (OpenJPEG build) GCC7.3.0",
    "DerivedVendorReportedEchoSpacing": 0.000560011,
    "DeviceSerialNumber": "167006",
    "DwellTime": 2.1e-06,
    "EchoTime": 0.037,
    "EchoTrainLength": 104,
    "EffectiveEchoSpacing": 0.000560011,
    "FlipAngle": 52,
    "ImageComments": "Unaliased_MB4_PE3_LB",
    "ImageOrientationPatientDICOM": [
      0.998921,
      0.0197831,
      -0.0420157,
      -0.0331376,
      0.937492,
      -0.346426
    ],
    "ImageType": [
      "ORIGINAL",
      "PRIMARY",
      "M",
      "MB",
      "ND",
      "MOSAIC"
    ],
    "InPlanePhaseEncodingDirectionDICOM": "COL",
    "InstitutionAddress": "Chemin_Queen-Mary_4565_Montreal_District_CA_H3W_1W5",
    "InstitutionName": "IUGM",
    "InstitutionalDepartmentName": "Department",
    "MRAcquisitionType": "2D",
    "MagneticFieldStrength": 3,
    "Manufacturer": "Siemens",
    "ManufacturersModelName": "Prisma_fit",
    "Modality": "MR",
    "MultibandAccelerationFactor": 4,
    "PartialFourier": 1,
    "PatientPosition": "HFS",
    "PercentPhaseFOV": 100,
    "PhaseEncodingDirection": "j-",
    "PhaseEncodingSteps": 104,
    "PhaseResolution": 1,
    "PixelBandwidth": 2290,
    "ProcedureStepDescription": "video5_generic",
    "ProtocolName": "func_task-figures5",
    "PulseSequenceDetails": "%CustomerSeq%_cmrr_mbep2d_bold",
    "ReceiveCoilActiveElements": "HC1-7;NC1,2",
    "ReceiveCoilName": "HeadNeck_64",
    "ReconMatrixPE": 104,
    "RepetitionTime": 1.49,
    "SAR": 0.0367372,
    "ScanOptions": "FS",
    "ScanningSequence": "EP",
    "SequenceName": "epfid2d1_104",
    "SequenceVariant": "SK_SS",
    "SeriesDescription": "func_task-figures5",
    "SeriesNumber": 15,
    "ShimSetting": [
      604,
      -7243,
      -8874,
      385,
      17,
      -356,
      -3,
      47
    ],
    "SliceThickness": 2,
    "SliceTiming": [
      0,
      0.7825,
      0.0975,
      0.88,
      0.195,
      0.98,
      0.2925,
      1.0775,
      0.39,
      1.175,
      0.49,
      1.2725,
      0.5875,
      1.37,
      0.685,
      0,
      0.7825,
      0.0975,
      0.88,
      0.195,
      0.98,
      0.2925,
      1.0775,
      0.39,
      1.175,
      0.49,
      1.2725,
      0.5875,
      1.37,
      0.685,
      0,
      0.7825,
      0.0975,
      0.88,
      0.195,
      0.98,
      0.2925,
      1.0775,
      0.39,
      1.175,
      0.49,
      1.2725,
      0.5875,
      1.37,
      0.685,
      0,
      0.7825,
      0.0975,
      0.88,
      0.195,
      0.98,
      0.2925,
      1.0775,
      0.39,
      1.175,
      0.49,
      1.2725,
      0.5875,
      1.37,
      0.685
    ],
    "SoftwareVersions": "syngo_MR_E11",
    "SpacingBetweenSlices": 2,
    "StationName": "MRC35049",
    "TaskName": "figures05",
    "TotalReadoutTime": 0.0576811,
    "TxRefAmp": 239.757,
    "dataset": "<unset>",
    "dcmmeta_affine": [
      [
        -1.9978421926498413,
        -0.06627517193555832,
        -0.06507206708192825,
        107.61157989501953
      ],
      [
        -0.03956616297364235,
        1.8749834299087524,
        -0.6948895454406738,
        -67.4260482788086
      ],
      [
        -0.08403149247169495,
        0.6928524971008301,
        1.8742716312408447,
        -73.73448181152344
      ],
      [
        0.0,
        0.0,
        0.0,
        1.0
      ]
    ],
    "dcmmeta_reorient_transform": [
      [
        0.0,
        -1.0,
        0.0,
        103.0
      ],
      [
        1.0,
        0.0,
        0.0,
        0.0
      ],
      [
        0.0,
        0.0,
        1.0,
        0.0
      ],
      [
        0.0,
        0.0,
        0.0,
        1.0
      ]
    ],
    "dcmmeta_shape": [
      104,
      104,
      60,
      410
    ],
    "dcmmeta_slice_dim": 2,
    "dcmmeta_version": 0.6,
    "global": {
      "const": {
        "AcquisitionMatrix": [
          104,
          0,
          0,
          104
        ],
        "AngioFlag": "N",
        "BitsAllocated": 16,
        "BitsStored": 16,
        "BodyPartExamined": "BRAIN",
        "Columns": 832,
        "EchoNumbers": 1,
        "EchoTime": 37.0,
        "EchoTrainLength": 104,
        "FlipAngle": 52.0,
        "HighBit": 15,
        "ImageOrientationPatient": [
          0.99892107136943,
          0.01978308136748,
          -0.0420157454505,
          -0.0331375852643,
          0.93749173789006,
          -0.3464262429879
        ],
        "ImagePositionPatient": [
          -803.87561356873,
          -822.5933184913,
          280.41508814055
        ],
        "ImageType": [
          "ORIGINAL",
          "PRIMARY",
          "M",
          "MB",
          "ND",
          "MOSAIC"
        ],
        "ImagedNucleus": "1H",
        "ImagingFrequency": 123.259392,
        "InPlanePhaseEncodingDirection": "COL",
        "MRAcquisitionType": "2D",
        "MagneticFieldStrength": 3.0,
        "Manufacturer": "SIEMENS",
        "ManufacturerModelName": "Prisma_fit",
        "Modality": "MR",
        "NumberOfAverages": 1.0,
        "NumberOfPhaseEncodingSteps": 104,
        "PercentPhaseFieldOfView": 100.0,
        "PercentSampling": 100.0,
        "PerformedProcedureStepStartTime": "183410.009000",
        "PhotometricInterpretation": "MONOCHROME2",
        "PixelBandwidth": 2290.0,
        "PixelRepresentation": 0,
        "PixelSpacing": [
          2.0,
          2.0
        ],
        "ProtocolName": "func_task-figures5",
        "RepetitionTime": 1490.0,
        "Rows": 832,
        "SAR": 0.03673719174607,
        "SamplesPerPixel": 1,
        "ScanOptions": "FS",
        "ScanningSequence": "EP",
        "SequenceName": "epfid2d1_104",
        "SequenceVariant": [
          "SK",
          "SS"
        ],
        "SeriesDescription": "func_task-figures5",
        "SeriesNumber": 15,
        "SeriesTime": "192137.977000",
        "SliceLocation": -49.173653295695,
        "SliceThickness": 2.0,
        "SmallestImagePixelValue": 0,
        "SoftwareVersions": "syngo MR E11",
        "SpacingBetweenSlices": 1.9999999667665,
        "SpecificCharacterSet": "ISO_IR 100",
        "StudyID": "1",
        "StudyTime": "183409.925000",
        "TransmitCoilName": "Body",
        "VariableFlipAngleFlag": "N",
        "WindowCenterWidthExplanation": "Algo1",
        "dBdt": 0.0
      },
      "slices": {}
    },
    "modality": "bold",
    "run_id": 1,
    "session_id": "002",
    "subject_id": "05",
    "task_id": "figures05",
    "time": {
      "samples": {
        "AcquisitionNumber": [
          1,
          2,
          3,
          4,
          5,
          6,
          7,
          8,
          9,
          10,
          11,
          12,
          13,
          14,
          15,
          16,
          17,
          18,
          19,
          20,
          21,
          22,
          23,
          24,
          25,
          26,
          27,
          28,
          29,
          30,
          31,
          32,
          33,
          34,
          35,
          36,
          37,
          38,
          39,
          40,
          41,
          42,
          43,
          44,
          45,
          46,
          47,
          48,
          49,
          50,
          51,
          52,
          53,
          54,
          55,
          56,
          57,
          58,
          59,
          60,
          61,
          62,
          63,
          64,
          65,
          66,
          67,
          68,
          69,
          70,
          71,
          72,
          73,
          74,
          75,
          76,
          77,
          78,
          79,
          80,
          81,
          82,
          83,
          84,
          85,
          86,
          87,
          88,
          89,
          90,
          91,
          92,
          93,
          94,
          95,
          96,
          97,
          98,
          99,
          100,
          101,
          102,
          103,
          104,
          105,
          106,
          107,
          108,
          109,
          110,
          111,
          112,
          113,
          114,
          115,
          116,
          117,
          118,
          119,
          120,
          121,
          122,
          123,
          124,
          125,
          126,
          127,
          128,
          129,
          130,
          131,
          132,
          133,
          134,
          135,
          136,
          137,
          138,
          139,
          140,
          141,
          142,
          143,
          144,
          145,
          146,
          147,
          148,
          149,
          150,
          151,
          152,
          153,
          154,
          155,
          156,
          157,
          158,
          159,
          160,
          161,
          162,
          163,
          164,
          165,
          166,
          167,
          168,
          169,
          170,
          171,
          172,
          173,
          174,
          175,
          176,
          177,
          178,
          179,
          180,
          181,
          182,
          183,
          184,
          185,
          186,
          187,
          188,
          189,
          190,
          191,
          192,
          193,
          194,
          195,
          196,
          197,
          198,
          199,
          200,
          201,
          202,
          203,
          204,
          205,
          206,
          207,
          208,
          209,
          210,
          211,
          212,
          213,
          214,
          215,
          216,
          217,
          218,
          219,
          220,
          221,
          222,
          223,
          224,
          225,
          226,
          227,
          228,
          229,
          230,
          231,
          232,
          233,
          234,
          235,
          236,
          237,
          238,
          239,
          240,
          241,
          242,
          243,
          244,
          245,
          246,
          247,
          248,
          249,
          250,
          251,
          252,
          253,
          254,
          255,
          256,
          257,
          258,
          259,
          260,
          261,
          262,
          263,
          264,
          265,
          266,
          267,
          268,
          269,
          270,
          271,
          272,
          273,
          274,
          275,
          276,
          277,
          278,
          279,
          280,
          281,
          282,
          283,
          284,
          285,
          286,
          287,
          288,
          289,
          290,
          291,
          292,
          293,
          294,
          295,
          296,
          297,
          298,
          299,
          300,
          301,
          302,
          303,
          304,
          305,
          306,
          307,
          308,
          309,
          310,
          311,
          312,
          313,
          314,
          315,
          316,
          317,
          318,
          319,
          320,
          321,
          322,
          323,
          324,
          325,
          326,
          327,
          328,
          329,
          330,
          331,
          332,
          333,
          334,
          335,
          336,
          337,
          338,
          339,
          340,
          341,
          342,
          343,
          344,
          345,
          346,
          347,
          348,
          349,
          350,
          351,
          352,
          353,
          354,
          355,
          356,
          357,
          358,
          359,
          360,
          361,
          362,
          363,
          364,
          365,
          366,
          367,
          368,
          369,
          370,
          371,
          372,
          373,
          374,
          375,
          376,
          377,
          378,
          379,
          380,
          381,
          382,
          383,
          384,
          385,
          386,
          387,
          388,
          389,
          390,
          391,
          392,
          393,
          394,
          395,
          396,
          397,
          398,
          399,
          400,
          401,
          402,
          403,
          404,
          405,
          406,
          407,
          408,
          409,
          410
        ],
        "AcquisitionTime": [
          "192012.030000",
          "192013.520000",
          "192015.010000",
          "192016.500000",
          "192017.990000",
          "192019.480000",
          "192020.970000",
          "192022.460000",
          "192023.950000",
          "192025.440000",
          "192026.930000",
          "192028.420000",
          "192029.910000",
          "192031.400000",
          "192032.890000",
          "192034.380000",
          "192035.870000",
          "192037.360000",
          "192038.850000",
          "192040.340000",
          "192041.830000",
          "192043.320000",
          "192044.810000",
          "192046.300000",
          "192047.790000",
          "192049.280000",
          "192050.770000",
          "192052.260000",
          "192053.750000",
          "192055.240000",
          "192056.730000",
          "192058.220000",
          "192059.710000",
          "192101.200000",
          "192102.690000",
          "192104.180000",
          "192105.670000",
          "192107.160000",
          "192108.650000",
          "192110.140000",
          "192111.630000",
          "192113.120000",
          "192114.610000",
          "192116.100000",
          "192117.590000",
          "192119.080000",
          "192120.570000",
          "192122.060000",
          "192123.550000",
          "192125.040000",
          "192126.530000",
          "192128.020000",
          "192129.510000",
          "192131.000000",
          "192132.490000",
          "192133.980000",
          "192135.470000",
          "192136.960000",
          "192138.450000",
          "192139.940000",
          "192141.430000",
          "192142.920000",
          "192144.410000",
          "192145.900000",
          "192147.390000",
          "192148.880000",
          "192150.370000",
          "192151.860000",
          "192153.350000",
          "192154.840000",
          "192156.330000",
          "192157.820000",
          "192159.310000",
          "192200.800000",
          "192202.290000",
          "192203.780000",
          "192205.270000",
          "192206.760000",
          "192208.250000",
          "192209.740000",
          "192211.230000",
          "192212.720000",
          "192214.210000",
          "192215.700000",
          "192217.190000",
          "192218.680000",
          "192220.170000",
          "192221.660000",
          "192223.150000",
          "192224.640000",
          "192226.130000",
          "192227.620000",
          "192229.110000",
          "192230.600000",
          "192232.090000",
          "192233.580000",
          "192235.070000",
          "192236.560000",
          "192238.050000",
          "192239.540000",
          "192241.030000",
          "192242.520000",
          "192244.010000",
          "192245.500000",
          "192246.990000",
          "192248.480000",
          "192249.970000",
          "192251.460000",
          "192252.950000",
          "192254.440000",
          "192255.930000",
          "192257.420000",
          "192258.910000",
          "192300.400000",
          "192301.890000",
          "192303.380000",
          "192304.870000",
          "192306.360000",
          "192307.850000",
          "192309.340000",
          "192310.830000",
          "192312.320000",
          "192313.810000",
          "192315.300000",
          "192316.790000",
          "192318.280000",
          "192319.770000",
          "192321.260000",
          "192322.750000",
          "192324.240000",
          "192325.730000",
          "192327.220000",
          "192328.710000",
          "192330.200000",
          "192331.690000",
          "192333.180000",
          "192334.670000",
          "192336.160000",
          "192337.650000",
          "192339.140000",
          "192340.630000",
          "192342.120000",
          "192343.610000",
          "192345.100000",
          "192346.590000",
          "192348.080000",
          "192349.570000",
          "192351.060000",
          "192352.550000",
          "192354.040000",
          "192355.530000",
          "192357.020000",
          "192358.510000",
          "192400.000000",
          "192401.490000",
          "192402.980000",
          "192404.470000",
          "192405.960000",
          "192407.450000",
          "192408.940000",
          "192410.430000",
          "192411.920000",
          "192413.410000",
          "192414.900000",
          "192416.390000",
          "192417.880000",
          "192419.370000",
          "192420.860000",
          "192422.350000",
          "192423.840000",
          "192425.330000",
          "192426.820000",
          "192428.310000",
          "192429.800000",
          "192431.290000",
          "192432.780000",
          "192434.270000",
          "192435.760000",
          "192437.250000",
          "192438.740000",
          "192440.230000",
          "192441.720000",
          "192443.210000",
          "192444.700000",
          "192446.190000",
          "192447.680000",
          "192449.170000",
          "192450.660000",
          "192452.150000",
          "192453.640000",
          "192455.130000",
          "192456.620000",
          "192458.110000",
          "192459.600000",
          "192501.090000",
          "192502.580000",
          "192504.070000",
          "192505.560000",
          "192507.050000",
          "192508.540000",
          "192510.030000",
          "192511.520000",
          "192513.010000",
          "192514.500000",
          "192515.990000",
          "192517.480000",
          "192518.970000",
          "192520.460000",
          "192521.950000",
          "192523.440000",
          "192524.930000",
          "192526.420000",
          "192527.910000",
          "192529.400000",
          "192530.890000",
          "192532.380000",
          "192533.870000",
          "192535.360000",
          "192536.850000",
          "192538.340000",
          "192539.830000",
          "192541.320000",
          "192542.810000",
          "192544.300000",
          "192545.790000",
          "192547.280000",
          "192548.770000",
          "192550.260000",
          "192551.750000",
          "192553.240000",
          "192554.730000",
          "192556.220000",
          "192557.710000",
          "192559.200000",
          "192600.690000",
          "192602.180000",
          "192603.670000",
          "192605.160000",
          "192606.650000",
          "192608.140000",
          "192609.630000",
          "192611.120000",
          "192612.610000",
          "192614.100000",
          "192615.590000",
          "192617.080000",
          "192618.570000",
          "192620.060000",
          "192621.550000",
          "192623.040000",
          "192624.530000",
          "192626.020000",
          "192627.510000",
          "192629.000000",
          "192630.490000",
          "192631.980000",
          "192633.470000",
          "192634.960000",
          "192636.450000",
          "192637.940000",
          "192639.430000",
          "192640.920000",
          "192642.410000",
          "192643.900000",
          "192645.390000",
          "192646.880000",
          "192648.370000",
          "192649.860000",
          "192651.350000",
          "192652.840000",
          "192654.330000",
          "192655.820000",
          "192657.310000",
          "192658.800000",
          "192700.290000",
          "192701.780000",
          "192703.270000",
          "192704.760000",
          "192706.250000",
          "192707.740000",
          "192709.230000",
          "192710.720000",
          "192712.210000",
          "192713.700000",
          "192715.190000",
          "192716.680000",
          "192718.170000",
          "192719.660000",
          "192721.150000",
          "192722.640000",
          "192724.130000",
          "192725.620000",
          "192727.110000",
          "192728.600000",
          "192730.090000",
          "192731.580000",
          "192733.070000",
          "192734.560000",
          "192736.050000",
          "192737.540000",
          "192739.030000",
          "192740.520000",
          "192742.010000",
          "192743.500000",
          "192744.990000",
          "192746.480000",
          "192747.970000",
          "192749.460000",
          "192750.950000",
          "192752.440000",
          "192753.930000",
          "192755.420000",
          "192756.910000",
          "192758.400000",
          "192759.890000",
          "192801.380000",
          "192802.870000",
          "192804.360000",
          "192805.850000",
          "192807.340000",
          "192808.830000",
          "192810.320000",
          "192811.810000",
          "192813.300000",
          "192814.790000",
          "192816.280000",
          "192817.770000",
          "192819.260000",
          "192820.750000",
          "192822.240000",
          "192823.730000",
          "192825.220000",
          "192826.710000",
          "192828.200000",
          "192829.690000",
          "192831.180000",
          "192832.670000",
          "192834.160000",
          "192835.650000",
          "192837.140000",
          "192838.630000",
          "192840.120000",
          "192841.610000",
          "192843.100000",
          "192844.590000",
          "192846.080000",
          "192847.570000",
          "192849.060000",
          "192850.550000",
          "192852.040000",
          "192853.530000",
          "192855.020000",
          "192856.510000",
          "192858.000000",
          "192859.490000",
          "192900.980000",
          "192902.470000",
          "192903.960000",
          "192905.450000",
          "192906.940000",
          "192908.430000",
          "192909.920000",
          "192911.410000",
          "192912.900000",
          "192914.390000",
          "192915.880000",
          "192917.370000",
          "192918.860000",
          "192920.350000",
          "192921.840000",
          "192923.330000",
          "192924.820000",
          "192926.310000",
          "192927.800000",
          "192929.290000",
          "192930.780000",
          "192932.270000",
          "192933.760000",
          "192935.250000",
          "192936.740000",
          "192938.230000",
          "192939.720000",
          "192941.210000",
          "192942.700000",
          "192944.190000",
          "192945.680000",
          "192947.170000",
          "192948.660000",
          "192950.150000",
          "192951.640000",
          "192953.130000",
          "192954.620000",
          "192956.110000",
          "192957.600000",
          "192959.090000",
          "193000.580000",
          "193002.070000",
          "193003.560000",
          "193005.050000",
          "193006.540000",
          "193008.030000",
          "193009.520000",
          "193011.010000",
          "193012.500000",
          "193013.990000",
          "193015.480000",
          "193016.970000",
          "193018.460000",
          "193019.950000",
          "193021.440000"
        ],
        "ContentTime": [
          "192137.979000",
          "192137.983000",
          "192137.986000",
          "192137.989000",
          "192137.992000",
          "192137.994000",
          "192137.997000",
          "192138.001000",
          "192138.004000",
          "192138.007000",
          "192138.010000",
          "192138.013000",
          "192138.015000",
          "192138.018000",
          "192138.021000",
          "192138.024000",
          "192138.027000",
          "192138.029000",
          "192138.032000",
          "192138.035000",
          "192138.038000",
          "192138.041000",
          "192138.048000",
          "192138.051000",
          "192138.054000",
          "192138.057000",
          "192138.060000",
          "192138.063000",
          "192138.066000",
          "192138.070000",
          "192138.073000",
          "192138.076000",
          "192157.953000",
          "192157.956000",
          "192157.959000",
          "192157.961000",
          "192157.964000",
          "192157.967000",
          "192157.970000",
          "192157.973000",
          "192157.975000",
          "192157.978000",
          "192157.981000",
          "192157.984000",
          "192157.987000",
          "192157.989000",
          "192157.992000",
          "192157.995000",
          "192157.998000",
          "192158.002000",
          "192158.005000",
          "192158.007000",
          "192217.952000",
          "192217.955000",
          "192217.958000",
          "192217.960000",
          "192217.963000",
          "192217.966000",
          "192217.969000",
          "192217.972000",
          "192217.974000",
          "192217.977000",
          "192217.980000",
          "192217.983000",
          "192217.986000",
          "192217.988000",
          "192217.991000",
          "192217.994000",
          "192217.997000",
          "192218.000000",
          "192218.003000",
          "192218.006000",
          "192237.952000",
          "192237.955000",
          "192237.957000",
          "192237.960000",
          "192237.963000",
          "192237.966000",
          "192237.969000",
          "192237.972000",
          "192237.975000",
          "192237.978000",
          "192237.980000",
          "192237.983000",
          "192237.986000",
          "192237.989000",
          "192237.992000",
          "192237.994000",
          "192237.997000",
          "192238.001000",
          "192238.004000",
          "192238.007000",
          "192317.953000",
          "192317.956000",
          "192317.959000",
          "192317.962000",
          "192317.964000",
          "192317.967000",
          "192317.970000",
          "192317.973000",
          "192317.976000",
          "192317.979000",
          "192317.982000",
          "192317.985000",
          "192317.987000",
          "192317.990000",
          "192317.993000",
          "192317.996000",
          "192318.000000",
          "192318.003000",
          "192318.006000",
          "192318.009000",
          "192318.011000",
          "192318.014000",
          "192318.017000",
          "192318.020000",
          "192318.023000",
          "192318.026000",
          "192318.028000",
          "192318.031000",
          "192318.034000",
          "192318.037000",
          "192318.040000",
          "192318.042000",
          "192357.953000",
          "192357.956000",
          "192357.959000",
          "192357.961000",
          "192357.964000",
          "192357.967000",
          "192357.970000",
          "192357.973000",
          "192357.975000",
          "192357.978000",
          "192357.981000",
          "192357.984000",
          "192357.987000",
          "192357.990000",
          "192357.992000",
          "192357.995000",
          "192357.998000",
          "192358.002000",
          "192358.005000",
          "192358.007000",
          "192358.010000",
          "192358.013000",
          "192358.016000",
          "192358.019000",
          "192358.022000",
          "192358.024000",
          "192358.027000",
          "192437.952000",
          "192437.955000",
          "192437.958000",
          "192437.960000",
          "192437.963000",
          "192437.966000",
          "192437.969000",
          "192437.972000",
          "192437.974000",
          "192437.987000",
          "192437.990000",
          "192437.993000",
          "192437.996000",
          "192437.998000",
          "192438.002000",
          "192438.005000",
          "192438.008000",
          "192438.011000",
          "192438.018000",
          "192438.021000",
          "192438.024000",
          "192438.027000",
          "192438.030000",
          "192438.033000",
          "192438.035000",
          "192438.038000",
          "192438.041000",
          "192517.952000",
          "192517.955000",
          "192517.958000",
          "192517.961000",
          "192517.964000",
          "192517.967000",
          "192517.970000",
          "192517.972000",
          "192517.975000",
          "192517.978000",
          "192517.981000",
          "192517.984000",
          "192517.987000",
          "192517.990000",
          "192517.993000",
          "192517.995000",
          "192517.998000",
          "192518.002000",
          "192518.005000",
          "192518.008000",
          "192518.011000",
          "192518.014000",
          "192518.016000",
          "192518.019000",
          "192518.022000",
          "192518.025000",
          "192518.028000",
          "192557.954000",
          "192557.958000",
          "192557.961000",
          "192557.964000",
          "192557.968000",
          "192557.976000",
          "192557.979000",
          "192557.982000",
          "192557.985000",
          "192557.988000",
          "192557.990000",
          "192557.993000",
