{
  "aor": 0.00027921951219512197,
  "aqi": 0.006806412585365853,
  "bids_meta": {
    "AcquisitionMatrixPE": 104,
    "AcquisitionNumber": 1,
    "AcquisitionTime": "12:41:10.190000",
    "BandwidthPerPixelPhaseEncode": 17.17,
    "BaseResolution": 104,
    "BodyPartExamined": "BRAIN",
    "CogAtlasID": "trm_4c898da401420",
    "ConsistencyInfo": "N4_VE11C_LATEST_20160120",
    "ConversionSoftware": "dcm2niix",
    "ConversionSoftwareVersion": "v1.0.20171215 (OpenJPEG build) GCC7.3.0",
    "DerivedVendorReportedEchoSpacing": 0.000560011,
    "DeviceSerialNumber": "167006",
    "DwellTime": 2.1e-06,
    "EchoTime": 0.037,
    "EchoTrainLength": 104,
    "EffectiveEchoSpacing": 0.000560011,
    "FlipAngle": 52,
    "ImageComments": "Unaliased_MB4_PE3_LB",
    "ImageOrientationPatientDICOM": [
      0.996176,
      0.0586819,
      -0.0647278,
      -0.0673885,
      0.987603,
      -0.14177
    ],
    "ImageType": [
      "ORIGINAL",
      "PRIMARY",
      "M",
      "MB",
      "ND",
      "MOSAIC"
    ],
    "InPlanePhaseEncodingDirectionDICOM": "COL",
    "InstitutionAddress": "Chemin_Queen-Mary_4565_Montreal_District_CA_H3W_1W5",
    "InstitutionName": "IUGM",
    "InstitutionalDepartmentName": "Department",
    "MRAcquisitionType": "2D",
    "MagneticFieldStrength": 3,
    "Manufacturer": "Siemens",
    "ManufacturersModelName": "Prisma_fit",
    "Modality": "MR",
    "MultibandAccelerationFactor": 4,
    "PartialFourier": 1,
    "PatientPosition": "HFS",
    "PercentPhaseFOV": 100,
    "PhaseEncodingDirection": "j-",
    "PhaseEncodingSteps": 104,
    "PhaseResolution": 1,
    "PixelBandwidth": 2290,
    "ProcedureStepDescription": "video5_generic",
    "ProtocolName": "func_task-figures7",
    "PulseSequenceDetails": "%CustomerSeq%_cmrr_mbep2d_bold",
    "ReceiveCoilActiveElements": "HC1-7;NC1,2",
    "ReceiveCoilName": "HeadNeck_64",
    "ReconMatrixPE": 104,
    "RepetitionTime": 1.49,
    "SAR": 0.0330461,
    "ScanOptions": "FS",
    "ScanningSequence": "EP",
    "SequenceName": "epfid2d1_104",
    "SequenceVariant": "SK_SS",
    "SeriesDescription": "func_task-figures7",
    "SeriesNumber": 16,
    "ShimSetting": [
      599,
      -7261,
      -8844,
      655,
      -37,
      -318,
      102,
      48
    ],
    "SliceThickness": 2,
    "SliceTiming": [
      0,
      0.785,
      0.0975,
      0.8825,
      0.1975,
      0.98,
      0.295,
      1.0775,
      0.3925,
      1.175,
      0.49,
      1.275,
      0.5875,
      1.3725,
      0.685,
      0,
      0.785,
      0.0975,
      0.8825,
      0.1975,
      0.98,
      0.295,
      1.0775,
      0.3925,
      1.175,
      0.49,
      1.275,
      0.5875,
      1.3725,
      0.685,
      0,
      0.785,
      0.0975,
      0.8825,
      0.1975,
      0.98,
      0.295,
      1.0775,
      0.3925,
      1.175,
      0.49,
      1.275,
      0.5875,
      1.3725,
      0.685,
      0,
      0.785,
      0.0975,
      0.8825,
      0.1975,
      0.98,
      0.295,
      1.0775,
      0.3925,
      1.175,
      0.49,
      1.275,
      0.5875,
      1.3725,
      0.685
    ],
    "SoftwareVersions": "syngo_MR_E11",
    "SpacingBetweenSlices": 2,
    "StationName": "MRC35049",
    "TaskName": "figures07",
    "TotalReadoutTime": 0.0576811,
    "TxRefAmp": 219.7,
    "dataset": "<unset>",
    "dcmmeta_affine": [
      [
        -1.9923521280288696,
        -0.13477706909179688,
        -0.11121214181184769,
        110.97199249267578
      ],
      [
        -0.11736370623111725,
        1.9752063751220703,
        -0.29117944836616516,
        -79.52421569824219
      ],
      [
        -0.12945562601089478,
        0.28353986144065857,
        1.9755622148513794,
        -36.3449821472168
      ],
      [
        0.0,
        0.0,
        0.0,
        1.0
      ]
    ],
    "dcmmeta_reorient_transform": [
      [
        0.0,
        -1.0,
        0.0,
        103.0
      ],
      [
        1.0,
        0.0,
        0.0,
        0.0
      ],
      [
        0.0,
        0.0,
        1.0,
        0.0
      ],
      [
        0.0,
        0.0,
        0.0,
        1.0
      ]
    ],
    "dcmmeta_shape": [
      104,
      104,
      60,
      410
    ],
    "dcmmeta_slice_dim": 2,
    "dcmmeta_version": 0.6,
    "global": {
      "const": {
        "AcquisitionMatrix": [
          104,
          0,
          0,
          104
        ],
        "AngioFlag": "N",
        "BitsAllocated": 16,
        "BitsStored": 16,
        "BodyPartExamined": "BRAIN",
        "Columns": 832,
        "EchoNumbers": 1,
        "EchoTime": 37.0,
        "EchoTrainLength": 104,
        "FlipAngle": 52.0,
        "HighBit": 15,
        "ImageOrientationPatient": [
          0.99617606394721,
          0.05868185259357,
          -0.0647278131473,
          -0.0673885323523,
          0.98760319541918,
          -0.1417699337139
        ],
        "ImagePositionPatient": [
          -773.24727929721,
          -885.61756029146,
          143.18998502294
        ],
        "ImageType": [
          "ORIGINAL",
          "PRIMARY",
          "M",
          "MB",
          "ND",
          "MOSAIC"
        ],
        "ImagedNucleus": "1H",
        "ImagingFrequency": 123.259166,
        "InPlanePhaseEncodingDirection": "COL",
        "MRAcquisitionType": "2D",
        "MagneticFieldStrength": 3.0,
        "Manufacturer": "SIEMENS",
        "ManufacturerModelName": "Prisma_fit",
        "Modality": "MR",
        "NumberOfAverages": 1.0,
        "NumberOfPhaseEncodingSteps": 104,
        "PercentPhaseFieldOfView": 100.0,
        "PercentSampling": 100.0,
        "PerformedProcedureStepStartTime": "114012.707000",
        "PhotometricInterpretation": "MONOCHROME2",
        "PixelBandwidth": 2290.0,
        "PixelRepresentation": 0,
        "PixelSpacing": [
          2.0,
          2.0
        ],
        "ProtocolName": "func_task-figures7",
        "RepetitionTime": 1490.0,
        "Rows": 832,
        "SAR": 0.03304612819702,
        "SamplesPerPixel": 1,
        "ScanOptions": "FS",
        "ScanningSequence": "EP",
        "SequenceName": "epfid2d1_104",
        "SequenceVariant": [
          "SK",
          "SS"
        ],
        "SeriesDescription": "func_task-figures7",
        "SeriesNumber": 16,
        "SeriesTime": "124221.350000",
        "SliceLocation": -30.493695417749,
        "SliceThickness": 2.0,
        "SmallestImagePixelValue": 0,
        "SoftwareVersions": "syngo MR E11",
        "SpacingBetweenSlices": 1.9999999453073,
        "SpecificCharacterSet": "ISO_IR 100",
        "StudyID": "1",
        "StudyTime": "114012.633000",
        "TransmitCoilName": "Body",
        "VariableFlipAngleFlag": "N",
        "WindowCenterWidthExplanation": "Algo1",
        "dBdt": 0.0
      },
      "slices": {}
    },
    "modality": "bold",
    "run_id": 1,
    "session_id": "005",
    "subject_id": "04",
    "task_id": "figures07",
    "time": {
      "samples": {
        "AcquisitionNumber": [
          1,
          2,
          3,
          4,
          5,
          6,
          7,
          8,
          9,
          10,
          11,
          12,
          13,
          14,
          15,
          16,
          17,
          18,
          19,
          20,
          21,
          22,
          23,
          24,
          25,
          26,
          27,
          28,
          29,
          30,
          31,
          32,
          33,
          34,
          35,
          36,
          37,
          38,
          39,
          40,
          41,
          42,
          43,
          44,
          45,
          46,
          47,
          48,
          49,
          50,
          51,
          52,
          53,
          54,
          55,
          56,
          57,
          58,
          59,
          60,
          61,
          62,
          63,
          64,
          65,
          66,
          67,
          68,
          69,
          70,
          71,
          72,
          73,
          74,
          75,
          76,
          77,
          78,
          79,
          80,
          81,
          82,
          83,
          84,
          85,
          86,
          87,
          88,
          89,
          90,
          91,
          92,
          93,
          94,
          95,
          96,
          97,
          98,
          99,
          100,
          101,
          102,
          103,
          104,
          105,
          106,
          107,
          108,
          109,
          110,
          111,
          112,
          113,
          114,
          115,
          116,
          117,
          118,
          119,
          120,
          121,
          122,
          123,
          124,
          125,
          126,
          127,
          128,
          129,
          130,
          131,
          132,
          133,
          134,
          135,
          136,
          137,
          138,
          139,
          140,
          141,
          142,
          143,
          144,
          145,
          146,
          147,
          148,
          149,
          150,
          151,
          152,
          153,
          154,
          155,
          156,
          157,
          158,
          159,
          160,
          161,
          162,
          163,
          164,
          165,
          166,
          167,
          168,
          169,
          170,
          171,
          172,
          173,
          174,
          175,
          176,
          177,
          178,
          179,
          180,
          181,
          182,
          183,
          184,
          185,
          186,
          187,
          188,
          189,
          190,
          191,
          192,
          193,
          194,
          195,
          196,
          197,
          198,
          199,
          200,
          201,
          202,
          203,
          204,
          205,
          206,
          207,
          208,
          209,
          210,
          211,
          212,
          213,
          214,
          215,
          216,
          217,
          218,
          219,
          220,
          221,
          222,
          223,
          224,
          225,
          226,
          227,
          228,
          229,
          230,
          231,
          232,
          233,
          234,
          235,
          236,
          237,
          238,
          239,
          240,
          241,
          242,
          243,
          244,
          245,
          246,
          247,
          248,
          249,
          250,
          251,
          252,
          253,
          254,
          255,
          256,
          257,
          258,
          259,
          260,
          261,
          262,
          263,
          264,
          265,
          266,
          267,
          268,
          269,
          270,
          271,
          272,
          273,
          274,
          275,
          276,
          277,
          278,
          279,
          280,
          281,
          282,
          283,
          284,
          285,
          286,
          287,
          288,
          289,
          290,
          291,
          292,
          293,
          294,
          295,
          296,
          297,
          298,
          299,
          300,
          301,
          302,
          303,
          304,
          305,
          306,
          307,
          308,
          309,
          310,
          311,
          312,
          313,
          314,
          315,
          316,
          317,
          318,
          319,
          320,
          321,
          322,
          323,
          324,
          325,
          326,
          327,
          328,
          329,
          330,
          331,
          332,
          333,
          334,
          335,
          336,
          337,
          338,
          339,
          340,
          341,
          342,
          343,
          344,
          345,
          346,
          347,
          348,
          349,
          350,
          351,
          352,
          353,
          354,
          355,
          356,
          357,
          358,
          359,
          360,
          361,
          362,
          363,
          364,
          365,
          366,
          367,
          368,
          369,
          370,
          371,
          372,
          373,
          374,
          375,
          376,
          377,
          378,
          379,
          380,
          381,
          382,
          383,
          384,
          385,
          386,
          387,
          388,
          389,
          390,
          391,
          392,
          393,
          394,
          395,
          396,
          397,
          398,
          399,
          400,
          401,
          402,
          403,
          404,
          405,
          406,
          407,
          408,
          409,
          410
        ],
        "AcquisitionTime": [
          "124110.190000",
          "124111.680000",
          "124113.170000",
          "124114.660000",
          "124116.150000",
          "124117.640000",
          "124119.130000",
          "124120.620000",
          "124122.110000",
          "124123.600000",
          "124125.090000",
          "124126.580000",
          "124128.070000",
          "124129.560000",
          "124131.050000",
          "124132.540000",
          "124134.030000",
          "124135.520000",
          "124137.010000",
          "124138.500000",
          "124139.990000",
          "124141.480000",
          "124142.970000",
          "124144.460000",
          "124145.950000",
          "124147.440000",
          "124148.930000",
          "124150.420000",
          "124151.910000",
          "124153.400000",
          "124154.890000",
          "124156.380000",
          "124157.870000",
          "124159.360000",
          "124200.850000",
          "124202.340000",
          "124203.830000",
          "124205.320000",
          "124206.810000",
          "124208.300000",
          "124209.790000",
          "124211.280000",
          "124212.770000",
          "124214.260000",
          "124215.750000",
          "124217.240000",
          "124218.730000",
          "124220.220000",
          "124221.710000",
          "124223.200000",
          "124224.690000",
          "124226.180000",
          "124227.670000",
          "124229.160000",
          "124230.650000",
          "124232.140000",
          "124233.630000",
          "124235.120000",
          "124236.610000",
          "124238.100000",
          "124239.590000",
          "124241.080000",
          "124242.570000",
          "124244.060000",
          "124245.550000",
          "124247.040000",
          "124248.530000",
          "124250.020000",
          "124251.510000",
          "124253.000000",
          "124254.490000",
          "124255.980000",
          "124257.470000",
          "124258.960000",
          "124300.450000",
          "124301.940000",
          "124303.430000",
          "124304.920000",
          "124306.410000",
          "124307.900000",
          "124309.390000",
          "124310.880000",
          "124312.370000",
          "124313.860000",
          "124315.350000",
          "124316.840000",
          "124318.330000",
          "124319.820000",
          "124321.310000",
          "124322.800000",
          "124324.290000",
          "124325.780000",
          "124327.270000",
          "124328.760000",
          "124330.250000",
          "124331.740000",
          "124333.230000",
          "124334.720000",
          "124336.210000",
          "124337.700000",
          "124339.190000",
          "124340.680000",
          "124342.170000",
          "124343.660000",
          "124345.150000",
          "124346.640000",
          "124348.130000",
          "124349.620000",
          "124351.110000",
          "124352.600000",
          "124354.090000",
          "124355.580000",
          "124357.070000",
          "124358.560000",
          "124400.050000",
          "124401.540000",
          "124403.030000",
          "124404.520000",
          "124406.010000",
          "124407.500000",
          "124408.990000",
          "124410.480000",
          "124411.970000",
          "124413.460000",
          "124414.950000",
          "124416.440000",
          "124417.930000",
          "124419.420000",
          "124420.910000",
          "124422.400000",
          "124423.890000",
          "124425.380000",
          "124426.870000",
          "124428.360000",
          "124429.850000",
          "124431.340000",
          "124432.830000",
          "124434.320000",
          "124435.810000",
          "124437.300000",
          "124438.790000",
          "124440.280000",
          "124441.770000",
          "124443.260000",
          "124444.750000",
          "124446.240000",
          "124447.730000",
          "124449.220000",
          "124450.710000",
          "124452.200000",
          "124453.690000",
          "124455.180000",
          "124456.670000",
          "124458.160000",
          "124459.650000",
          "124501.140000",
          "124502.630000",
          "124504.120000",
          "124505.610000",
          "124507.100000",
          "124508.590000",
          "124510.080000",
          "124511.570000",
          "124513.060000",
          "124514.550000",
          "124516.040000",
          "124517.530000",
          "124519.020000",
          "124520.510000",
          "124522.000000",
          "124523.490000",
          "124524.980000",
          "124526.470000",
          "124527.960000",
          "124529.450000",
          "124530.940000",
          "124532.430000",
          "124533.920000",
          "124535.410000",
          "124536.900000",
          "124538.390000",
          "124539.880000",
          "124541.370000",
          "124542.860000",
          "124544.350000",
          "124545.840000",
          "124547.330000",
          "124548.820000",
          "124550.310000",
          "124551.800000",
          "124553.290000",
          "124554.780000",
          "124556.270000",
          "124557.760000",
          "124559.250000",
          "124600.740000",
          "124602.230000",
          "124603.720000",
          "124605.210000",
          "124606.700000",
          "124608.190000",
          "124609.680000",
          "124611.170000",
          "124612.660000",
          "124614.150000",
          "124615.640000",
          "124617.130000",
          "124618.620000",
          "124620.110000",
          "124621.600000",
          "124623.090000",
          "124624.580000",
          "124626.070000",
          "124627.560000",
          "124629.050000",
          "124630.540000",
          "124632.030000",
          "124633.520000",
          "124635.010000",
          "124636.500000",
          "124637.990000",
          "124639.480000",
          "124640.970000",
          "124642.460000",
          "124643.950000",
          "124645.440000",
          "124646.930000",
          "124648.420000",
          "124649.910000",
          "124651.400000",
          "124652.890000",
          "124654.380000",
          "124655.870000",
          "124657.360000",
          "124658.850000",
          "124700.340000",
          "124701.830000",
          "124703.320000",
          "124704.810000",
          "124706.300000",
          "124707.790000",
          "124709.280000",
          "124710.770000",
          "124712.260000",
          "124713.750000",
          "124715.240000",
          "124716.730000",
          "124718.220000",
          "124719.710000",
          "124721.200000",
          "124722.690000",
          "124724.180000",
          "124725.670000",
          "124727.160000",
          "124728.650000",
          "124730.140000",
          "124731.630000",
          "124733.120000",
          "124734.610000",
          "124736.100000",
          "124737.590000",
          "124739.080000",
          "124740.570000",
          "124742.060000",
          "124743.550000",
          "124745.040000",
          "124746.530000",
          "124748.020000",
          "124749.510000",
          "124751.000000",
          "124752.490000",
          "124753.980000",
          "124755.470000",
          "124756.960000",
          "124758.450000",
          "124759.940000",
          "124801.430000",
          "124802.920000",
          "124804.410000",
          "124805.900000",
          "124807.390000",
          "124808.880000",
          "124810.370000",
          "124811.860000",
          "124813.350000",
          "124814.840000",
          "124816.330000",
          "124817.820000",
          "124819.310000",
          "124820.800000",
          "124822.290000",
          "124823.780000",
          "124825.270000",
          "124826.760000",
          "124828.250000",
          "124829.740000",
          "124831.230000",
          "124832.720000",
          "124834.210000",
          "124835.700000",
          "124837.190000",
          "124838.680000",
          "124840.170000",
          "124841.660000",
          "124843.150000",
          "124844.640000",
          "124846.130000",
          "124847.620000",
          "124849.110000",
          "124850.600000",
          "124852.090000",
          "124853.580000",
          "124855.070000",
          "124856.560000",
          "124858.050000",
          "124859.540000",
          "124901.030000",
          "124902.520000",
          "124904.010000",
          "124905.500000",
          "124906.990000",
          "124908.480000",
          "124909.970000",
          "124911.460000",
          "124912.950000",
          "124914.440000",
          "124915.930000",
          "124917.420000",
          "124918.910000",
          "124920.400000",
          "124921.890000",
          "124923.380000",
          "124924.870000",
          "124926.360000",
          "124927.850000",
          "124929.340000",
          "124930.830000",
          "124932.320000",
          "124933.810000",
          "124935.300000",
          "124936.790000",
          "124938.280000",
          "124939.770000",
          "124941.260000",
          "124942.750000",
          "124944.240000",
          "124945.730000",
          "124947.220000",
          "124948.710000",
          "124950.200000",
          "124951.690000",
          "124953.180000",
          "124954.670000",
          "124956.160000",
          "124957.650000",
          "124959.140000",
          "125000.630000",
          "125002.120000",
          "125003.610000",
          "125005.100000",
          "125006.590000",
          "125008.080000",
          "125009.570000",
          "125011.060000",
          "125012.550000",
          "125014.040000",
          "125015.530000",
          "125017.020000",
          "125018.510000",
          "125020.000000",
          "125021.490000",
          "125022.980000",
          "125024.470000",
          "125025.960000",
          "125027.450000",
          "125028.940000",
          "125030.430000",
          "125031.920000",
          "125033.410000",
          "125034.900000",
          "125036.390000",
          "125037.880000",
          "125039.370000",
          "125040.860000",
          "125042.350000",
          "125043.840000",
          "125045.330000",
          "125046.820000",
          "125048.310000",
          "125049.800000",
          "125051.290000",
          "125052.780000",
          "125054.270000",
          "125055.760000",
          "125057.250000",
          "125058.740000",
          "125100.230000",
          "125101.720000",
          "125103.210000",
          "125104.700000",
          "125106.190000",
          "125107.680000",
          "125109.170000",
          "125110.660000",
          "125112.150000",
          "125113.640000",
          "125115.130000",
          "125116.620000",
          "125118.110000",
          "125119.600000"
        ],
        "ContentTime": [
          "124221.353000",
          "124221.361000",
          "124221.364000",
          "124221.367000",
          "124221.369000",
          "124221.372000",
          "124221.375000",
          "124221.378000",
          "124221.381000",
          "124221.384000",
          "124221.392000",
          "124221.404000",
          "124221.407000",
          "124221.412000",
          "124221.415000",
          "124221.418000",
          "124221.421000",
          "124221.424000",
          "124241.313000",
          "124241.316000",
          "124241.319000",
          "124241.322000",
          "124241.325000",
          "124241.328000",
          "124241.331000",
          "124241.334000",
          "124241.337000",
          "124241.345000",
          "124241.347000",
          "124241.350000",
          "124241.353000",
          "124241.356000",
          "124241.359000",
          "124241.362000",
          "124241.365000",
          "124241.367000",
          "124241.370000",
          "124241.373000",
          "124301.312000",
          "124301.315000",
          "124301.318000",
          "124301.320000",
          "124301.323000",
          "124301.326000",
          "124301.329000",
          "124301.332000",
          "124301.335000",
          "124301.344000",
          "124301.347000",
          "124301.350000",
          "124301.353000",
          "124301.356000",
          "124301.359000",
          "124301.361000",
          "124301.364000",
          "124301.367000",
          "124301.370000",
          "124301.373000",
          "124321.312000",
          "124321.315000",
          "124321.318000",
          "124321.321000",
          "124321.324000",
          "124321.327000",
          "124321.330000",
          "124321.333000",
          "124321.336000",
          "124321.338000",
          "124321.341000",
          "124321.344000",
          "124321.347000",
          "124321.350000",
          "124321.353000",
          "124321.355000",
          "124321.358000",
          "124321.361000",
          "124321.364000",
          "124321.367000",
          "124341.312000",
          "124341.315000",
          "124341.318000",
          "124341.320000",
          "124341.323000",
          "124341.326000",
          "124341.329000",
          "124341.332000",
          "124341.335000",
          "124341.338000",
          "124341.341000",
          "124341.343000",
          "124341.346000",
          "124341.349000",
          "124341.352000",
          "124341.356000",
          "124341.359000",
          "124341.362000",
          "124341.365000",
          "124341.368000",
          "124421.313000",
          "124421.316000",
          "124421.319000",
          "124421.322000",
          "124421.325000",
          "124421.327000",
          "124421.330000",
          "124421.333000",
          "124421.336000",
          "124421.339000",
          "124421.342000",
          "124421.345000",
          "124421.348000",
          "124421.351000",
          "124421.354000",
          "124421.357000",
          "124421.360000",
          "124421.362000",
          "124421.365000",
          "124421.378000",
          "124421.381000",
          "124421.384000",
          "124421.387000",
          "124421.390000",
          "124421.392000",
          "124421.395000",
          "124421.398000",
          "124421.401000",
          "124421.404000",
          "124501.313000",
          "124501.316000",
          "124501.319000",
          "124501.322000",
          "124501.325000",
          "124501.327000",
          "124501.330000",
          "124501.333000",
          "124501.336000",
          "124501.339000",
          "124501.342000",
          "124501.345000",
          "124501.348000",
          "124501.350000",
          "124501.353000",
          "124501.356000",
          "124501.359000",
          "124501.362000",
          "124501.365000",
          "124501.368000",
          "124501.370000",
          "124501.373000",
          "124501.376000",
          "124501.379000",
          "124501.382000",
          "124501.385000",
          "124501.398000",
          "124541.312000",
          "124541.315000",
          "124541.318000",
          "124541.321000",
          "124541.324000",
          "124541.327000",
          "124541.329000",
          "124541.332000",
          "124541.335000",
          "124541.338000",
          "124541.341000",
          "124541.344000",
          "124541.347000",
          "124541.349000",
          "124541.352000",
          "124541.355000",
          "124541.358000",
          "124541.361000",
          "124541.364000",
          "124541.367000",
          "124541.369000",
          "124541.382000",
          "124541.385000",
          "124541.388000",
          "124541.391000",
          "124541.394000",
          "124541.397000",
          "124621.313000",
          "124621.316000",
          "124621.319000",
          "124621.322000",
          "124621.325000",
          "124621.327000",
          "124621.330000",
          "124621.333000",
          "124621.336000",
          "124621.339000",
          "124621.342000",
          "124621.345000",
          "124621.347000",
          "124621.350000",
          "124621.353000",
          "124621.356000",
          "124621.359000",
          "124621.362000",
          "124621.365000",
          "124621.368000",
          "124621.371000",
          "124621.374000",
          "124621.377000",
          "124621.380000",
          "124621.383000",
          "124621.386000",
          "124621.388000",
          "124701.325000",
          "124701.328000",
          "124701.331000",
          "124701.334000",
          "124701.336000",
          "124701.339000",
          "124701.342000",
          "124701.345000",
