{
  "aor": 0.00031278606965174136,
  "aqi": 0.006666809004975125,
  "bids_meta": {
    "AcquisitionMatrixPE": 104,
    "AcquisitionNumber": 1,
    "AcquisitionTime": "10:59:5.387500",
    "BandwidthPerPixelPhaseEncode": 17.17,
    "BaseResolution": 104,
    "BodyPartExamined": "BRAIN",
    "CogAtlasID": "trm_4c898da401420",
    "ConsistencyInfo": "N4_VE11C_LATEST_20160120",
    "ConversionSoftware": "dcm2niix",
    "ConversionSoftwareVersion": "v1.0.20171215 (OpenJPEG build) GCC7.3.0",
    "DerivedVendorReportedEchoSpacing": 0.000560011,
    "DeviceSerialNumber": "167006",
    "DwellTime": 2.1e-06,
    "EchoTime": 0.037,
    "EchoTrainLength": 104,
    "EffectiveEchoSpacing": 0.000560011,
    "FlipAngle": 52,
    "ImageComments": "Unaliased_MB4_PE3_LB",
    "ImageOrientationPatientDICOM": [
      0.99692,
      0.0758354,
      0.0199872,
      -0.0684876,
      0.966017,
      -0.249239
    ],
    "ImageType": [
      "ORIGINAL",
      "PRIMARY",
      "M",
      "MB",
      "ND",
      "MOSAIC"
    ],
    "InPlanePhaseEncodingDirectionDICOM": "COL",
    "InstitutionAddress": "Chemin_Queen-Mary_4565_Montreal_District_CA_H3W_1W5",
    "InstitutionName": "IUGM",
    "InstitutionalDepartmentName": "Department",
    "MRAcquisitionType": "2D",
    "MagneticFieldStrength": 3,
    "Manufacturer": "Siemens",
    "ManufacturersModelName": "Prisma_fit",
    "Modality": "MR",
    "MultibandAccelerationFactor": 4,
    "PartialFourier": 1,
    "PatientPosition": "HFS",
    "PercentPhaseFOV": 100,
    "PhaseEncodingDirection": "j-",
    "PhaseEncodingSteps": 104,
    "PhaseResolution": 1,
    "PixelBandwidth": 2290,
    "ProcedureStepDescription": "video5_generic",
    "ProtocolName": "func_task-bourne6",
    "PulseSequenceDetails": "%CustomerSeq%_cmrr_mbep2d_bold",
    "ReceiveCoilActiveElements": "HC1-7;NC1,2",
    "ReceiveCoilName": "HeadNeck_64",
    "ReconMatrixPE": 104,
    "RepetitionTime": 1.49,
    "SAR": 0.0396449,
    "ScanOptions": "FS",
    "ScanningSequence": "EP",
    "SequenceName": "epfid2d1_104",
    "SequenceVariant": "SK_SS",
    "SeriesDescription": "func_task-bourne6",
    "SeriesNumber": 7,
    "ShimSetting": [
      632,
      -7187,
      -8830,
      682,
      104,
      58,
      -5,
      -7
    ],
    "SliceThickness": 2,
    "SliceTiming": [
      0,
      0.785,
      0.0975,
      0.8825,
      0.195,
      0.98,
      0.295,
      1.0775,
      0.3925,
      1.175,
      0.49,
      1.275,
      0.5875,
      1.3725,
      0.685,
      0,
      0.785,
      0.0975,
      0.8825,
      0.195,
      0.98,
      0.295,
      1.0775,
      0.3925,
      1.175,
      0.49,
      1.275,
      0.5875,
      1.3725,
      0.685,
      0,
      0.785,
      0.0975,
      0.8825,
      0.195,
      0.98,
      0.295,
      1.0775,
      0.3925,
      1.175,
      0.49,
      1.275,
      0.5875,
      1.3725,
      0.685,
      0,
      0.785,
      0.0975,
      0.8825,
      0.195,
      0.98,
      0.295,
      1.0775,
      0.3925,
      1.175,
      0.49,
      1.275,
      0.5875,
      1.3725,
      0.685
    ],
    "SoftwareVersions": "syngo_MR_E11",
    "SpacingBetweenSlices": 2,
    "StationName": "MRC35049",
    "TaskName": "bourne06",
    "TotalReadoutTime": 0.0576811,
    "TxRefAmp": 253.419,
    "dataset": "<unset>",
    "dcmmeta_affine": [
      [
        -1.993839979171753,
        -0.1369752734899521,
        0.07641826570034027,
        110.66004943847656
      ],
      [
        -0.15167076885700226,
        1.9320343732833862,
        -0.49420562386512756,
        -55.538909912109375
      ],
      [
        0.039974380284547806,
        0.49847865104675293,
        1.9364713430404663,
        -58.793148040771484
      ],
      [
        0.0,
        0.0,
        0.0,
        1.0
      ]
    ],
    "dcmmeta_reorient_transform": [
      [
        0.0,
        -1.0,
        0.0,
        103.0
      ],
      [
        1.0,
        0.0,
        0.0,
        0.0
      ],
      [
        0.0,
        0.0,
        1.0,
        0.0
      ],
      [
        0.0,
        0.0,
        0.0,
        1.0
      ]
    ],
    "dcmmeta_shape": [
      104,
      104,
      60,
      405
    ],
    "dcmmeta_slice_dim": 2,
    "dcmmeta_version": 0.6,
    "global": {
      "const": {
        "AcquisitionMatrix": [
          104,
          0,
          0,
          104
        ],
        "AngioFlag": "N",
        "BitsAllocated": 16,
        "BitsStored": 16,
        "BodyPartExamined": "BRAIN",
        "Columns": 832,
        "EchoNumbers": 1,
        "EchoTime": 37.0,
        "EchoTrainLength": 104,
        "FlipAngle": 52.0,
        "HighBit": 15,
        "ImageOrientationPatient": [
          0.99692001003746,
          0.07583538613531,
          0.01998719081378,
          -0.0684876334178,
          0.96601718469173,
          -0.2492393286564
        ],
        "ImagePositionPatient": [
          -772.45036798236,
          -901.92930249011,
          159.44570829626
        ],
        "ImageType": [
          "ORIGINAL",
          "PRIMARY",
          "M",
          "MB",
          "ND",
          "MOSAIC"
        ],
        "ImagedNucleus": "1H",
        "ImagingFrequency": 123.257991,
        "InPlanePhaseEncodingDirection": "COL",
        "MRAcquisitionType": "2D",
        "MagneticFieldStrength": 3.0,
        "Manufacturer": "SIEMENS",
        "ManufacturerModelName": "Prisma_fit",
        "Modality": "MR",
        "NumberOfAverages": 1.0,
        "NumberOfPhaseEncodingSteps": 104,
        "PercentPhaseFieldOfView": 100.0,
        "PercentSampling": 100.0,
        "PerformedProcedureStepStartTime": "105555.986000",
        "PhotometricInterpretation": "MONOCHROME2",
        "PixelBandwidth": 2290.0,
        "PixelRepresentation": 0,
        "PixelSpacing": [
          2.0,
          2.0
        ],
        "ProtocolName": "func_task-bourne6",
        "RepetitionTime": 1490.0,
        "Rows": 832,
        "SAR": 0.03964491389208,
        "SamplesPerPixel": 1,
        "ScanOptions": "FS",
        "ScanningSequence": "EP",
        "SequenceName": "epfid2d1_104",
        "SequenceVariant": [
          "SK",
          "SS"
        ],
        "SeriesDescription": "func_task-bourne6",
        "SeriesNumber": 7,
        "SeriesTime": "110031.490000",
        "SliceLocation": -38.97357924626,
        "SliceThickness": 2.0,
        "SmallestImagePixelValue": 0,
        "SoftwareVersions": "syngo MR E11",
        "SpacingBetweenSlices": 2.0000000579249,
        "SpecificCharacterSet": "ISO_IR 100",
        "StudyID": "1",
        "StudyTime": "105555.902000",
        "TransmitCoilName": "Body",
        "VariableFlipAngleFlag": "N",
        "WindowCenterWidthExplanation": "Algo1",
        "dBdt": 0.0
      },
      "slices": {}
    },
    "modality": "bold",
    "session_id": "002",
    "subject_id": "01",
    "task_id": "bourne06",
    "time": {
      "samples": {
        "AcquisitionNumber": [
          1,
          2,
          3,
          4,
          5,
          6,
          7,
          8,
          9,
          10,
          11,
          12,
          13,
          14,
          15,
          16,
          17,
          18,
          19,
          20,
          21,
          22,
          23,
          24,
          25,
          26,
          27,
          28,
          29,
          30,
          31,
          32,
          33,
          34,
          35,
          36,
          37,
          38,
          39,
          40,
          41,
          42,
          43,
          44,
          45,
          46,
          47,
          48,
          49,
          50,
          51,
          52,
          53,
          54,
          55,
          56,
          57,
          58,
          59,
          60,
          61,
          62,
          63,
          64,
          65,
          66,
          67,
          68,
          69,
          70,
          71,
          72,
          73,
          74,
          75,
          76,
          77,
          78,
          79,
          80,
          81,
          82,
          83,
          84,
          85,
          86,
          87,
          88,
          89,
          90,
          91,
          92,
          93,
          94,
          95,
          96,
          97,
          98,
          99,
          100,
          101,
          102,
          103,
          104,
          105,
          106,
          107,
          108,
          109,
          110,
          111,
          112,
          113,
          114,
          115,
          116,
          117,
          118,
          119,
          120,
          121,
          122,
          123,
          124,
          125,
          126,
          127,
          128,
          129,
          130,
          131,
          132,
          133,
          134,
          135,
          136,
          137,
          138,
          139,
          140,
          141,
          142,
          143,
          144,
          145,
          146,
          147,
          148,
          149,
          150,
          151,
          152,
          153,
          154,
          155,
          156,
          157,
          158,
          159,
          160,
          161,
          162,
          163,
          164,
          165,
          166,
          167,
          168,
          169,
          170,
          171,
          172,
          173,
          174,
          175,
          176,
          177,
          178,
          179,
          180,
          181,
          182,
          183,
          184,
          185,
          186,
          187,
          188,
          189,
          190,
          191,
          192,
          193,
          194,
          195,
          196,
          197,
          198,
          199,
          200,
          201,
          202,
          203,
          204,
          205,
          206,
          207,
          208,
          209,
          210,
          211,
          212,
          213,
          214,
          215,
          216,
          217,
          218,
          219,
          220,
          221,
          222,
          223,
          224,
          225,
          226,
          227,
          228,
          229,
          230,
          231,
          232,
          233,
          234,
          235,
          236,
          237,
          238,
          239,
          240,
          241,
          242,
          243,
          244,
          245,
          246,
          247,
          248,
          249,
          250,
          251,
          252,
          253,
          254,
          255,
          256,
          257,
          258,
          259,
          260,
          261,
          262,
          263,
          264,
          265,
          266,
          267,
          268,
          269,
          270,
          271,
          272,
          273,
          274,
          275,
          276,
          277,
          278,
          279,
          280,
          281,
          282,
          283,
          284,
          285,
          286,
          287,
          288,
          289,
          290,
          291,
          292,
          293,
          294,
          295,
          296,
          297,
          298,
          299,
          300,
          301,
          302,
          303,
          304,
          305,
          306,
          307,
          308,
          309,
          310,
          311,
          312,
          313,
          314,
          315,
          316,
          317,
          318,
          319,
          320,
          321,
          322,
          323,
          324,
          325,
          326,
          327,
          328,
          329,
          330,
          331,
          332,
          333,
          334,
          335,
          336,
          337,
          338,
          339,
          340,
          341,
          342,
          343,
          344,
          345,
          346,
          347,
          348,
          349,
          350,
          351,
          352,
          353,
          354,
          355,
          356,
          357,
          358,
          359,
          360,
          361,
          362,
          363,
          364,
          365,
          366,
          367,
          368,
          369,
          370,
          371,
          372,
          373,
          374,
          375,
          376,
          377,
          378,
          379,
          380,
          381,
          382,
          383,
          384,
          385,
          386,
          387,
          388,
          389,
          390,
          391,
          392,
          393,
          394,
          395,
          396,
          397,
          398,
          399,
          400,
          401,
          402,
          403,
          404,
          405
        ],
        "AcquisitionTime": [
          "105905.387500",
          "105906.877500",
          "105908.367500",
          "105909.857500",
          "105911.347500",
          "105912.837500",
          "105914.327500",
          "105915.817500",
          "105917.307500",
          "105918.797500",
          "105920.287500",
          "105921.777500",
          "105923.267500",
          "105924.757500",
          "105926.247500",
          "105927.737500",
          "105929.227500",
          "105930.717500",
          "105932.207500",
          "105933.697500",
          "105935.187500",
          "105936.677500",
          "105938.167500",
          "105939.657500",
          "105941.147500",
          "105942.637500",
          "105944.127500",
          "105945.617500",
          "105947.107500",
          "105948.597500",
          "105950.087500",
          "105951.577500",
          "105953.067500",
          "105954.557500",
          "105956.047500",
          "105957.537500",
          "105959.027500",
          "110000.517500",
          "110002.007500",
          "110003.497500",
          "110004.987500",
          "110006.477500",
          "110007.967500",
          "110009.457500",
          "110010.947500",
          "110012.437500",
          "110013.927500",
          "110015.417500",
          "110016.907500",
          "110018.397500",
          "110019.887500",
          "110021.377500",
          "110022.867500",
          "110024.357500",
          "110025.847500",
          "110027.337500",
          "110028.827500",
          "110030.317500",
          "110031.807500",
          "110033.297500",
          "110034.787500",
          "110036.277500",
          "110037.767500",
          "110039.257500",
          "110040.747500",
          "110042.237500",
          "110043.727500",
          "110045.217500",
          "110046.707500",
          "110048.197500",
          "110049.687500",
          "110051.177500",
          "110052.667500",
          "110054.157500",
          "110055.647500",
          "110057.137500",
          "110058.627500",
          "110100.117500",
          "110101.607500",
          "110103.097500",
          "110104.587500",
          "110106.077500",
          "110107.567500",
          "110109.057500",
          "110110.547500",
          "110112.037500",
          "110113.527500",
          "110115.017500",
          "110116.507500",
          "110117.997500",
          "110119.487500",
          "110120.977500",
          "110122.467500",
          "110123.957500",
          "110125.447500",
          "110126.937500",
          "110128.427500",
          "110129.917500",
          "110131.407500",
          "110132.897500",
          "110134.387500",
          "110135.877500",
          "110137.367500",
          "110138.857500",
          "110140.347500",
          "110141.837500",
          "110143.327500",
          "110144.817500",
          "110146.307500",
          "110147.797500",
          "110149.287500",
          "110150.777500",
          "110152.267500",
          "110153.757500",
          "110155.247500",
          "110156.737500",
          "110158.227500",
          "110159.717500",
          "110201.207500",
          "110202.697500",
          "110204.187500",
          "110205.677500",
          "110207.167500",
          "110208.657500",
          "110210.147500",
          "110211.637500",
          "110213.127500",
          "110214.617500",
          "110216.107500",
          "110217.597500",
          "110219.087500",
          "110220.577500",
          "110222.067500",
          "110223.557500",
          "110225.047500",
          "110226.537500",
          "110228.027500",
          "110229.517500",
          "110231.007500",
          "110232.497500",
          "110233.987500",
          "110235.477500",
          "110236.967500",
          "110238.457500",
          "110239.947500",
          "110241.437500",
          "110242.927500",
          "110244.417500",
          "110245.907500",
          "110247.397500",
          "110248.887500",
          "110250.377500",
          "110251.867500",
          "110253.357500",
          "110254.847500",
          "110256.337500",
          "110257.827500",
          "110259.317500",
          "110300.807500",
          "110302.297500",
          "110303.787500",
          "110305.277500",
          "110306.767500",
          "110308.257500",
          "110309.747500",
          "110311.237500",
          "110312.727500",
          "110314.217500",
          "110315.707500",
          "110317.197500",
          "110318.687500",
          "110320.177500",
          "110321.667500",
          "110323.157500",
          "110324.647500",
          "110326.137500",
          "110327.627500",
          "110329.117500",
          "110330.607500",
          "110332.097500",
          "110333.587500",
          "110335.077500",
          "110336.567500",
          "110338.057500",
          "110339.547500",
          "110341.037500",
          "110342.527500",
          "110344.017500",
          "110345.507500",
          "110346.997500",
          "110348.487500",
          "110349.977500",
          "110351.467500",
          "110352.957500",
          "110354.447500",
          "110355.937500",
          "110357.427500",
          "110358.917500",
          "110400.407500",
          "110401.897500",
          "110403.387500",
          "110404.877500",
          "110406.367500",
          "110407.857500",
          "110409.347500",
          "110410.837500",
          "110412.327500",
          "110413.817500",
          "110415.307500",
          "110416.797500",
          "110418.287500",
          "110419.777500",
          "110421.267500",
          "110422.757500",
          "110424.247500",
          "110425.737500",
          "110427.227500",
          "110428.717500",
          "110430.207500",
          "110431.697500",
          "110433.187500",
          "110434.677500",
          "110436.167500",
          "110437.657500",
          "110439.147500",
          "110440.637500",
          "110442.127500",
          "110443.617500",
          "110445.107500",
          "110446.597500",
          "110448.087500",
          "110449.577500",
          "110451.067500",
          "110452.557500",
          "110454.047500",
          "110455.537500",
          "110457.027500",
          "110458.517500",
          "110500.007500",
          "110501.497500",
          "110502.987500",
          "110504.477500",
          "110505.967500",
          "110507.457500",
          "110508.947500",
          "110510.437500",
          "110511.927500",
          "110513.417500",
          "110514.907500",
          "110516.397500",
          "110517.887500",
          "110519.377500",
          "110520.867500",
          "110522.357500",
          "110523.847500",
          "110525.337500",
          "110526.827500",
          "110528.317500",
          "110529.807500",
          "110531.297500",
          "110532.787500",
          "110534.277500",
          "110535.767500",
          "110537.257500",
          "110538.747500",
          "110540.237500",
          "110541.727500",
          "110543.217500",
          "110544.707500",
          "110546.197500",
          "110547.687500",
          "110549.177500",
          "110550.667500",
          "110552.157500",
          "110553.647500",
          "110555.137500",
          "110556.627500",
          "110558.117500",
          "110559.607500",
          "110601.097500",
          "110602.587500",
          "110604.077500",
          "110605.567500",
          "110607.057500",
          "110608.547500",
          "110610.037500",
          "110611.527500",
          "110613.017500",
          "110614.507500",
          "110615.997500",
          "110617.487500",
          "110618.977500",
          "110620.467500",
          "110621.957500",
          "110623.447500",
          "110624.937500",
          "110626.427500",
          "110627.917500",
          "110629.407500",
          "110630.897500",
          "110632.387500",
          "110633.877500",
          "110635.367500",
          "110636.857500",
          "110638.347500",
          "110639.837500",
          "110641.327500",
          "110642.817500",
          "110644.307500",
          "110645.797500",
          "110647.287500",
          "110648.777500",
          "110650.267500",
          "110651.757500",
          "110653.247500",
          "110654.737500",
          "110656.227500",
          "110657.717500",
          "110659.207500",
          "110700.697500",
          "110702.187500",
          "110703.677500",
          "110705.167500",
          "110706.657500",
          "110708.147500",
          "110709.637500",
          "110711.127500",
          "110712.617500",
          "110714.107500",
          "110715.597500",
          "110717.087500",
          "110718.577500",
          "110720.067500",
          "110721.557500",
          "110723.047500",
          "110724.537500",
          "110726.027500",
          "110727.517500",
          "110729.007500",
          "110730.497500",
          "110731.987500",
          "110733.477500",
          "110734.967500",
          "110736.457500",
          "110737.947500",
          "110739.437500",
          "110740.927500",
          "110742.417500",
          "110743.907500",
          "110745.397500",
          "110746.887500",
          "110748.377500",
          "110749.867500",
          "110751.357500",
          "110752.847500",
          "110754.337500",
          "110755.827500",
          "110757.317500",
          "110758.807500",
          "110800.297500",
          "110801.787500",
          "110803.277500",
          "110804.767500",
          "110806.257500",
          "110807.747500",
          "110809.237500",
          "110810.727500",
          "110812.217500",
          "110813.707500",
          "110815.197500",
          "110816.687500",
          "110818.177500",
          "110819.667500",
          "110821.157500",
          "110822.647500",
          "110824.137500",
          "110825.627500",
          "110827.117500",
          "110828.607500",
          "110830.097500",
          "110831.587500",
          "110833.077500",
          "110834.567500",
          "110836.057500",
          "110837.547500",
          "110839.037500",
          "110840.527500",
          "110842.017500",
          "110843.507500",
          "110844.997500",
          "110846.487500",
          "110847.977500",
          "110849.467500",
          "110850.957500",
          "110852.447500",
          "110853.937500",
          "110855.427500",
          "110856.917500",
          "110858.407500",
          "110859.897500",
          "110901.387500",
          "110902.877500",
          "110904.367500",
          "110905.857500",
          "110907.347500"
        ],
        "ContentTime": [
          "110031.493000",
          "110031.496000",
          "110031.499000",
          "110031.502000",
          "110031.505000",
          "110031.508000",
          "110031.511000",
          "110031.514000",
          "110031.516000",
          "110031.519000",
          "110031.522000",
          "110031.525000",
          "110031.528000",
          "110031.531000",
          "110031.534000",
          "110031.537000",
          "110031.540000",
          "110031.543000",
          "110031.546000",
          "110031.549000",
          "110031.552000",
          "110031.555000",
          "110031.558000",
          "110031.569000",
          "110031.572000",
          "110031.575000",
          "110031.578000",
          "110031.580000",
          "110031.583000",
          "110031.586000",
          "110031.589000",
          "110051.454000",
          "110051.457000",
          "110051.460000",
          "110051.463000",
          "110051.466000",
          "110051.469000",
          "110051.472000",
          "110051.475000",
          "110051.478000",
          "110051.481000",
          "110051.484000",
          "110051.486000",
          "110051.489000",
          "110051.492000",
          "110051.495000",
          "110051.498000",
          "110051.501000",
          "110051.504000",
          "110051.507000",
          "110051.510000",
          "110111.454000",
          "110111.457000",
          "110111.460000",
          "110111.463000",
          "110111.466000",
          "110111.469000",
          "110111.472000",
          "110111.475000",
          "110111.478000",
          "110111.480000",
          "110111.483000",
          "110111.486000",
          "110111.489000",
          "110111.492000",
          "110111.495000",
          "110111.498000",
          "110111.501000",
          "110111.504000",
          "110111.507000",
          "110111.510000",
          "110131.455000",
          "110131.458000",
          "110131.461000",
          "110131.464000",
          "110131.467000",
          "110131.470000",
          "110131.473000",
          "110131.476000",
          "110131.479000",
          "110131.481000",
          "110131.484000",
          "110131.487000",
          "110131.490000",
          "110131.493000",
          "110131.496000",
          "110131.499000",
          "110131.502000",
          "110131.505000",
          "110131.508000",
          "110131.511000",
          "110151.455000",
          "110151.458000",
          "110151.461000",
          "110151.464000",
          "110151.467000",
          "110151.470000",
          "110151.473000",
          "110151.476000",
          "110151.479000",
          "110151.481000",
          "110151.484000",
          "110151.487000",
          "110151.496000",
          "110151.499000",
          "110151.502000",
          "110151.505000",
          "110151.508000",
          "110151.511000",
          "110151.514000",
          "110151.517000",
          "110231.455000",
          "110231.458000",
          "110231.461000",
          "110231.464000",
          "110231.467000",
          "110231.470000",
          "110231.473000",
          "110231.476000",
          "110231.479000",
          "110231.482000",
          "110231.485000",
          "110231.488000",
          "110231.490000",
          "110231.493000",
          "110231.496000",
          "110231.499000",
          "110231.502000",
          "110231.505000",
          "110231.508000",
          "110231.511000",
          "110231.514000",
          "110231.517000",
          "110231.520000",
          "110231.523000",
          "110231.526000",
          "110231.529000",
          "110231.532000",
          "110311.454000",
          "110311.457000",
          "110311.460000",
          "110311.463000",
          "110311.466000",
          "110311.469000",
          "110311.472000",
          "110311.475000",
          "110311.491000",
          "110311.494000",
          "110311.497000",
          "110311.500000",
          "110311.503000",
          "110311.506000",
          "110311.509000",
          "110311.512000",
          "110311.515000",
          "110311.518000",
          "110311.520000",
          "110311.523000",
          "110311.526000",
          "110311.529000",
          "110311.532000",
          "110311.535000",
          "110311.538000",
          "110311.541000",
          "110351.455000",
          "110351.458000",
          "110351.461000",
          "110351.464000",
          "110351.467000",
          "110351.470000",
          "110351.473000",
          "110351.476000",
          "110351.479000",
          "110351.482000",
          "110351.485000",
          "110351.488000",
          "110351.491000",
          "110351.493000",
          "110351.496000",
          "110351.499000",
          "110351.502000",
          "110351.505000",
          "110351.508000",
          "110351.511000",
          "110351.514000",
          "110351.517000",
          "110351.520000",
          "110351.523000",
          "110351.526000",
          "110351.529000",
          "110351.532000",
          "110431.455000",
          "110431.458000",
          "110431.461000",
          "110431.464000",
          "110431.467000",
          "110431.470000",
          "110431.473000",
          "110431.476000",
          "110431.479000",
          "110431.482000",
          "110431.485000",
          "110431.488000",
          "110431.491000",
          "110431.493000",
          "110431.496000",
          "110431.499000",
          "110431.502000",
          "110431.511000",
          "110431.514000",
          "110431.517000",
          "110431.520000",
          "110431.523000",
          "110431.526000",
          "110431.529000",
          "110431.532000",
          "110431.535000",
          "110431.538000",
          "110511.455000",
          "110511.458000",
          "110511.461000",
          "110511.464000",
          "110511.467000",
          "110511.470000",
          "110511.473000",
