{
  "aor": 0.000550567901234568,
  "aqi": 0.005848105037037036,
  "bids_meta": {
    "AcquisitionMatrixPE": 104,
    "AcquisitionNumber": 1,
    "AcquisitionTime": "11:20:7.247500",
    "BandwidthPerPixelPhaseEncode": 17.17,
    "BaseResolution": 104,
    "BodyPartExamined": "BRAIN",
    "CogAtlasID": "trm_4c898da401420",
    "ConsistencyInfo": "N4_VE11C_LATEST_20160120",
    "ConversionSoftware": "dcm2niix",
    "ConversionSoftwareVersion": "v1.0.20171215 (OpenJPEG build) GCC7.3.0",
    "DerivedVendorReportedEchoSpacing": 0.000560011,
    "DeviceSerialNumber": "167006",
    "DwellTime": 2.1e-06,
    "EchoTime": 0.037,
    "EchoTrainLength": 104,
    "EffectiveEchoSpacing": 0.000560011,
    "FlipAngle": 52,
    "ImageComments": "Unaliased_MB4_PE3_LB",
    "ImageOrientationPatientDICOM": [
      0.99692,
      0.0758354,
      0.0199872,
      -0.0684876,
      0.966017,
      -0.249239
    ],
    "ImageType": [
      "ORIGINAL",
      "PRIMARY",
      "M",
      "MB",
      "ND",
      "MOSAIC"
    ],
    "InPlanePhaseEncodingDirectionDICOM": "COL",
    "InstitutionAddress": "Chemin_Queen-Mary_4565_Montreal_District_CA_H3W_1W5",
    "InstitutionName": "IUGM",
    "InstitutionalDepartmentName": "Department",
    "MRAcquisitionType": "2D",
    "MagneticFieldStrength": 3,
    "Manufacturer": "Siemens",
    "ManufacturersModelName": "Prisma_fit",
    "Modality": "MR",
    "MultibandAccelerationFactor": 4,
    "PartialFourier": 1,
    "PatientPosition": "HFS",
    "PercentPhaseFOV": 100,
    "PhaseEncodingDirection": "j-",
    "PhaseEncodingSteps": 104,
    "PhaseResolution": 1,
    "PixelBandwidth": 2290,
    "ProcedureStepDescription": "video5_generic",
    "ProtocolName": "func_task-bourne8",
    "PulseSequenceDetails": "%CustomerSeq%_cmrr_mbep2d_bold",
    "ReceiveCoilActiveElements": "HC1-7;NC1,2",
    "ReceiveCoilName": "HeadNeck_64",
    "ReconMatrixPE": 104,
    "RepetitionTime": 1.49,
    "SAR": 0.0396449,
    "ScanOptions": "FS",
    "ScanningSequence": "EP",
    "SequenceName": "epfid2d1_104",
    "SequenceVariant": "SK_SS",
    "SeriesDescription": "func_task-bourne8",
    "SeriesNumber": 11,
    "ShimSetting": [
      632,
      -7187,
      -8830,
      682,
      104,
      58,
      -5,
      -7
    ],
    "SliceThickness": 2,
    "SliceTiming": [
      0,
      0.7825,
      0.0975,
      0.88,
      0.195,
      0.98,
      0.2925,
      1.0775,
      0.39,
      1.175,
      0.49,
      1.2725,
      0.5875,
      1.37,
      0.685,
      0,
      0.7825,
      0.0975,
      0.88,
      0.195,
      0.98,
      0.2925,
      1.0775,
      0.39,
      1.175,
      0.49,
      1.2725,
      0.5875,
      1.37,
      0.685,
      0,
      0.7825,
      0.0975,
      0.88,
      0.195,
      0.98,
      0.2925,
      1.0775,
      0.39,
      1.175,
      0.49,
      1.2725,
      0.5875,
      1.37,
      0.685,
      0,
      0.7825,
      0.0975,
      0.88,
      0.195,
      0.98,
      0.2925,
      1.0775,
      0.39,
      1.175,
      0.49,
      1.2725,
      0.5875,
      1.37,
      0.685
    ],
    "SoftwareVersions": "syngo_MR_E11",
    "SpacingBetweenSlices": 2,
    "StationName": "MRC35049",
    "TaskName": "bourne08",
    "TotalReadoutTime": 0.0576811,
    "TxRefAmp": 253.419,
    "dataset": "<unset>",
    "dcmmeta_affine": [
      [
        -1.993839979171753,
        -0.1369752734899521,
        0.07641826570034027,
        110.66004943847656
      ],
      [
        -0.15167076885700226,
        1.9320343732833862,
        -0.49420562386512756,
        -55.538909912109375
      ],
      [
        0.039974380284547806,
        0.49847865104675293,
        1.9364713430404663,
        -58.793148040771484
      ],
      [
        0.0,
        0.0,
        0.0,
        1.0
      ]
    ],
    "dcmmeta_reorient_transform": [
      [
        0.0,
        -1.0,
        0.0,
        103.0
      ],
      [
        1.0,
        0.0,
        0.0,
        0.0
      ],
      [
        0.0,
        0.0,
        1.0,
        0.0
      ],
      [
        0.0,
        0.0,
        0.0,
        1.0
      ]
    ],
    "dcmmeta_shape": [
      104,
      104,
      60,
      405
    ],
    "dcmmeta_slice_dim": 2,
    "dcmmeta_version": 0.6,
    "global": {
      "const": {
        "AcquisitionMatrix": [
          104,
          0,
          0,
          104
        ],
        "AngioFlag": "N",
        "BitsAllocated": 16,
        "BitsStored": 16,
        "BodyPartExamined": "BRAIN",
        "Columns": 832,
        "EchoNumbers": 1,
        "EchoTime": 37.0,
        "EchoTrainLength": 104,
        "FlipAngle": 52.0,
        "HighBit": 15,
        "ImageOrientationPatient": [
          0.99692001003746,
          0.07583538613531,
          0.01998719081378,
          -0.0684876334178,
          0.96601718469173,
          -0.2492393286564
        ],
        "ImagePositionPatient": [
          -772.45036798236,
          -901.92930249011,
          159.44570829626
        ],
        "ImageType": [
          "ORIGINAL",
          "PRIMARY",
          "M",
          "MB",
          "ND",
          "MOSAIC"
        ],
        "ImagedNucleus": "1H",
        "ImagingFrequency": 123.258002,
        "InPlanePhaseEncodingDirection": "COL",
        "MRAcquisitionType": "2D",
        "MagneticFieldStrength": 3.0,
        "Manufacturer": "SIEMENS",
        "ManufacturerModelName": "Prisma_fit",
        "Modality": "MR",
        "NumberOfAverages": 1.0,
        "NumberOfPhaseEncodingSteps": 104,
        "PercentPhaseFieldOfView": 100.0,
        "PercentSampling": 100.0,
        "PerformedProcedureStepStartTime": "105555.986000",
        "PhotometricInterpretation": "MONOCHROME2",
        "PixelBandwidth": 2290.0,
        "PixelRepresentation": 0,
        "PixelSpacing": [
          2.0,
          2.0
        ],
        "ProtocolName": "func_task-bourne8",
        "RepetitionTime": 1490.0,
        "Rows": 832,
        "SAR": 0.03964491389208,
        "SamplesPerPixel": 1,
        "ScanOptions": "FS",
        "ScanningSequence": "EP",
        "SequenceName": "epfid2d1_104",
        "SequenceVariant": [
          "SK",
          "SS"
        ],
        "SeriesDescription": "func_task-bourne8",
        "SeriesNumber": 11,
        "SeriesTime": "112131.740000",
        "SliceLocation": -38.97357924626,
        "SliceThickness": 2.0,
        "SmallestImagePixelValue": 0,
        "SoftwareVersions": "syngo MR E11",
        "SpacingBetweenSlices": 2.0000000579249,
        "SpecificCharacterSet": "ISO_IR 100",
        "StudyID": "1",
        "StudyTime": "105555.902000",
        "TransmitCoilName": "Body",
        "VariableFlipAngleFlag": "N",
        "WindowCenterWidthExplanation": "Algo1",
        "dBdt": 0.0
      },
      "slices": {}
    },
    "modality": "bold",
    "session_id": "002",
    "subject_id": "01",
    "task_id": "bourne08",
    "time": {
      "samples": {
        "AcquisitionNumber": [
          1,
          2,
          3,
          4,
          5,
          6,
          7,
          8,
          9,
          10,
          11,
          12,
          13,
          14,
          15,
          16,
          17,
          18,
          19,
          20,
          21,
          22,
          23,
          24,
          25,
          26,
          27,
          28,
          29,
          30,
          31,
          32,
          33,
          34,
          35,
          36,
          37,
          38,
          39,
          40,
          41,
          42,
          43,
          44,
          45,
          46,
          47,
          48,
          49,
          50,
          51,
          52,
          53,
          54,
          55,
          56,
          57,
          58,
          59,
          60,
          61,
          62,
          63,
          64,
          65,
          66,
          67,
          68,
          69,
          70,
          71,
          72,
          73,
          74,
          75,
          76,
          77,
          78,
          79,
          80,
          81,
          82,
          83,
          84,
          85,
          86,
          87,
          88,
          89,
          90,
          91,
          92,
          93,
          94,
          95,
          96,
          97,
          98,
          99,
          100,
          101,
          102,
          103,
          104,
          105,
          106,
          107,
          108,
          109,
          110,
          111,
          112,
          113,
          114,
          115,
          116,
          117,
          118,
          119,
          120,
          121,
          122,
          123,
          124,
          125,
          126,
          127,
          128,
          129,
          130,
          131,
          132,
          133,
          134,
          135,
          136,
          137,
          138,
          139,
          140,
          141,
          142,
          143,
          144,
          145,
          146,
          147,
          148,
          149,
          150,
          151,
          152,
          153,
          154,
          155,
          156,
          157,
          158,
          159,
          160,
          161,
          162,
          163,
          164,
          165,
          166,
          167,
          168,
          169,
          170,
          171,
          172,
          173,
          174,
          175,
          176,
          177,
          178,
          179,
          180,
          181,
          182,
          183,
          184,
          185,
          186,
          187,
          188,
          189,
          190,
          191,
          192,
          193,
          194,
          195,
          196,
          197,
          198,
          199,
          200,
          201,
          202,
          203,
          204,
          205,
          206,
          207,
          208,
          209,
          210,
          211,
          212,
          213,
          214,
          215,
          216,
          217,
          218,
          219,
          220,
          221,
          222,
          223,
          224,
          225,
          226,
          227,
          228,
          229,
          230,
          231,
          232,
          233,
          234,
          235,
          236,
          237,
          238,
          239,
          240,
          241,
          242,
          243,
          244,
          245,
          246,
          247,
          248,
          249,
          250,
          251,
          252,
          253,
          254,
          255,
          256,
          257,
          258,
          259,
          260,
          261,
          262,
          263,
          264,
          265,
          266,
          267,
          268,
          269,
          270,
          271,
          272,
          273,
          274,
          275,
          276,
          277,
          278,
          279,
          280,
          281,
          282,
          283,
          284,
          285,
          286,
          287,
          288,
          289,
          290,
          291,
          292,
          293,
          294,
          295,
          296,
          297,
          298,
          299,
          300,
          301,
          302,
          303,
          304,
          305,
          306,
          307,
          308,
          309,
          310,
          311,
          312,
          313,
          314,
          315,
          316,
          317,
          318,
          319,
          320,
          321,
          322,
          323,
          324,
          325,
          326,
          327,
          328,
          329,
          330,
          331,
          332,
          333,
          334,
          335,
          336,
          337,
          338,
          339,
          340,
          341,
          342,
          343,
          344,
          345,
          346,
          347,
          348,
          349,
          350,
          351,
          352,
          353,
          354,
          355,
          356,
          357,
          358,
          359,
          360,
          361,
          362,
          363,
          364,
          365,
          366,
          367,
          368,
          369,
          370,
          371,
          372,
          373,
          374,
          375,
          376,
          377,
          378,
          379,
          380,
          381,
          382,
          383,
          384,
          385,
          386,
          387,
          388,
          389,
          390,
          391,
          392,
          393,
          394,
          395,
          396,
          397,
          398,
          399,
          400,
          401,
          402,
          403,
          404,
          405
        ],
        "AcquisitionTime": [
          "112007.247500",
          "112008.737500",
          "112010.227500",
          "112011.717500",
          "112013.207500",
          "112014.697500",
          "112016.187500",
          "112017.677500",
          "112019.167500",
          "112020.657500",
          "112022.147500",
          "112023.637500",
          "112025.127500",
          "112026.617500",
          "112028.107500",
          "112029.597500",
          "112031.087500",
          "112032.577500",
          "112034.067500",
          "112035.557500",
          "112037.047500",
          "112038.537500",
          "112040.027500",
          "112041.517500",
          "112043.007500",
          "112044.497500",
          "112045.987500",
          "112047.477500",
          "112048.967500",
          "112050.457500",
          "112051.947500",
          "112053.437500",
          "112054.927500",
          "112056.417500",
          "112057.907500",
          "112059.397500",
          "112100.887500",
          "112102.377500",
          "112103.867500",
          "112105.357500",
          "112106.847500",
          "112108.337500",
          "112109.827500",
          "112111.317500",
          "112112.807500",
          "112114.297500",
          "112115.787500",
          "112117.277500",
          "112118.767500",
          "112120.257500",
          "112121.747500",
          "112123.237500",
          "112124.727500",
          "112126.217500",
          "112127.707500",
          "112129.197500",
          "112130.687500",
          "112132.177500",
          "112133.667500",
          "112135.157500",
          "112136.647500",
          "112138.137500",
          "112139.627500",
          "112141.117500",
          "112142.607500",
          "112144.097500",
          "112145.587500",
          "112147.077500",
          "112148.567500",
          "112150.057500",
          "112151.547500",
          "112153.037500",
          "112154.527500",
          "112156.017500",
          "112157.507500",
          "112158.997500",
          "112200.487500",
          "112201.977500",
          "112203.467500",
          "112204.957500",
          "112206.447500",
          "112207.937500",
          "112209.427500",
          "112210.917500",
          "112212.407500",
          "112213.897500",
          "112215.387500",
          "112216.877500",
          "112218.367500",
          "112219.857500",
          "112221.347500",
          "112222.837500",
          "112224.327500",
          "112225.817500",
          "112227.307500",
          "112228.797500",
          "112230.287500",
          "112231.777500",
          "112233.267500",
          "112234.757500",
          "112236.247500",
          "112237.737500",
          "112239.227500",
          "112240.717500",
          "112242.207500",
          "112243.697500",
          "112245.187500",
          "112246.677500",
          "112248.167500",
          "112249.657500",
          "112251.147500",
          "112252.637500",
          "112254.127500",
          "112255.617500",
          "112257.107500",
          "112258.597500",
          "112300.087500",
          "112301.577500",
          "112303.067500",
          "112304.557500",
          "112306.047500",
          "112307.537500",
          "112309.027500",
          "112310.517500",
          "112312.007500",
          "112313.497500",
          "112314.987500",
          "112316.477500",
          "112317.967500",
          "112319.457500",
          "112320.947500",
          "112322.437500",
          "112323.927500",
          "112325.417500",
          "112326.907500",
          "112328.397500",
          "112329.887500",
          "112331.377500",
          "112332.867500",
          "112334.357500",
          "112335.847500",
          "112337.337500",
          "112338.827500",
          "112340.317500",
          "112341.807500",
          "112343.297500",
          "112344.787500",
          "112346.277500",
          "112347.767500",
          "112349.257500",
          "112350.747500",
          "112352.237500",
          "112353.727500",
          "112355.217500",
          "112356.707500",
          "112358.197500",
          "112359.687500",
          "112401.177500",
          "112402.667500",
          "112404.157500",
          "112405.647500",
          "112407.137500",
          "112408.627500",
          "112410.117500",
          "112411.607500",
          "112413.097500",
          "112414.587500",
          "112416.077500",
          "112417.567500",
          "112419.057500",
          "112420.547500",
          "112422.037500",
          "112423.527500",
          "112425.017500",
          "112426.507500",
          "112427.997500",
          "112429.487500",
          "112430.977500",
          "112432.467500",
          "112433.957500",
          "112435.447500",
          "112436.937500",
          "112438.427500",
          "112439.917500",
          "112441.407500",
          "112442.897500",
          "112444.387500",
          "112445.877500",
          "112447.367500",
          "112448.857500",
          "112450.347500",
          "112451.837500",
          "112453.327500",
          "112454.817500",
          "112456.307500",
          "112457.797500",
          "112459.287500",
          "112500.777500",
          "112502.267500",
          "112503.757500",
          "112505.247500",
          "112506.737500",
          "112508.227500",
          "112509.717500",
          "112511.207500",
          "112512.697500",
          "112514.187500",
          "112515.677500",
          "112517.167500",
          "112518.657500",
          "112520.147500",
          "112521.637500",
          "112523.127500",
          "112524.617500",
          "112526.107500",
          "112527.597500",
          "112529.087500",
          "112530.577500",
          "112532.067500",
          "112533.557500",
          "112535.047500",
          "112536.537500",
          "112538.027500",
          "112539.517500",
          "112541.007500",
          "112542.497500",
          "112543.987500",
          "112545.477500",
          "112546.967500",
          "112548.457500",
          "112549.947500",
          "112551.437500",
          "112552.927500",
          "112554.417500",
          "112555.907500",
          "112557.397500",
          "112558.887500",
          "112600.377500",
          "112601.867500",
          "112603.357500",
          "112604.847500",
          "112606.337500",
          "112607.827500",
          "112609.317500",
          "112610.807500",
          "112612.297500",
          "112613.787500",
          "112615.277500",
          "112616.767500",
          "112618.257500",
          "112619.747500",
          "112621.237500",
          "112622.727500",
          "112624.217500",
          "112625.707500",
          "112627.197500",
          "112628.687500",
          "112630.177500",
          "112631.667500",
          "112633.157500",
          "112634.647500",
          "112636.137500",
          "112637.627500",
          "112639.117500",
          "112640.607500",
          "112642.097500",
          "112643.587500",
          "112645.077500",
          "112646.567500",
          "112648.057500",
          "112649.547500",
          "112651.037500",
          "112652.527500",
          "112654.017500",
          "112655.507500",
          "112656.997500",
          "112658.487500",
          "112659.977500",
          "112701.467500",
          "112702.957500",
          "112704.447500",
          "112705.937500",
          "112707.427500",
          "112708.917500",
          "112710.407500",
          "112711.897500",
          "112713.387500",
          "112714.877500",
          "112716.367500",
          "112717.857500",
          "112719.347500",
          "112720.837500",
          "112722.327500",
          "112723.817500",
          "112725.307500",
          "112726.797500",
          "112728.287500",
          "112729.777500",
          "112731.267500",
          "112732.757500",
          "112734.247500",
          "112735.737500",
          "112737.227500",
          "112738.717500",
          "112740.207500",
          "112741.697500",
          "112743.187500",
          "112744.677500",
          "112746.167500",
          "112747.657500",
          "112749.147500",
          "112750.637500",
          "112752.127500",
          "112753.617500",
          "112755.107500",
          "112756.597500",
          "112758.087500",
          "112759.577500",
          "112801.067500",
          "112802.557500",
          "112804.047500",
          "112805.537500",
          "112807.027500",
          "112808.517500",
          "112810.007500",
          "112811.497500",
          "112812.987500",
          "112814.477500",
          "112815.967500",
          "112817.457500",
          "112818.947500",
          "112820.437500",
          "112821.927500",
          "112823.417500",
          "112824.907500",
          "112826.397500",
          "112827.887500",
          "112829.377500",
          "112830.867500",
          "112832.357500",
          "112833.847500",
          "112835.337500",
          "112836.827500",
          "112838.317500",
          "112839.807500",
          "112841.297500",
          "112842.787500",
          "112844.277500",
          "112845.767500",
          "112847.257500",
          "112848.747500",
          "112850.237500",
          "112851.727500",
          "112853.217500",
          "112854.707500",
          "112856.197500",
          "112857.687500",
          "112859.177500",
          "112900.667500",
          "112902.157500",
          "112903.647500",
          "112905.137500",
          "112906.627500",
          "112908.117500",
          "112909.607500",
          "112911.097500",
          "112912.587500",
          "112914.077500",
          "112915.567500",
          "112917.057500",
          "112918.547500",
          "112920.037500",
          "112921.527500",
          "112923.017500",
          "112924.507500",
          "112925.997500",
          "112927.487500",
          "112928.977500",
          "112930.467500",
          "112931.957500",
          "112933.447500",
          "112934.937500",
          "112936.427500",
          "112937.917500",
          "112939.407500",
          "112940.897500",
          "112942.387500",
          "112943.877500",
          "112945.367500",
          "112946.857500",
          "112948.347500",
          "112949.837500",
          "112951.327500",
          "112952.817500",
          "112954.307500",
          "112955.797500",
          "112957.287500",
          "112958.777500",
          "113000.267500",
          "113001.757500",
          "113003.247500",
          "113004.737500",
          "113006.227500",
          "113007.717500",
          "113009.207500"
        ],
        "ContentTime": [
          "112131.743000",
          "112131.747000",
          "112131.750000",
          "112131.753000",
          "112131.756000",
          "112131.759000",
          "112131.761000",
          "112131.764000",
          "112131.767000",
          "112131.770000",
          "112131.773000",
          "112131.776000",
          "112131.779000",
          "112131.782000",
          "112131.785000",
          "112131.788000",
          "112131.791000",
          "112131.794000",
          "112131.797000",
          "112131.800000",
          "112131.803000",
          "112131.806000",
          "112131.809000",
          "112131.812000",
          "112131.815000",
          "112131.818000",
          "112131.825000",
          "112131.828000",
          "112131.831000",
          "112131.834000",
          "112131.837000",
          "112131.840000",
          "112151.703000",
          "112151.706000",
          "112151.709000",
          "112151.712000",
          "112151.715000",
          "112151.718000",
          "112151.721000",
          "112151.724000",
          "112151.727000",
          "112151.730000",
          "112151.733000",
          "112151.736000",
          "112151.738000",
          "112151.741000",
          "112151.744000",
          "112151.747000",
          "112151.750000",
          "112151.753000",
          "112151.756000",
          "112151.759000",
          "112211.703000",
          "112211.706000",
          "112211.709000",
          "112211.712000",
          "112211.715000",
          "112211.718000",
          "112211.721000",
          "112211.723000",
          "112211.726000",
          "112211.729000",
          "112211.732000",
          "112211.741000",
          "112211.744000",
          "112211.747000",
          "112211.750000",
          "112211.753000",
          "112211.756000",
          "112211.759000",
          "112211.762000",
          "112211.765000",
          "112231.704000",
          "112231.707000",
          "112231.710000",
          "112231.713000",
          "112231.716000",
          "112231.719000",
          "112231.722000",
          "112231.742000",
          "112231.745000",
          "112231.748000",
          "112231.751000",
          "112231.754000",
          "112231.757000",
          "112231.760000",
          "112231.763000",
          "112231.766000",
          "112231.769000",
          "112231.771000",
          "112231.774000",
          "112231.777000",
          "112311.703000",
          "112311.706000",
          "112311.709000",
          "112311.712000",
          "112311.715000",
          "112311.718000",
          "112311.721000",
          "112311.724000",
          "112311.727000",
          "112311.730000",
          "112311.733000",
          "112311.736000",
          "112311.739000",
          "112311.741000",
          "112311.744000",
          "112311.747000",
          "112311.750000",
          "112311.753000",
          "112311.756000",
          "112311.759000",
          "112311.762000",
          "112311.765000",
          "112311.768000",
          "112311.771000",
          "112311.774000",
          "112311.777000",
          "112311.780000",
          "112311.783000",
          "112311.786000",
          "112311.789000",
          "112311.792000",
          "112351.703000",
          "112351.706000",
          "112351.709000",
          "112351.712000",
          "112351.715000",
          "112351.718000",
          "112351.721000",
          "112351.724000",
          "112351.727000",
          "112351.730000",
          "112351.733000",
          "112351.736000",
          "112351.739000",
          "112351.742000",
          "112351.745000",
          "112351.748000",
          "112351.751000",
          "112351.754000",
          "112351.756000",
          "112351.759000",
          "112351.762000",
          "112351.765000",
          "112351.768000",
          "112351.771000",
          "112351.774000",
          "112351.777000",
          "112351.780000",
          "112431.703000",
          "112431.706000",
          "112431.709000",
          "112431.712000",
          "112431.715000",
          "112431.718000",
          "112431.721000",
          "112431.724000",
          "112431.727000",
          "112431.730000",
          "112431.733000",
          "112431.736000",
          "112431.739000",
          "112431.742000",
          "112431.745000",
          "112431.748000",
          "112431.750000",
          "112431.753000",
          "112431.762000",
          "112431.765000",
          "112431.768000",
          "112431.771000",
          "112431.774000",
          "112431.777000",
          "112431.780000",
          "112431.783000",
          "112431.786000",
          "112511.703000",
          "112511.706000",
          "112511.709000",
          "112511.712000",
          "112511.715000",
          "112511.718000",
          "112511.721000",
          "112511.724000",
          "112511.727000",
          "112511.730000",
          "112511.733000",
          "112511.736000",
          "112511.739000",
          "112511.741000",
          "112511.744000",
          "112511.747000",
          "112511.750000",
          "112511.753000",
          "112511.756000",
          "112511.759000",
          "112511.762000",
          "112511.765000",
          "112511.768000",
          "112511.771000",
          "112511.774000",
          "112511.777000",
          "112511.780000",
          "112551.703000",
          "112551.706000",
          "112551.709000",
          "112551.718000",
          "112551.721000",
          "112551.724000",
          "112551.727000",
          "112551.730000",
          "112551.733000",
          "112551.736000",
          "112551.739000",
          "112551.742000",
          "112551.745000",
          "112551.748000",
          "112551.751000",
          "112551.754000",
          "112551.757000",
          "112551.760000",
          "112551.763000",
          "112551.766000",
          "112551.768000",
