{
  "aor": 0.0004187654320987654,
  "aqi": 0.006716519061728396,
  "bids_meta": {
    "AcquisitionMatrixPE": 104,
    "AcquisitionNumber": 1,
    "AcquisitionTime": "11:09:36.310000",
    "BandwidthPerPixelPhaseEncode": 17.17,
    "BaseResolution": 104,
    "BodyPartExamined": "BRAIN",
    "CogAtlasID": "trm_4c898da401420",
    "ConsistencyInfo": "N4_VE11C_LATEST_20160120",
    "ConversionSoftware": "dcm2niix",
    "ConversionSoftwareVersion": "v1.0.20171215 (OpenJPEG build) GCC7.3.0",
    "DerivedVendorReportedEchoSpacing": 0.000560011,
    "DeviceSerialNumber": "167006",
    "DwellTime": 2.1e-06,
    "EchoTime": 0.037,
    "EchoTrainLength": 104,
    "EffectiveEchoSpacing": 0.000560011,
    "FlipAngle": 52,
    "ImageComments": "Unaliased_MB4_PE3_LB",
    "ImageOrientationPatientDICOM": [
      0.99692,
      0.0758354,
      0.0199872,
      -0.0684876,
      0.966017,
      -0.249239
    ],
    "ImageType": [
      "ORIGINAL",
      "PRIMARY",
      "M",
      "MB",
      "ND",
      "MOSAIC"
    ],
    "InPlanePhaseEncodingDirectionDICOM": "COL",
    "InstitutionAddress": "Chemin_Queen-Mary_4565_Montreal_District_CA_H3W_1W5",
    "InstitutionName": "IUGM",
    "InstitutionalDepartmentName": "Department",
    "MRAcquisitionType": "2D",
    "MagneticFieldStrength": 3,
    "Manufacturer": "Siemens",
    "ManufacturersModelName": "Prisma_fit",
    "Modality": "MR",
    "MultibandAccelerationFactor": 4,
    "PartialFourier": 1,
    "PatientPosition": "HFS",
    "PercentPhaseFOV": 100,
    "PhaseEncodingDirection": "j-",
    "PhaseEncodingSteps": 104,
    "PhaseResolution": 1,
    "PixelBandwidth": 2290,
    "ProcedureStepDescription": "video5_generic",
    "ProtocolName": "func_task-bourne7",
    "PulseSequenceDetails": "%CustomerSeq%_cmrr_mbep2d_bold",
    "ReceiveCoilActiveElements": "HC1-7;NC1,2",
    "ReceiveCoilName": "HeadNeck_64",
    "ReconMatrixPE": 104,
    "RepetitionTime": 1.49,
    "SAR": 0.0396449,
    "ScanOptions": "FS",
    "ScanningSequence": "EP",
    "SequenceName": "epfid2d1_104",
    "SequenceVariant": "SK_SS",
    "SeriesDescription": "func_task-bourne7",
    "SeriesNumber": 9,
    "ShimSetting": [
      632,
      -7187,
      -8830,
      682,
      104,
      58,
      -5,
      -7
    ],
    "SliceThickness": 2,
    "SliceTiming": [
      0,
      0.7825,
      0.0975,
      0.88,
      0.195,
      0.98,
      0.2925,
      1.0775,
      0.39,
      1.175,
      0.49,
      1.2725,
      0.5875,
      1.37,
      0.685,
      0,
      0.7825,
      0.0975,
      0.88,
      0.195,
      0.98,
      0.2925,
      1.0775,
      0.39,
      1.175,
      0.49,
      1.2725,
      0.5875,
      1.37,
      0.685,
      0,
      0.7825,
      0.0975,
      0.88,
      0.195,
      0.98,
      0.2925,
      1.0775,
      0.39,
      1.175,
      0.49,
      1.2725,
      0.5875,
      1.37,
      0.685,
      0,
      0.7825,
      0.0975,
      0.88,
      0.195,
      0.98,
      0.2925,
      1.0775,
      0.39,
      1.175,
      0.49,
      1.2725,
      0.5875,
      1.37,
      0.685
    ],
    "SoftwareVersions": "syngo_MR_E11",
    "SpacingBetweenSlices": 2,
    "StationName": "MRC35049",
    "TaskName": "bourne07",
    "TotalReadoutTime": 0.0576811,
    "TxRefAmp": 253.419,
    "dataset": "<unset>",
    "dcmmeta_affine": [
      [
        -1.993839979171753,
        -0.1369752734899521,
        0.07641826570034027,
        110.66004943847656
      ],
      [
        -0.15167076885700226,
        1.9320343732833862,
        -0.49420562386512756,
        -55.538909912109375
      ],
      [
        0.039974380284547806,
        0.49847865104675293,
        1.9364713430404663,
        -58.793148040771484
      ],
      [
        0.0,
        0.0,
        0.0,
        1.0
      ]
    ],
    "dcmmeta_reorient_transform": [
      [
        0.0,
        -1.0,
        0.0,
        103.0
      ],
      [
        1.0,
        0.0,
        0.0,
        0.0
      ],
      [
        0.0,
        0.0,
        1.0,
        0.0
      ],
      [
        0.0,
        0.0,
        0.0,
        1.0
      ]
    ],
    "dcmmeta_shape": [
      104,
      104,
      60,
      405
    ],
    "dcmmeta_slice_dim": 2,
    "dcmmeta_version": 0.6,
    "global": {
      "const": {
        "AcquisitionMatrix": [
          104,
          0,
          0,
          104
        ],
        "AngioFlag": "N",
        "BitsAllocated": 16,
        "BitsStored": 16,
        "BodyPartExamined": "BRAIN",
        "Columns": 832,
        "EchoNumbers": 1,
        "EchoTime": 37.0,
        "EchoTrainLength": 104,
        "FlipAngle": 52.0,
        "HighBit": 15,
        "ImageOrientationPatient": [
          0.99692001003746,
          0.07583538613531,
          0.01998719081378,
          -0.0684876334178,
          0.96601718469173,
          -0.2492393286564
        ],
        "ImagePositionPatient": [
          -772.45036798236,
          -901.92930249011,
          159.44570829626
        ],
        "ImageType": [
          "ORIGINAL",
          "PRIMARY",
          "M",
          "MB",
          "ND",
          "MOSAIC"
        ],
        "ImagedNucleus": "1H",
        "ImagingFrequency": 123.257995,
        "InPlanePhaseEncodingDirection": "COL",
        "MRAcquisitionType": "2D",
        "MagneticFieldStrength": 3.0,
        "Manufacturer": "SIEMENS",
        "ManufacturerModelName": "Prisma_fit",
        "Modality": "MR",
        "NumberOfAverages": 1.0,
        "NumberOfPhaseEncodingSteps": 104,
        "PercentPhaseFieldOfView": 100.0,
        "PercentSampling": 100.0,
        "PerformedProcedureStepStartTime": "105555.986000",
        "PhotometricInterpretation": "MONOCHROME2",
        "PixelBandwidth": 2290.0,
        "PixelRepresentation": 0,
        "PixelSpacing": [
          2.0,
          2.0
        ],
        "ProtocolName": "func_task-bourne7",
        "RepetitionTime": 1490.0,
        "Rows": 832,
        "SAR": 0.03964491389208,
        "SamplesPerPixel": 1,
        "ScanOptions": "FS",
        "ScanningSequence": "EP",
        "SequenceName": "epfid2d1_104",
        "SequenceVariant": [
          "SK",
          "SS"
        ],
        "SeriesDescription": "func_task-bourne7",
        "SeriesNumber": 9,
        "SeriesTime": "111055.646000",
        "SliceLocation": -38.97357924626,
        "SliceThickness": 2.0,
        "SmallestImagePixelValue": 0,
        "SoftwareVersions": "syngo MR E11",
        "SpacingBetweenSlices": 2.0000000579249,
        "SpecificCharacterSet": "ISO_IR 100",
        "StudyID": "1",
        "StudyTime": "105555.902000",
        "TransmitCoilName": "Body",
        "VariableFlipAngleFlag": "N",
        "WindowCenterWidthExplanation": "Algo1",
        "dBdt": 0.0
      },
      "slices": {}
    },
    "modality": "bold",
    "session_id": "002",
    "subject_id": "01",
    "task_id": "bourne07",
    "time": {
      "samples": {
        "AcquisitionNumber": [
          1,
          2,
          3,
          4,
          5,
          6,
          7,
          8,
          9,
          10,
          11,
          12,
          13,
          14,
          15,
          16,
          17,
          18,
          19,
          20,
          21,
          22,
          23,
          24,
          25,
          26,
          27,
          28,
          29,
          30,
          31,
          32,
          33,
          34,
          35,
          36,
          37,
          38,
          39,
          40,
          41,
          42,
          43,
          44,
          45,
          46,
          47,
          48,
          49,
          50,
          51,
          52,
          53,
          54,
          55,
          56,
          57,
          58,
          59,
          60,
          61,
          62,
          63,
          64,
          65,
          66,
          67,
          68,
          69,
          70,
          71,
          72,
          73,
          74,
          75,
          76,
          77,
          78,
          79,
          80,
          81,
          82,
          83,
          84,
          85,
          86,
          87,
          88,
          89,
          90,
          91,
          92,
          93,
          94,
          95,
          96,
          97,
          98,
          99,
          100,
          101,
          102,
          103,
          104,
          105,
          106,
          107,
          108,
          109,
          110,
          111,
          112,
          113,
          114,
          115,
          116,
          117,
          118,
          119,
          120,
          121,
          122,
          123,
          124,
          125,
          126,
          127,
          128,
          129,
          130,
          131,
          132,
          133,
          134,
          135,
          136,
          137,
          138,
          139,
          140,
          141,
          142,
          143,
          144,
          145,
          146,
          147,
          148,
          149,
          150,
          151,
          152,
          153,
          154,
          155,
          156,
          157,
          158,
          159,
          160,
          161,
          162,
          163,
          164,
          165,
          166,
          167,
          168,
          169,
          170,
          171,
          172,
          173,
          174,
          175,
          176,
          177,
          178,
          179,
          180,
          181,
          182,
          183,
          184,
          185,
          186,
          187,
          188,
          189,
          190,
          191,
          192,
          193,
          194,
          195,
          196,
          197,
          198,
          199,
          200,
          201,
          202,
          203,
          204,
          205,
          206,
          207,
          208,
          209,
          210,
          211,
          212,
          213,
          214,
          215,
          216,
          217,
          218,
          219,
          220,
          221,
          222,
          223,
          224,
          225,
          226,
          227,
          228,
          229,
          230,
          231,
          232,
          233,
          234,
          235,
          236,
          237,
          238,
          239,
          240,
          241,
          242,
          243,
          244,
          245,
          246,
          247,
          248,
          249,
          250,
          251,
          252,
          253,
          254,
          255,
          256,
          257,
          258,
          259,
          260,
          261,
          262,
          263,
          264,
          265,
          266,
          267,
          268,
          269,
          270,
          271,
          272,
          273,
          274,
          275,
          276,
          277,
          278,
          279,
          280,
          281,
          282,
          283,
          284,
          285,
          286,
          287,
          288,
          289,
          290,
          291,
          292,
          293,
          294,
          295,
          296,
          297,
          298,
          299,
          300,
          301,
          302,
          303,
          304,
          305,
          306,
          307,
          308,
          309,
          310,
          311,
          312,
          313,
          314,
          315,
          316,
          317,
          318,
          319,
          320,
          321,
          322,
          323,
          324,
          325,
          326,
          327,
          328,
          329,
          330,
          331,
          332,
          333,
          334,
          335,
          336,
          337,
          338,
          339,
          340,
          341,
          342,
          343,
          344,
          345,
          346,
          347,
          348,
          349,
          350,
          351,
          352,
          353,
          354,
          355,
          356,
          357,
          358,
          359,
          360,
          361,
          362,
          363,
          364,
          365,
          366,
          367,
          368,
          369,
          370,
          371,
          372,
          373,
          374,
          375,
          376,
          377,
          378,
          379,
          380,
          381,
          382,
          383,
          384,
          385,
          386,
          387,
          388,
          389,
          390,
          391,
          392,
          393,
          394,
          395,
          396,
          397,
          398,
          399,
          400,
          401,
          402,
          403,
          404,
          405
        ],
        "AcquisitionTime": [
          "110936.310000",
          "110937.800000",
          "110939.290000",
          "110940.780000",
          "110942.270000",
          "110943.760000",
          "110945.250000",
          "110946.740000",
          "110948.230000",
          "110949.720000",
          "110951.210000",
          "110952.700000",
          "110954.190000",
          "110955.680000",
          "110957.170000",
          "110958.660000",
          "111000.150000",
          "111001.640000",
          "111003.130000",
          "111004.620000",
          "111006.110000",
          "111007.600000",
          "111009.090000",
          "111010.580000",
          "111012.070000",
          "111013.560000",
          "111015.050000",
          "111016.540000",
          "111018.030000",
          "111019.520000",
          "111021.010000",
          "111022.500000",
          "111023.990000",
          "111025.480000",
          "111026.970000",
          "111028.460000",
          "111029.950000",
          "111031.440000",
          "111032.930000",
          "111034.420000",
          "111035.910000",
          "111037.400000",
          "111038.890000",
          "111040.380000",
          "111041.870000",
          "111043.360000",
          "111044.850000",
          "111046.340000",
          "111047.830000",
          "111049.320000",
          "111050.810000",
          "111052.300000",
          "111053.790000",
          "111055.280000",
          "111056.770000",
          "111058.260000",
          "111059.750000",
          "111101.240000",
          "111102.730000",
          "111104.220000",
          "111105.710000",
          "111107.200000",
          "111108.690000",
          "111110.180000",
          "111111.670000",
          "111113.160000",
          "111114.650000",
          "111116.140000",
          "111117.630000",
          "111119.120000",
          "111120.610000",
          "111122.100000",
          "111123.590000",
          "111125.080000",
          "111126.570000",
          "111128.060000",
          "111129.550000",
          "111131.040000",
          "111132.530000",
          "111134.020000",
          "111135.510000",
          "111137.000000",
          "111138.490000",
          "111139.980000",
          "111141.470000",
          "111142.960000",
          "111144.450000",
          "111145.940000",
          "111147.430000",
          "111148.920000",
          "111150.410000",
          "111151.900000",
          "111153.390000",
          "111154.880000",
          "111156.370000",
          "111157.860000",
          "111159.350000",
          "111200.840000",
          "111202.330000",
          "111203.820000",
          "111205.310000",
          "111206.800000",
          "111208.290000",
          "111209.780000",
          "111211.270000",
          "111212.760000",
          "111214.250000",
          "111215.740000",
          "111217.230000",
          "111218.720000",
          "111220.210000",
          "111221.700000",
          "111223.190000",
          "111224.680000",
          "111226.170000",
          "111227.660000",
          "111229.150000",
          "111230.640000",
          "111232.130000",
          "111233.620000",
          "111235.110000",
          "111236.600000",
          "111238.090000",
          "111239.580000",
          "111241.070000",
          "111242.560000",
          "111244.050000",
          "111245.540000",
          "111247.030000",
          "111248.520000",
          "111250.010000",
          "111251.500000",
          "111252.990000",
          "111254.480000",
          "111255.970000",
          "111257.460000",
          "111258.950000",
          "111300.440000",
          "111301.930000",
          "111303.420000",
          "111304.910000",
          "111306.400000",
          "111307.890000",
          "111309.380000",
          "111310.870000",
          "111312.360000",
          "111313.850000",
          "111315.340000",
          "111316.830000",
          "111318.320000",
          "111319.810000",
          "111321.300000",
          "111322.790000",
          "111324.280000",
          "111325.770000",
          "111327.260000",
          "111328.750000",
          "111330.240000",
          "111331.730000",
          "111333.220000",
          "111334.710000",
          "111336.200000",
          "111337.690000",
          "111339.180000",
          "111340.670000",
          "111342.160000",
          "111343.650000",
          "111345.140000",
          "111346.630000",
          "111348.120000",
          "111349.610000",
          "111351.100000",
          "111352.590000",
          "111354.080000",
          "111355.570000",
          "111357.060000",
          "111358.550000",
          "111400.040000",
          "111401.530000",
          "111403.020000",
          "111404.510000",
          "111406.000000",
          "111407.490000",
          "111408.980000",
          "111410.470000",
          "111411.960000",
          "111413.450000",
          "111414.940000",
          "111416.430000",
          "111417.920000",
          "111419.410000",
          "111420.900000",
          "111422.390000",
          "111423.880000",
          "111425.370000",
          "111426.860000",
          "111428.350000",
          "111429.840000",
          "111431.330000",
          "111432.820000",
          "111434.310000",
          "111435.800000",
          "111437.290000",
          "111438.780000",
          "111440.270000",
          "111441.760000",
          "111443.250000",
          "111444.740000",
          "111446.230000",
          "111447.720000",
          "111449.210000",
          "111450.700000",
          "111452.190000",
          "111453.680000",
          "111455.170000",
          "111456.660000",
          "111458.150000",
          "111459.640000",
          "111501.130000",
          "111502.620000",
          "111504.110000",
          "111505.600000",
          "111507.090000",
          "111508.580000",
          "111510.070000",
          "111511.560000",
          "111513.050000",
          "111514.540000",
          "111516.030000",
          "111517.520000",
          "111519.010000",
          "111520.500000",
          "111521.990000",
          "111523.480000",
          "111524.970000",
          "111526.460000",
          "111527.950000",
          "111529.440000",
          "111530.930000",
          "111532.420000",
          "111533.910000",
          "111535.400000",
          "111536.890000",
          "111538.380000",
          "111539.870000",
          "111541.360000",
          "111542.850000",
          "111544.340000",
          "111545.830000",
          "111547.320000",
          "111548.810000",
          "111550.300000",
          "111551.790000",
          "111553.280000",
          "111554.770000",
          "111556.260000",
          "111557.750000",
          "111559.240000",
          "111600.730000",
          "111602.220000",
          "111603.710000",
          "111605.200000",
          "111606.690000",
          "111608.180000",
          "111609.670000",
          "111611.160000",
          "111612.650000",
          "111614.140000",
          "111615.630000",
          "111617.120000",
          "111618.610000",
          "111620.100000",
          "111621.590000",
          "111623.080000",
          "111624.570000",
          "111626.060000",
          "111627.550000",
          "111629.040000",
          "111630.530000",
          "111632.020000",
          "111633.510000",
          "111635.000000",
          "111636.490000",
          "111637.980000",
          "111639.470000",
          "111640.960000",
          "111642.450000",
          "111643.940000",
          "111645.430000",
          "111646.920000",
          "111648.410000",
          "111649.900000",
          "111651.390000",
          "111652.880000",
          "111654.370000",
          "111655.860000",
          "111657.350000",
          "111658.840000",
          "111700.330000",
          "111701.820000",
          "111703.310000",
          "111704.800000",
          "111706.290000",
          "111707.780000",
          "111709.270000",
          "111710.760000",
          "111712.250000",
          "111713.740000",
          "111715.230000",
          "111716.720000",
          "111718.210000",
          "111719.700000",
          "111721.190000",
          "111722.680000",
          "111724.170000",
          "111725.660000",
          "111727.150000",
          "111728.640000",
          "111730.130000",
          "111731.620000",
          "111733.110000",
          "111734.600000",
          "111736.090000",
          "111737.580000",
          "111739.070000",
          "111740.560000",
          "111742.050000",
          "111743.540000",
          "111745.030000",
          "111746.520000",
          "111748.010000",
          "111749.500000",
          "111750.990000",
          "111752.480000",
          "111753.970000",
          "111755.460000",
          "111756.950000",
          "111758.440000",
          "111759.930000",
          "111801.420000",
          "111802.910000",
          "111804.400000",
          "111805.890000",
          "111807.380000",
          "111808.870000",
          "111810.360000",
          "111811.850000",
          "111813.340000",
          "111814.830000",
          "111816.320000",
          "111817.810000",
          "111819.300000",
          "111820.790000",
          "111822.280000",
          "111823.770000",
          "111825.260000",
          "111826.750000",
          "111828.240000",
          "111829.730000",
          "111831.220000",
          "111832.710000",
          "111834.200000",
          "111835.690000",
          "111837.180000",
          "111838.670000",
          "111840.160000",
          "111841.650000",
          "111843.140000",
          "111844.630000",
          "111846.120000",
          "111847.610000",
          "111849.100000",
          "111850.590000",
          "111852.080000",
          "111853.570000",
          "111855.060000",
          "111856.550000",
          "111858.040000",
          "111859.530000",
          "111901.020000",
          "111902.510000",
          "111904.000000",
          "111905.490000",
          "111906.980000",
          "111908.470000",
          "111909.960000",
          "111911.450000",
          "111912.940000",
          "111914.430000",
          "111915.920000",
          "111917.410000",
          "111918.900000",
          "111920.390000",
          "111921.880000",
          "111923.370000",
          "111924.860000",
          "111926.350000",
          "111927.840000",
          "111929.330000",
          "111930.820000",
          "111932.310000",
          "111933.800000",
          "111935.290000",
          "111936.780000",
          "111938.270000"
        ],
        "ContentTime": [
          "111055.648000",
          "111055.652000",
          "111055.655000",
          "111055.658000",
          "111055.661000",
          "111055.664000",
          "111055.667000",
          "111055.670000",
          "111055.673000",
          "111055.681000",
          "111055.684000",
          "111055.687000",
          "111055.690000",
          "111055.693000",
          "111055.696000",
          "111055.699000",
          "111055.702000",
          "111055.705000",
          "111055.708000",
          "111055.711000",
          "111055.714000",
          "111055.719000",
          "111055.722000",
          "111055.725000",
          "111055.728000",
          "111115.607000",
          "111115.610000",
          "111115.613000",
          "111115.616000",
          "111115.619000",
          "111115.622000",
          "111115.625000",
          "111115.628000",
          "111115.631000",
          "111115.634000",
          "111115.637000",
          "111115.640000",
          "111115.643000",
          "111115.645000",
          "111115.648000",
          "111115.651000",
          "111115.654000",
          "111115.657000",
          "111115.660000",
          "111115.663000",
          "111135.607000",
          "111135.610000",
          "111135.613000",
          "111135.616000",
          "111135.619000",
          "111135.622000",
          "111135.625000",
          "111135.628000",
          "111135.631000",
          "111135.634000",
          "111135.637000",
          "111135.640000",
          "111135.643000",
          "111135.646000",
          "111135.649000",
          "111135.652000",
          "111135.655000",
          "111135.659000",
          "111135.662000",
          "111135.673000",
          "111155.606000",
          "111155.609000",
          "111155.612000",
          "111155.615000",
          "111155.618000",
          "111155.621000",
          "111155.624000",
          "111155.627000",
          "111155.630000",
          "111155.633000",
          "111155.635000",
          "111155.638000",
          "111155.641000",
          "111155.644000",
          "111155.647000",
          "111155.650000",
          "111155.653000",
          "111155.656000",
          "111155.659000",
          "111155.662000",
          "111215.606000",
          "111215.609000",
          "111215.612000",
          "111215.615000",
          "111215.618000",
          "111215.621000",
          "111215.624000",
          "111215.627000",
          "111215.630000",
          "111215.633000",
          "111215.636000",
          "111215.642000",
          "111215.645000",
          "111215.648000",
          "111215.651000",
          "111215.653000",
          "111215.656000",
          "111215.659000",
          "111215.662000",
          "111215.665000",
          "111215.668000",
          "111255.621000",
          "111255.624000",
          "111255.627000",
          "111255.630000",
          "111255.633000",
          "111255.636000",
          "111255.639000",
          "111255.642000",
          "111255.645000",
          "111255.648000",
          "111255.651000",
          "111255.654000",
          "111255.657000",
          "111255.660000",
          "111255.663000",
          "111255.665000",
          "111255.668000",
          "111255.671000",
          "111255.674000",
          "111255.677000",
          "111255.680000",
          "111255.684000",
          "111255.687000",
          "111255.690000",
          "111255.698000",
          "111255.701000",
          "111255.704000",
          "111335.607000",
          "111335.610000",
          "111335.613000",
          "111335.616000",
          "111335.619000",
          "111335.622000",
          "111335.625000",
          "111335.628000",
          "111335.631000",
          "111335.634000",
          "111335.637000",
          "111335.640000",
          "111335.643000",
          "111335.646000",
          "111335.649000",
          "111335.651000",
          "111335.654000",
          "111335.657000",
          "111335.660000",
          "111335.663000",
          "111335.666000",
          "111335.669000",
          "111335.672000",
          "111335.675000",
          "111335.678000",
          "111335.681000",
          "111335.684000",
          "111415.606000",
          "111415.609000",
          "111415.612000",
          "111415.615000",
          "111415.618000",
          "111415.621000",
          "111415.624000",
          "111415.627000",
          "111415.630000",
          "111415.633000",
          "111415.636000",
          "111415.639000",
          "111415.642000",
          "111415.645000",
          "111415.648000",
          "111415.651000",
          "111415.654000",
          "111415.657000",
          "111415.659000",
          "111415.662000",
          "111415.665000",
          "111415.668000",
          "111415.671000",
          "111415.674000",
          "111415.677000",
          "111415.680000",
          "111415.683000",
          "111455.607000",
          "111455.610000",
          "111455.613000",
          "111455.616000",
          "111455.619000",
          "111455.622000",
          "111455.625000",
          "111455.628000",
          "111455.631000",
          "111455.634000",
          "111455.637000",
          "111455.640000",
          "111455.643000",
          "111455.650000",
          "111455.653000",
          "111455.656000",
          "111455.659000",
          "111455.662000",
          "111455.665000",
          "111455.668000",
          "111455.671000",
          "111455.673000",
          "111455.676000",
          "111455.679000",
          "111455.682000",
          "111455.685000",
          "111455.688000",
          "111535.607000",
          "111535.610000",
          "111535.613000",
          "111535.616000",
          "111535.619000",
          "111535.622000",
          "111535.625000",
          "111535.628000",
          "111535.631000",
          "111535.634000",
          "111535.637000",
