{
  "aor": 0.0007466084788029926,
  "aqi": 0.009960361221945137,
  "bids_meta": {
    "AcquisitionMatrixPE": 104,
    "AcquisitionNumber": 1,
    "AcquisitionTime": "11:44:19.392500",
    "BandwidthPerPixelPhaseEncode": 17.17,
    "BaseResolution": 104,
    "BodyPartExamined": "BRAIN",
    "CogAtlasID": "trm_4c898da401420",
    "ConsistencyInfo": "N4_VE11C_LATEST_20160120",
    "ConversionSoftware": "dcm2niix",
    "ConversionSoftwareVersion": "v1.0.20171215 (OpenJPEG build) GCC7.3.0",
    "DerivedVendorReportedEchoSpacing": 0.000560011,
    "DeviceSerialNumber": "167006",
    "DwellTime": 2.1e-06,
    "EchoTime": 0.037,
    "EchoTrainLength": 104,
    "EffectiveEchoSpacing": 0.000560011,
    "FlipAngle": 52,
    "ImageComments": "Unaliased_MB4_PE3_LB",
    "ImageOrientationPatientDICOM": [
      0.996997,
      0.0730888,
      0.0256041,
      -0.0653466,
      0.971382,
      -0.228356
    ],
    "ImageType": [
      "ORIGINAL",
      "PRIMARY",
      "M",
      "MB",
      "ND",
      "MOSAIC"
    ],
    "InPlanePhaseEncodingDirectionDICOM": "COL",
    "InstitutionAddress": "Chemin_Queen-Mary_4565_Montreal_District_CA_H3W_1W5",
    "InstitutionName": "IUGM",
    "InstitutionalDepartmentName": "Department",
    "MRAcquisitionType": "2D",
    "MagneticFieldStrength": 3,
    "Manufacturer": "Siemens",
    "ManufacturersModelName": "Prisma_fit",
    "Modality": "MR",
    "MultibandAccelerationFactor": 4,
    "PartialFourier": 1,
    "PatientPosition": "HFS",
    "PercentPhaseFOV": 100,
    "PhaseEncodingDirection": "j-",
    "PhaseEncodingSteps": 104,
    "PhaseResolution": 1,
    "PixelBandwidth": 2290,
    "ProcedureStepDescription": "video5_generic",
    "ProtocolName": "func_task-bourne9",
    "PulseSequenceDetails": "%CustomerSeq%_cmrr_mbep2d_bold",
    "ReceiveCoilActiveElements": "HC1-7;NC1,2",
    "ReceiveCoilName": "HeadNeck_64",
    "ReconMatrixPE": 104,
    "RepetitionTime": 1.49,
    "SAR": 0.0405021,
    "ScanOptions": "FS",
    "ScanningSequence": "EP",
    "SequenceName": "epfid2d1_104",
    "SequenceVariant": "SK_SS",
    "SeriesDescription": "func_task-bourne9",
    "SeriesNumber": 20,
    "ShimSetting": [
      624,
      -7191,
      -8834,
      675,
      100,
      54,
      3,
      0
    ],
    "SliceThickness": 2,
    "SliceTiming": [
      0,
      0.785,
      0.1,
      0.8825,
      0.1975,
      0.98,
      0.295,
      1.08,
      0.3925,
      1.1775,
      0.49,
      1.275,
      0.59,
      1.3725,
      0.6875,
      0,
      0.785,
      0.1,
      0.8825,
      0.1975,
      0.98,
      0.295,
      1.08,
      0.3925,
      1.1775,
      0.49,
      1.275,
      0.59,
      1.3725,
      0.6875,
      0,
      0.785,
      0.1,
      0.8825,
      0.1975,
      0.98,
      0.295,
      1.08,
      0.3925,
      1.1775,
      0.49,
      1.275,
      0.59,
      1.3725,
      0.6875,
      0,
      0.785,
      0.1,
      0.8825,
      0.1975,
      0.98,
      0.295,
      1.08,
      0.3925,
      1.1775,
      0.49,
      1.275,
      0.59,
      1.3725,
      0.6875
    ],
    "SoftwareVersions": "syngo_MR_E11",
    "SpacingBetweenSlices": 2,
    "StationName": "MRC35049",
    "TaskName": "bourne09",
    "TotalReadoutTime": 0.0576811,
    "TxRefAmp": 253.688,
    "dataset": "<unset>",
    "dcmmeta_affine": [
      [
        -1.9939934015274048,
        -0.1306931972503662,
        0.08312319964170456,
        110.6140365600586
      ],
      [
        -0.14617763459682465,
        1.9427645206451416,
        -0.45199328660964966,
        -56.84489822387695
      ],
      [
        0.05120817944407463,
        0.45671120285987854,
        1.9464820623397827,
        -56.52177810668945
      ],
      [
        0.0,
        0.0,
        0.0,
        1.0
      ]
    ],
    "dcmmeta_reorient_transform": [
      [
        0.0,
        -1.0,
        0.0,
        103.0
      ],
      [
        1.0,
        0.0,
        0.0,
        0.0
      ],
      [
        0.0,
        0.0,
        1.0,
        0.0
      ],
      [
        0.0,
        0.0,
        0.0,
        1.0
      ]
    ],
    "dcmmeta_shape": [
      104,
      104,
      60,
      405
    ],
    "dcmmeta_slice_dim": 2,
    "dcmmeta_version": 0.6,
    "global": {
      "const": {
        "AcquisitionMatrix": [
          104,
          0,
          0,
          104
        ],
        "AngioFlag": "N",
        "BitsAllocated": 16,
        "BitsStored": 16,
        "BodyPartExamined": "BRAIN",
        "Columns": 832,
        "EchoNumbers": 1,
        "EchoTime": 37.0,
        "EchoTrainLength": 104,
        "FlipAngle": 52.0,
        "HighBit": 15,
        "ImageOrientationPatient": [
          0.99699671795442,
          0.07308881537704,
          0.025604090589,
          -0.0653465969596,
          0.97138228280184,
          -0.2283556062909
        ],
        "ImagePositionPatient": [
          -775.39392594742,
          -903.63481086256,
          138.1225820631
        ],
        "ImageType": [
          "ORIGINAL",
          "PRIMARY",
          "M",
          "MB",
          "ND",
          "MOSAIC"
        ],
        "ImagedNucleus": "1H",
        "ImagingFrequency": 123.257997,
        "InPlanePhaseEncodingDirection": "COL",
        "MRAcquisitionType": "2D",
        "MagneticFieldStrength": 3.0,
        "Manufacturer": "SIEMENS",
        "ManufacturerModelName": "Prisma_fit",
        "Modality": "MR",
        "NumberOfAverages": 1.0,
        "NumberOfPhaseEncodingSteps": 104,
        "PercentPhaseFieldOfView": 100.0,
        "PercentSampling": 100.0,
        "PerformedProcedureStepStartTime": "105555.986000",
        "PhotometricInterpretation": "MONOCHROME2",
        "PixelBandwidth": 2290.0,
        "PixelRepresentation": 0,
        "PixelSpacing": [
          2.0,
          2.0
        ],
        "ProtocolName": "func_task-bourne9",
        "RepetitionTime": 1490.0,
        "Rows": 832,
        "SAR": 0.04050214020388,
        "SamplesPerPixel": 1,
        "ScanOptions": "FS",
        "ScanningSequence": "EP",
        "SequenceName": "epfid2d1_104",
        "SequenceVariant": [
          "SK",
          "SS"
        ],
        "SeriesDescription": "func_task-bourne9",
        "SeriesNumber": 20,
        "SeriesTime": "114535.641000",
        "SliceLocation": -37.565259923782,
        "SliceThickness": 2.0,
        "SmallestImagePixelValue": 0,
        "SoftwareVersions": "syngo MR E11",
        "SpacingBetweenSlices": 1.9999999842567,
        "SpecificCharacterSet": "ISO_IR 100",
        "StudyID": "1",
        "StudyTime": "105555.902000",
        "TransmitCoilName": "Body",
        "VariableFlipAngleFlag": "N",
        "WindowCenterWidthExplanation": "Algo1",
        "dBdt": 0.0
      },
      "slices": {}
    },
    "modality": "bold",
    "session_id": "002",
    "subject_id": "01",
    "task_id": "bourne09",
    "time": {
      "samples": {
        "AcquisitionNumber": [
          1,
          2,
          3,
          4,
          5,
          6,
          7,
          8,
          9,
          10,
          11,
          12,
          13,
          14,
          15,
          16,
          17,
          18,
          19,
          20,
          21,
          22,
          23,
          24,
          25,
          26,
          27,
          28,
          29,
          30,
          31,
          32,
          33,
          34,
          35,
          36,
          37,
          38,
          39,
          40,
          41,
          42,
          43,
          44,
          45,
          46,
          47,
          48,
          49,
          50,
          51,
          52,
          53,
          54,
          55,
          56,
          57,
          58,
          59,
          60,
          61,
          62,
          63,
          64,
          65,
          66,
          67,
          68,
          69,
          70,
          71,
          72,
          73,
          74,
          75,
          76,
          77,
          78,
          79,
          80,
          81,
          82,
          83,
          84,
          85,
          86,
          87,
          88,
          89,
          90,
          91,
          92,
          93,
          94,
          95,
          96,
          97,
          98,
          99,
          100,
          101,
          102,
          103,
          104,
          105,
          106,
          107,
          108,
          109,
          110,
          111,
          112,
          113,
          114,
          115,
          116,
          117,
          118,
          119,
          120,
          121,
          122,
          123,
          124,
          125,
          126,
          127,
          128,
          129,
          130,
          131,
          132,
          133,
          134,
          135,
          136,
          137,
          138,
          139,
          140,
          141,
          142,
          143,
          144,
          145,
          146,
          147,
          148,
          149,
          150,
          151,
          152,
          153,
          154,
          155,
          156,
          157,
          158,
          159,
          160,
          161,
          162,
          163,
          164,
          165,
          166,
          167,
          168,
          169,
          170,
          171,
          172,
          173,
          174,
          175,
          176,
          177,
          178,
          179,
          180,
          181,
          182,
          183,
          184,
          185,
          186,
          187,
          188,
          189,
          190,
          191,
          192,
          193,
          194,
          195,
          196,
          197,
          198,
          199,
          200,
          201,
          202,
          203,
          204,
          205,
          206,
          207,
          208,
          209,
          210,
          211,
          212,
          213,
          214,
          215,
          216,
          217,
          218,
          219,
          220,
          221,
          222,
          223,
          224,
          225,
          226,
          227,
          228,
          229,
          230,
          231,
          232,
          233,
          234,
          235,
          236,
          237,
          238,
          239,
          240,
          241,
          242,
          243,
          244,
          245,
          246,
          247,
          248,
          249,
          250,
          251,
          252,
          253,
          254,
          255,
          256,
          257,
          258,
          259,
          260,
          261,
          262,
          263,
          264,
          265,
          266,
          267,
          268,
          269,
          270,
          271,
          272,
          273,
          274,
          275,
          276,
          277,
          278,
          279,
          280,
          281,
          282,
          283,
          284,
          285,
          286,
          287,
          288,
          289,
          290,
          291,
          292,
          293,
          294,
          295,
          296,
          297,
          298,
          299,
          300,
          301,
          302,
          303,
          304,
          305,
          306,
          307,
          308,
          309,
          310,
          311,
          312,
          313,
          314,
          315,
          316,
          317,
          318,
          319,
          320,
          321,
          322,
          323,
          324,
          325,
          326,
          327,
          328,
          329,
          330,
          331,
          332,
          333,
          334,
          335,
          336,
          337,
          338,
          339,
          340,
          341,
          342,
          343,
          344,
          345,
          346,
          347,
          348,
          349,
          350,
          351,
          352,
          353,
          354,
          355,
          356,
          357,
          358,
          359,
          360,
          361,
          362,
          363,
          364,
          365,
          366,
          367,
          368,
          369,
          370,
          371,
          372,
          373,
          374,
          375,
          376,
          377,
          378,
          379,
          380,
          381,
          382,
          383,
          384,
          385,
          386,
          387,
          388,
          389,
          390,
          391,
          392,
          393,
          394,
          395,
          396,
          397,
          398,
          399,
          400,
          401,
          402,
          403,
          404,
          405
        ],
        "AcquisitionTime": [
          "114419.392500",
          "114420.882500",
          "114422.372500",
          "114423.862500",
          "114425.352500",
          "114426.842500",
          "114428.332500",
          "114429.822500",
          "114431.312500",
          "114432.802500",
          "114434.292500",
          "114435.782500",
          "114437.272500",
          "114438.762500",
          "114440.252500",
          "114441.742500",
          "114443.232500",
          "114444.722500",
          "114446.212500",
          "114447.702500",
          "114449.192500",
          "114450.682500",
          "114452.172500",
          "114453.662500",
          "114455.152500",
          "114456.642500",
          "114458.132500",
          "114459.622500",
          "114501.112500",
          "114502.602500",
          "114504.092500",
          "114505.582500",
          "114507.072500",
          "114508.562500",
          "114510.052500",
          "114511.542500",
          "114513.032500",
          "114514.522500",
          "114516.012500",
          "114517.502500",
          "114518.992500",
          "114520.482500",
          "114521.972500",
          "114523.462500",
          "114524.952500",
          "114526.442500",
          "114527.932500",
          "114529.422500",
          "114530.912500",
          "114532.402500",
          "114533.892500",
          "114535.382500",
          "114536.872500",
          "114538.362500",
          "114539.852500",
          "114541.342500",
          "114542.832500",
          "114544.322500",
          "114545.812500",
          "114547.302500",
          "114548.792500",
          "114550.282500",
          "114551.772500",
          "114553.262500",
          "114554.752500",
          "114556.242500",
          "114557.732500",
          "114559.222500",
          "114600.712500",
          "114602.202500",
          "114603.692500",
          "114605.182500",
          "114606.672500",
          "114608.162500",
          "114609.652500",
          "114611.142500",
          "114612.632500",
          "114614.122500",
          "114615.612500",
          "114617.102500",
          "114618.592500",
          "114620.082500",
          "114621.572500",
          "114623.062500",
          "114624.552500",
          "114626.042500",
          "114627.532500",
          "114629.022500",
          "114630.512500",
          "114632.002500",
          "114633.492500",
          "114634.982500",
          "114636.472500",
          "114637.962500",
          "114639.452500",
          "114640.942500",
          "114642.432500",
          "114643.922500",
          "114645.412500",
          "114646.902500",
          "114648.392500",
          "114649.882500",
          "114651.372500",
          "114652.862500",
          "114654.352500",
          "114655.842500",
          "114657.332500",
          "114658.822500",
          "114700.312500",
          "114701.802500",
          "114703.292500",
          "114704.782500",
          "114706.272500",
          "114707.762500",
          "114709.252500",
          "114710.742500",
          "114712.232500",
          "114713.722500",
          "114715.212500",
          "114716.702500",
          "114718.192500",
          "114719.682500",
          "114721.172500",
          "114722.662500",
          "114724.152500",
          "114725.642500",
          "114727.132500",
          "114728.622500",
          "114730.112500",
          "114731.602500",
          "114733.092500",
          "114734.582500",
          "114736.072500",
          "114737.562500",
          "114739.052500",
          "114740.542500",
          "114742.032500",
          "114743.522500",
          "114745.012500",
          "114746.502500",
          "114747.992500",
          "114749.482500",
          "114750.972500",
          "114752.462500",
          "114753.952500",
          "114755.442500",
          "114756.932500",
          "114758.422500",
          "114759.912500",
          "114801.402500",
          "114802.892500",
          "114804.382500",
          "114805.872500",
          "114807.362500",
          "114808.852500",
          "114810.342500",
          "114811.832500",
          "114813.322500",
          "114814.812500",
          "114816.302500",
          "114817.792500",
          "114819.282500",
          "114820.772500",
          "114822.262500",
          "114823.752500",
          "114825.242500",
          "114826.732500",
          "114828.222500",
          "114829.712500",
          "114831.202500",
          "114832.692500",
          "114834.182500",
          "114835.672500",
          "114837.162500",
          "114838.652500",
          "114840.142500",
          "114841.632500",
          "114843.122500",
          "114844.612500",
          "114846.102500",
          "114847.592500",
          "114849.082500",
          "114850.572500",
          "114852.062500",
          "114853.552500",
          "114855.042500",
          "114856.532500",
          "114858.022500",
          "114859.512500",
          "114901.002500",
          "114902.492500",
          "114903.982500",
          "114905.472500",
          "114906.962500",
          "114908.452500",
          "114909.942500",
          "114911.432500",
          "114912.922500",
          "114914.412500",
          "114915.902500",
          "114917.392500",
          "114918.882500",
          "114920.372500",
          "114921.862500",
          "114923.352500",
          "114924.842500",
          "114926.332500",
          "114927.822500",
          "114929.312500",
          "114930.802500",
          "114932.292500",
          "114933.782500",
          "114935.272500",
          "114936.762500",
          "114938.252500",
          "114939.742500",
          "114941.232500",
          "114942.722500",
          "114944.212500",
          "114945.702500",
          "114947.192500",
          "114948.682500",
          "114950.172500",
          "114951.662500",
          "114953.152500",
          "114954.642500",
          "114956.132500",
          "114957.622500",
          "114959.112500",
          "115000.602500",
          "115002.092500",
          "115003.582500",
          "115005.072500",
          "115006.562500",
          "115008.052500",
          "115009.542500",
          "115011.032500",
          "115012.522500",
          "115014.012500",
          "115015.502500",
          "115016.992500",
          "115018.482500",
          "115019.972500",
          "115021.462500",
          "115022.952500",
          "115024.442500",
          "115025.932500",
          "115027.422500",
          "115028.912500",
          "115030.402500",
          "115031.892500",
          "115033.382500",
          "115034.872500",
          "115036.362500",
          "115037.852500",
          "115039.342500",
          "115040.832500",
          "115042.322500",
          "115043.812500",
          "115045.302500",
          "115046.792500",
          "115048.282500",
          "115049.772500",
          "115051.262500",
          "115052.752500",
          "115054.242500",
          "115055.732500",
          "115057.222500",
          "115058.712500",
          "115100.202500",
          "115101.692500",
          "115103.182500",
          "115104.672500",
          "115106.162500",
          "115107.652500",
          "115109.142500",
          "115110.632500",
          "115112.122500",
          "115113.612500",
          "115115.102500",
          "115116.592500",
          "115118.082500",
          "115119.572500",
          "115121.062500",
          "115122.552500",
          "115124.042500",
          "115125.532500",
          "115127.022500",
          "115128.512500",
          "115130.002500",
          "115131.492500",
          "115132.982500",
          "115134.472500",
          "115135.962500",
          "115137.452500",
          "115138.942500",
          "115140.432500",
          "115141.922500",
          "115143.412500",
          "115144.902500",
          "115146.392500",
          "115147.882500",
          "115149.372500",
          "115150.862500",
          "115152.352500",
          "115153.842500",
          "115155.332500",
          "115156.822500",
          "115158.312500",
          "115159.802500",
          "115201.292500",
          "115202.782500",
          "115204.272500",
          "115205.762500",
          "115207.252500",
          "115208.742500",
          "115210.232500",
          "115211.722500",
          "115213.212500",
          "115214.702500",
          "115216.192500",
          "115217.682500",
          "115219.172500",
          "115220.662500",
          "115222.152500",
          "115223.642500",
          "115225.132500",
          "115226.622500",
          "115228.112500",
          "115229.602500",
          "115231.092500",
          "115232.582500",
          "115234.072500",
          "115235.562500",
          "115237.052500",
          "115238.542500",
          "115240.032500",
          "115241.522500",
          "115243.012500",
          "115244.502500",
          "115245.992500",
          "115247.482500",
          "115248.972500",
          "115250.462500",
          "115251.952500",
          "115253.442500",
          "115254.932500",
          "115256.422500",
          "115257.912500",
          "115259.402500",
          "115300.892500",
          "115302.382500",
          "115303.872500",
          "115305.362500",
          "115306.852500",
          "115308.342500",
          "115309.832500",
          "115311.322500",
          "115312.812500",
          "115314.302500",
          "115315.792500",
          "115317.282500",
          "115318.772500",
          "115320.262500",
          "115321.752500",
          "115323.242500",
          "115324.732500",
          "115326.222500",
          "115327.712500",
          "115329.202500",
          "115330.692500",
          "115332.182500",
          "115333.672500",
          "115335.162500",
          "115336.652500",
          "115338.142500",
          "115339.632500",
          "115341.122500",
          "115342.612500",
          "115344.102500",
          "115345.592500",
          "115347.082500",
          "115348.572500",
          "115350.062500",
          "115351.552500",
          "115353.042500",
          "115354.532500",
          "115356.022500",
          "115357.512500",
          "115359.002500",
          "115400.492500",
          "115401.982500",
          "115403.472500",
          "115404.962500",
          "115406.452500",
          "115407.942500",
          "115409.432500",
          "115410.922500",
          "115412.412500",
          "115413.902500",
          "115415.392500",
          "115416.882500",
          "115418.372500",
          "115419.862500",
          "115421.352500"
        ],
        "ContentTime": [
          "114535.645000",
          "114535.648000",
          "114535.651000",
          "114535.654000",
          "114535.657000",
          "114535.660000",
          "114535.663000",
          "114535.666000",
          "114535.669000",
          "114535.673000",
          "114535.676000",
          "114535.679000",
          "114535.682000",
          "114535.692000",
          "114535.695000",
          "114535.698000",
          "114535.701000",
          "114535.704000",
          "114535.707000",
          "114535.710000",
          "114535.713000",
          "114535.716000",
          "114555.607000",
          "114555.610000",
          "114555.613000",
          "114555.616000",
          "114555.619000",
          "114555.622000",
          "114555.625000",
          "114555.628000",
          "114555.631000",
          "114555.634000",
          "114555.637000",
          "114555.640000",
          "114555.643000",
          "114555.646000",
          "114555.649000",
          "114555.652000",
          "114555.656000",
          "114555.658000",
          "114555.661000",
          "114555.664000",
          "114615.607000",
          "114615.610000",
          "114615.613000",
          "114615.616000",
          "114615.619000",
          "114615.622000",
          "114615.625000",
          "114615.639000",
          "114615.642000",
          "114615.645000",
          "114615.648000",
          "114615.651000",
          "114615.654000",
          "114615.657000",
          "114615.660000",
          "114615.663000",
          "114615.666000",
          "114615.676000",
          "114615.679000",
          "114615.682000",
          "114615.684000",
          "114635.606000",
          "114635.609000",
          "114635.612000",
          "114635.615000",
          "114635.618000",
          "114635.621000",
          "114635.624000",
          "114635.627000",
          "114635.630000",
          "114635.633000",
          "114635.636000",
          "114635.639000",
          "114635.642000",
          "114635.645000",
          "114635.649000",
          "114635.652000",
          "114635.655000",
          "114635.658000",
          "114635.661000",
          "114635.675000",
          "114655.606000",
          "114655.609000",
          "114655.612000",
          "114655.615000",
          "114655.618000",
          "114655.621000",
          "114655.624000",
          "114655.637000",
          "114655.641000",
          "114655.644000",
          "114655.647000",
          "114655.650000",
          "114655.652000",
          "114655.655000",
          "114655.658000",
          "114655.661000",
          "114655.664000",
          "114655.667000",
          "114655.670000",
          "114655.673000",
          "114735.607000",
          "114735.610000",
          "114735.613000",
          "114735.616000",
          "114735.619000",
          "114735.622000",
          "114735.625000",
          "114735.628000",
          "114735.631000",
          "114735.634000",
          "114735.637000",
          "114735.640000",
          "114735.643000",
          "114735.646000",
          "114735.649000",
          "114735.652000",
          "114735.655000",
          "114735.658000",
          "114735.661000",
          "114735.664000",
          "114735.667000",
          "114735.670000",
          "114735.673000",
          "114735.676000",
          "114735.679000",
          "114735.688000",
          "114735.691000",
          "114735.694000",
          "114815.607000",
          "114815.610000",
          "114815.613000",
          "114815.616000",
          "114815.619000",
          "114815.622000",
          "114815.625000",
          "114815.628000",
          "114815.631000",
          "114815.634000",
          "114815.637000",
          "114815.640000",
          "114815.643000",
          "114815.646000",
          "114815.649000",
          "114815.652000",
          "114815.655000",
          "114815.658000",
          "114815.661000",
          "114815.664000",
          "114815.667000",
          "114815.670000",
          "114815.673000",
          "114815.676000",
          "114815.679000",
          "114815.682000",
          "114815.685000",
          "114855.606000",
          "114855.609000",
          "114855.612000",
          "114855.615000",
          "114855.618000",
          "114855.621000",
          "114855.624000",
          "114855.627000",
          "114855.630000",
          "114855.633000",
          "114855.636000",
          "114855.639000",
          "114855.642000",
          "114855.645000",
          "114855.648000",
          "114855.651000",
          "114855.654000",
          "114855.657000",
          "114855.660000",
          "114855.663000",
          "114855.666000",
          "114855.669000",
          "114855.672000",
          "114855.675000",
          "114855.678000",
          "114855.681000",
          "114855.684000",
          "114935.607000",
          "114935.610000",
          "114935.613000",
          "114935.617000",
          "114935.620000",
          "114935.623000",
          "114935.626000",
          "114935.629000",
          "114935.632000",
          "114935.634000",
          "114935.638000",
          "114935.641000",
          "114935.643000",
          "114935.647000",
          "114935.650000",
          "114935.653000",
          "114935.655000",
          "114935.658000",
          "114935.661000",
          "114935.664000",
          "114935.667000",
          "114935.670000",
          "114935.673000",
          "114935.677000",
          "114935.680000",
          "114935.683000",
          "115015.607000",
          "115015.610000",
          "115015.613000",
          "115015.616000",
          "115015.619000",
          "115015.622000",
          "115015.625000",
          "115015.628000",
          "115015.631000",
          "115015.634000",
          "115015.637000",
          "115015.640000",
          "115015.643000",
          "115015.646000",
          "115015.649000",
