{
  "aor": 0.00032341463414634145,
  "aqi": 0.00493808,
  "bids_meta": {
    "AcquisitionMatrixPE": 104,
    "AcquisitionNumber": 1,
    "AcquisitionTime": "09:32:42.045000",
    "BandwidthPerPixelPhaseEncode": 17.17,
    "BaseResolution": 104,
    "BodyPartExamined": "BRAIN",
    "CogAtlasID": "trm_4c898da401420",
    "ConsistencyInfo": "N4_VE11C_LATEST_20160120",
    "ConversionSoftware": "dcm2niix",
    "ConversionSoftwareVersion": "v1.0.20171215 (OpenJPEG build) GCC7.3.0",
    "DerivedVendorReportedEchoSpacing": 0.000560011,
    "DeviceSerialNumber": "167006",
    "DwellTime": 2.1e-06,
    "EchoTime": 0.037,
    "EchoTrainLength": 104,
    "EffectiveEchoSpacing": 0.000560011,
    "FlipAngle": 52,
    "ImageComments": "Unaliased_MB4_PE3_LB",
    "ImageOrientationPatientDICOM": [
      0.999808,
      0.017551,
      0.00868549,
      -0.0143099,
      0.957589,
      -0.287781
    ],
    "ImageType": [
      "ORIGINAL",
      "PRIMARY",
      "M",
      "MB",
      "ND",
      "MOSAIC"
    ],
    "InPlanePhaseEncodingDirectionDICOM": "COL",
    "InstitutionAddress": "Chemin_Queen-Mary_4565_Montreal_District_CA_H3W_1W5",
    "InstitutionName": "IUGM",
    "InstitutionalDepartmentName": "Department",
    "MRAcquisitionType": "2D",
    "MagneticFieldStrength": 3,
    "Manufacturer": "Siemens",
    "ManufacturersModelName": "Prisma_fit",
    "Modality": "MR",
    "MultibandAccelerationFactor": 4,
    "PartialFourier": 1,
    "PatientPosition": "HFS",
    "PercentPhaseFOV": 100,
    "PhaseEncodingDirection": "j-",
    "PhaseEncodingSteps": 104,
    "PhaseResolution": 1,
    "PixelBandwidth": 2290,
    "ProcedureStepDescription": "video5_generic",
    "ProtocolName": "func_task-figures8",
    "PulseSequenceDetails": "%CustomerSeq%_cmrr_mbep2d_bold",
    "ReceiveCoilActiveElements": "HC1-7;NC1,2",
    "ReceiveCoilName": "HeadNeck_64",
    "ReconMatrixPE": 104,
    "RepetitionTime": 1.49,
    "SAR": 0.0300658,
    "ScanOptions": "FS",
    "ScanningSequence": "EP",
    "SequenceName": "epfid2d1_104",
    "SequenceVariant": "SK_SS",
    "SeriesDescription": "func_task-figures8",
    "SeriesNumber": 9,
    "ShimSetting": [
      633,
      -7198,
      -8802,
      623,
      38,
      28,
      0,
      -23
    ],
    "SliceThickness": 2,
    "SliceTiming": [
      0,
      0.785,
      0.1,
      0.8825,
      0.1975,
      0.98,
      0.295,
      1.08,
      0.3925,
      1.1775,
      0.49,
      1.275,
      0.59,
      1.3725,
      0.6875,
      0,
      0.785,
      0.1,
      0.8825,
      0.1975,
      0.98,
      0.295,
      1.08,
      0.3925,
      1.1775,
      0.49,
      1.275,
      0.59,
      1.3725,
      0.6875,
      0,
      0.785,
      0.1,
      0.8825,
      0.1975,
      0.98,
      0.295,
      1.08,
      0.3925,
      1.1775,
      0.49,
      1.275,
      0.59,
      1.3725,
      0.6875,
      0,
      0.785,
      0.1,
      0.8825,
      0.1975,
      0.98,
      0.295,
      1.08,
      0.3925,
      1.1775,
      0.49,
      1.275,
      0.59,
      1.3725,
      0.6875
    ],
    "SoftwareVersions": "syngo_MR_E11",
    "SpacingBetweenSlices": 2,
    "StationName": "MRC35049",
    "TaskName": "figures08",
    "TotalReadoutTime": 0.0576811,
    "TxRefAmp": 208.095,
    "dataset": "<unset>",
    "dcmmeta_affine": [
      [
        -1.9996165037155151,
        -0.02861982397735119,
        0.026735981926321983,
        109.04267120361328
      ],
      [
        -0.035102080553770065,
        1.9151785373687744,
        -0.5752032995223999,
        -68.02671813964844
      ],
      [
        0.017370982095599174,
        0.5755622386932373,
        1.915313720703125,
        -55.45438766479492
      ],
      [
        0.0,
        0.0,
        0.0,
        1.0
      ]
    ],
    "dcmmeta_reorient_transform": [
      [
        0.0,
        -1.0,
        0.0,
        103.0
      ],
      [
        1.0,
        0.0,
        0.0,
        0.0
      ],
      [
        0.0,
        0.0,
        1.0,
        0.0
      ],
      [
        0.0,
        0.0,
        0.0,
        1.0
      ]
    ],
    "dcmmeta_shape": [
      104,
      104,
      60,
      410
    ],
    "dcmmeta_slice_dim": 2,
    "dcmmeta_version": 0.6,
    "global": {
      "const": {
        "AcquisitionMatrix": [
          104,
          0,
          0,
          104
        ],
        "AngioFlag": "N",
        "BitsAllocated": 16,
        "BitsStored": 16,
        "BodyPartExamined": "BRAIN",
        "Columns": 832,
        "EchoNumbers": 1,
        "EchoTime": 37.0,
        "EchoTrainLength": 104,
        "FlipAngle": 52.0,
        "HighBit": 15,
        "ImageOrientationPatient": [
          0.99980824323119,
          0.0175510402969,
          0.00868549085859,
          -0.0143099121764,
          0.95758929647315,
          -0.2877811072561
        ],
        "ImagePositionPatient": [
          -823.53761517786,
          -839.13883889751,
          207.01012890781
        ],
        "ImageType": [
          "ORIGINAL",
          "PRIMARY",
          "M",
          "MB",
          "ND",
          "MOSAIC"
        ],
        "ImagedNucleus": "1H",
        "ImagingFrequency": 123.259506,
        "InPlanePhaseEncodingDirection": "COL",
        "MRAcquisitionType": "2D",
        "MagneticFieldStrength": 3.0,
        "Manufacturer": "SIEMENS",
        "ManufacturerModelName": "Prisma_fit",
        "Modality": "MR",
        "NumberOfAverages": 1.0,
        "NumberOfPhaseEncodingSteps": 104,
        "PercentPhaseFieldOfView": 100.0,
        "PercentSampling": 100.0,
        "PerformedProcedureStepStartTime": "090603.047000",
        "PhotometricInterpretation": "MONOCHROME2",
        "PixelBandwidth": 2290.0,
        "PixelRepresentation": 0,
        "PixelSpacing": [
          2.0,
          2.0
        ],
        "ProtocolName": "func_task-figures8",
        "RepetitionTime": 1490.0,
        "Rows": 832,
        "SAR": 0.03006582518315,
        "SamplesPerPixel": 1,
        "ScanOptions": "FS",
        "ScanningSequence": "EP",
        "SequenceName": "epfid2d1_104",
        "SequenceVariant": [
          "SK",
          "SS"
        ],
        "SeriesDescription": "func_task-figures8",
        "SeriesNumber": 9,
        "SeriesTime": "093359.431000",
        "SliceLocation": -32.083995425385,
        "SliceThickness": 2.0,
        "SmallestImagePixelValue": 0,
        "SoftwareVersions": "syngo MR E11",
        "SpacingBetweenSlices": 2.0000000336672,
        "SpecificCharacterSet": "ISO_IR 100",
        "StudyID": "1",
        "StudyTime": "090602.939000",
        "TransmitCoilName": "Body",
        "VariableFlipAngleFlag": "N",
        "WindowCenterWidthExplanation": "Algo1",
        "dBdt": 0.0
      },
      "slices": {}
    },
    "modality": "bold",
    "run_id": 1,
    "session_id": "009",
    "subject_id": "03",
    "task_id": "figures08",
    "time": {
      "samples": {
        "AcquisitionNumber": [
          1,
          2,
          3,
          4,
          5,
          6,
          7,
          8,
          9,
          10,
          11,
          12,
          13,
          14,
          15,
          16,
          17,
          18,
          19,
          20,
          21,
          22,
          23,
          24,
          25,
          26,
          27,
          28,
          29,
          30,
          31,
          32,
          33,
          34,
          35,
          36,
          37,
          38,
          39,
          40,
          41,
          42,
          43,
          44,
          45,
          46,
          47,
          48,
          49,
          50,
          51,
          52,
          53,
          54,
          55,
          56,
          57,
          58,
          59,
          60,
          61,
          62,
          63,
          64,
          65,
          66,
          67,
          68,
          69,
          70,
          71,
          72,
          73,
          74,
          75,
          76,
          77,
          78,
          79,
          80,
          81,
          82,
          83,
          84,
          85,
          86,
          87,
          88,
          89,
          90,
          91,
          92,
          93,
          94,
          95,
          96,
          97,
          98,
          99,
          100,
          101,
          102,
          103,
          104,
          105,
          106,
          107,
          108,
          109,
          110,
          111,
          112,
          113,
          114,
          115,
          116,
          117,
          118,
          119,
          120,
          121,
          122,
          123,
          124,
          125,
          126,
          127,
          128,
          129,
          130,
          131,
          132,
          133,
          134,
          135,
          136,
          137,
          138,
          139,
          140,
          141,
          142,
          143,
          144,
          145,
          146,
          147,
          148,
          149,
          150,
          151,
          152,
          153,
          154,
          155,
          156,
          157,
          158,
          159,
          160,
          161,
          162,
          163,
          164,
          165,
          166,
          167,
          168,
          169,
          170,
          171,
          172,
          173,
          174,
          175,
          176,
          177,
          178,
          179,
          180,
          181,
          182,
          183,
          184,
          185,
          186,
          187,
          188,
          189,
          190,
          191,
          192,
          193,
          194,
          195,
          196,
          197,
          198,
          199,
          200,
          201,
          202,
          203,
          204,
          205,
          206,
          207,
          208,
          209,
          210,
          211,
          212,
          213,
          214,
          215,
          216,
          217,
          218,
          219,
          220,
          221,
          222,
          223,
          224,
          225,
          226,
          227,
          228,
          229,
          230,
          231,
          232,
          233,
          234,
          235,
          236,
          237,
          238,
          239,
          240,
          241,
          242,
          243,
          244,
          245,
          246,
          247,
          248,
          249,
          250,
          251,
          252,
          253,
          254,
          255,
          256,
          257,
          258,
          259,
          260,
          261,
          262,
          263,
          264,
          265,
          266,
          267,
          268,
          269,
          270,
          271,
          272,
          273,
          274,
          275,
          276,
          277,
          278,
          279,
          280,
          281,
          282,
          283,
          284,
          285,
          286,
          287,
          288,
          289,
          290,
          291,
          292,
          293,
          294,
          295,
          296,
          297,
          298,
          299,
          300,
          301,
          302,
          303,
          304,
          305,
          306,
          307,
          308,
          309,
          310,
          311,
          312,
          313,
          314,
          315,
          316,
          317,
          318,
          319,
          320,
          321,
          322,
          323,
          324,
          325,
          326,
          327,
          328,
          329,
          330,
          331,
          332,
          333,
          334,
          335,
          336,
          337,
          338,
          339,
          340,
          341,
          342,
          343,
          344,
          345,
          346,
          347,
          348,
          349,
          350,
          351,
          352,
          353,
          354,
          355,
          356,
          357,
          358,
          359,
          360,
          361,
          362,
          363,
          364,
          365,
          366,
          367,
          368,
          369,
          370,
          371,
          372,
          373,
          374,
          375,
          376,
          377,
          378,
          379,
          380,
          381,
          382,
          383,
          384,
          385,
          386,
          387,
          388,
          389,
          390,
          391,
          392,
          393,
          394,
          395,
          396,
          397,
          398,
          399,
          400,
          401,
          402,
          403,
          404,
          405,
          406,
          407,
          408,
          409,
          410
        ],
        "AcquisitionTime": [
          "093242.045000",
          "093243.535000",
          "093245.025000",
          "093246.515000",
          "093248.005000",
          "093249.495000",
          "093250.985000",
          "093252.475000",
          "093253.965000",
          "093255.455000",
          "093256.945000",
          "093258.435000",
          "093259.925000",
          "093301.415000",
          "093302.905000",
          "093304.395000",
          "093305.885000",
          "093307.375000",
          "093308.865000",
          "093310.355000",
          "093311.845000",
          "093313.335000",
          "093314.825000",
          "093316.315000",
          "093317.805000",
          "093319.295000",
          "093320.785000",
          "093322.275000",
          "093323.765000",
          "093325.255000",
          "093326.745000",
          "093328.235000",
          "093329.725000",
          "093331.215000",
          "093332.705000",
          "093334.195000",
          "093335.685000",
          "093337.175000",
          "093338.665000",
          "093340.155000",
          "093341.645000",
          "093343.135000",
          "093344.625000",
          "093346.115000",
          "093347.605000",
          "093349.095000",
          "093350.585000",
          "093352.075000",
          "093353.565000",
          "093355.055000",
          "093356.545000",
          "093358.035000",
          "093359.525000",
          "093401.015000",
          "093402.505000",
          "093403.995000",
          "093405.485000",
          "093406.975000",
          "093408.465000",
          "093409.955000",
          "093411.445000",
          "093412.935000",
          "093414.425000",
          "093415.915000",
          "093417.405000",
          "093418.895000",
          "093420.385000",
          "093421.875000",
          "093423.365000",
          "093424.855000",
          "093426.345000",
          "093427.835000",
          "093429.325000",
          "093430.815000",
          "093432.305000",
          "093433.795000",
          "093435.285000",
          "093436.775000",
          "093438.265000",
          "093439.755000",
          "093441.245000",
          "093442.735000",
          "093444.225000",
          "093445.715000",
          "093447.205000",
          "093448.695000",
          "093450.185000",
          "093451.675000",
          "093453.165000",
          "093454.655000",
          "093456.145000",
          "093457.635000",
          "093459.125000",
          "093500.615000",
          "093502.105000",
          "093503.595000",
          "093505.085000",
          "093506.575000",
          "093508.065000",
          "093509.555000",
          "093511.045000",
          "093512.535000",
          "093514.025000",
          "093515.515000",
          "093517.005000",
          "093518.495000",
          "093519.985000",
          "093521.475000",
          "093522.965000",
          "093524.455000",
          "093525.945000",
          "093527.435000",
          "093528.925000",
          "093530.415000",
          "093531.905000",
          "093533.395000",
          "093534.885000",
          "093536.375000",
          "093537.865000",
          "093539.355000",
          "093540.845000",
          "093542.335000",
          "093543.825000",
          "093545.315000",
          "093546.805000",
          "093548.295000",
          "093549.785000",
          "093551.275000",
          "093552.765000",
          "093554.255000",
          "093555.745000",
          "093557.235000",
          "093558.725000",
          "093600.215000",
          "093601.705000",
          "093603.195000",
          "093604.685000",
          "093606.175000",
          "093607.665000",
          "093609.155000",
          "093610.645000",
          "093612.135000",
          "093613.625000",
          "093615.115000",
          "093616.605000",
          "093618.095000",
          "093619.585000",
          "093621.075000",
          "093622.565000",
          "093624.055000",
          "093625.545000",
          "093627.035000",
          "093628.525000",
          "093630.015000",
          "093631.505000",
          "093632.995000",
          "093634.485000",
          "093635.975000",
          "093637.465000",
          "093638.955000",
          "093640.445000",
          "093641.935000",
          "093643.425000",
          "093644.915000",
          "093646.405000",
          "093647.895000",
          "093649.385000",
          "093650.875000",
          "093652.365000",
          "093653.855000",
          "093655.345000",
          "093656.835000",
          "093658.325000",
          "093659.815000",
          "093701.305000",
          "093702.795000",
          "093704.285000",
          "093705.775000",
          "093707.265000",
          "093708.755000",
          "093710.245000",
          "093711.735000",
          "093713.225000",
          "093714.715000",
          "093716.205000",
          "093717.695000",
          "093719.185000",
          "093720.675000",
          "093722.165000",
          "093723.655000",
          "093725.145000",
          "093726.635000",
          "093728.125000",
          "093729.615000",
          "093731.105000",
          "093732.595000",
          "093734.085000",
          "093735.575000",
          "093737.065000",
          "093738.555000",
          "093740.045000",
          "093741.535000",
          "093743.025000",
          "093744.515000",
          "093746.005000",
          "093747.495000",
          "093748.985000",
          "093750.475000",
          "093751.965000",
          "093753.455000",
          "093754.945000",
          "093756.435000",
          "093757.925000",
          "093759.415000",
          "093800.905000",
          "093802.395000",
          "093803.885000",
          "093805.375000",
          "093806.865000",
          "093808.355000",
          "093809.845000",
          "093811.335000",
          "093812.825000",
          "093814.315000",
          "093815.805000",
          "093817.295000",
          "093818.785000",
          "093820.275000",
          "093821.765000",
          "093823.255000",
          "093824.745000",
          "093826.235000",
          "093827.725000",
          "093829.215000",
          "093830.705000",
          "093832.195000",
          "093833.685000",
          "093835.175000",
          "093836.665000",
          "093838.155000",
          "093839.645000",
          "093841.135000",
          "093842.625000",
          "093844.115000",
          "093845.605000",
          "093847.095000",
          "093848.585000",
          "093850.075000",
          "093851.565000",
          "093853.055000",
          "093854.545000",
          "093856.035000",
          "093857.525000",
          "093859.015000",
          "093900.505000",
          "093901.995000",
          "093903.485000",
          "093904.975000",
          "093906.465000",
          "093907.955000",
          "093909.445000",
          "093910.935000",
          "093912.425000",
          "093913.915000",
          "093915.405000",
          "093916.895000",
          "093918.385000",
          "093919.875000",
          "093921.365000",
          "093922.855000",
          "093924.345000",
          "093925.835000",
          "093927.325000",
          "093928.815000",
          "093930.305000",
          "093931.795000",
          "093933.285000",
          "093934.775000",
          "093936.265000",
          "093937.755000",
          "093939.245000",
          "093940.735000",
          "093942.225000",
          "093943.715000",
          "093945.205000",
          "093946.695000",
          "093948.185000",
          "093949.675000",
          "093951.165000",
          "093952.655000",
          "093954.145000",
          "093955.635000",
          "093957.125000",
          "093958.615000",
          "094000.105000",
          "094001.595000",
          "094003.085000",
          "094004.575000",
          "094006.065000",
          "094007.555000",
          "094009.045000",
          "094010.535000",
          "094012.025000",
          "094013.515000",
          "094015.005000",
          "094016.495000",
          "094017.985000",
          "094019.475000",
          "094020.965000",
          "094022.455000",
          "094023.945000",
          "094025.435000",
          "094026.925000",
          "094028.415000",
          "094029.905000",
          "094031.395000",
          "094032.885000",
          "094034.375000",
          "094035.865000",
          "094037.355000",
          "094038.845000",
          "094040.335000",
          "094041.825000",
          "094043.315000",
          "094044.805000",
          "094046.295000",
          "094047.785000",
          "094049.275000",
          "094050.765000",
          "094052.255000",
          "094053.745000",
          "094055.235000",
          "094056.725000",
          "094058.215000",
          "094059.705000",
          "094101.195000",
          "094102.685000",
          "094104.175000",
          "094105.665000",
          "094107.155000",
          "094108.645000",
          "094110.135000",
          "094111.625000",
          "094113.115000",
          "094114.605000",
          "094116.095000",
          "094117.585000",
          "094119.075000",
          "094120.565000",
          "094122.055000",
          "094123.545000",
          "094125.035000",
          "094126.525000",
          "094128.015000",
          "094129.505000",
          "094130.995000",
          "094132.485000",
          "094133.975000",
          "094135.465000",
          "094136.955000",
          "094138.445000",
          "094139.935000",
          "094141.425000",
          "094142.915000",
          "094144.405000",
          "094145.895000",
          "094147.385000",
          "094148.875000",
          "094150.365000",
          "094151.855000",
          "094153.345000",
          "094154.835000",
          "094156.325000",
          "094157.815000",
          "094159.305000",
          "094200.795000",
          "094202.285000",
          "094203.775000",
          "094205.265000",
          "094206.755000",
          "094208.245000",
          "094209.735000",
          "094211.225000",
          "094212.715000",
          "094214.205000",
          "094215.695000",
          "094217.185000",
          "094218.675000",
          "094220.165000",
          "094221.655000",
          "094223.145000",
          "094224.635000",
          "094226.125000",
          "094227.615000",
          "094229.105000",
          "094230.595000",
          "094232.085000",
          "094233.575000",
          "094235.065000",
          "094236.555000",
          "094238.045000",
          "094239.535000",
          "094241.025000",
          "094242.515000",
          "094244.005000",
          "094245.495000",
          "094246.985000",
          "094248.475000",
          "094249.965000",
          "094251.455000"
        ],
        "ContentTime": [
          "093359.434000",
          "093359.437000",
          "093359.441000",
          "093359.444000",
          "093359.447000",
          "093359.449000",
          "093359.452000",
          "093359.455000",
          "093359.458000",
          "093359.461000",
          "093359.470000",
          "093359.473000",
          "093359.476000",
          "093359.479000",
          "093359.482000",
          "093359.485000",
          "093359.487000",
          "093359.490000",
          "093359.498000",
          "093359.501000",
          "093359.504000",
          "093359.507000",
          "093359.510000",
          "093359.512000",
          "093419.420000",
          "093419.423000",
          "093419.426000",
          "093419.434000",
          "093419.437000",
          "093419.440000",
          "093419.443000",
          "093419.446000",
          "093419.448000",
          "093419.451000",
          "093419.454000",
          "093419.457000",
          "093419.460000",
          "093419.463000",
          "093419.466000",
          "093419.469000",
          "093419.471000",
          "093419.474000",
          "093419.477000",
          "093419.480000",
          "093439.407000",
          "093439.410000",
          "093439.413000",
          "093439.416000",
          "093439.418000",
          "093439.421000",
          "093439.424000",
          "093439.427000",
          "093439.430000",
          "093439.432000",
          "093439.435000",
          "093439.438000",
          "093439.441000",
          "093439.444000",
          "093439.453000",
          "093439.455000",
          "093439.458000",
          "093439.461000",
          "093439.470000",
          "093439.473000",
          "093459.407000",
          "093459.410000",
          "093459.413000",
          "093459.416000",
          "093459.418000",
          "093459.421000",
          "093459.424000",
          "093459.427000",
          "093459.430000",
          "093459.433000",
          "093459.435000",
          "093459.438000",
          "093459.441000",
          "093459.444000",
          "093459.447000",
          "093459.450000",
          "093459.452000",
          "093459.455000",
          "093459.459000",
          "093459.463000",
          "093519.406000",
          "093519.409000",
          "093519.412000",
          "093519.414000",
          "093519.417000",
          "093519.420000",
          "093519.423000",
          "093519.426000",
          "093519.429000",
          "093519.431000",
          "093519.434000",
          "093519.437000",
          "093519.440000",
          "093519.443000",
          "093519.445000",
          "093519.448000",
          "093519.451000",
          "093519.454000",
          "093519.457000",
          "093519.459000",
          "093519.462000",
          "093559.407000",
          "093559.410000",
          "093559.413000",
          "093559.415000",
          "093559.418000",
          "093559.421000",
          "093559.424000",
          "093559.427000",
          "093559.430000",
          "093559.432000",
          "093559.444000",
          "093559.447000",
          "093559.450000",
          "093559.453000",
          "093559.455000",
          "093559.458000",
          "093559.461000",
          "093559.464000",
          "093559.467000",
          "093559.470000",
          "093559.473000",
          "093559.475000",
          "093559.478000",
          "093559.481000",
          "093559.484000",
          "093559.487000",
          "093559.490000",
          "093639.407000",
          "093639.410000",
          "093639.421000",
          "093639.424000",
          "093639.426000",
          "093639.429000",
          "093639.432000",
          "093639.435000",
          "093639.438000",
          "093639.441000",
          "093639.444000",
          "093639.446000",
          "093639.449000",
          "093639.452000",
          "093639.455000",
          "093639.458000",
          "093639.461000",
          "093639.463000",
          "093639.466000",
          "093639.470000",
          "093639.473000",
          "093639.476000",
          "093639.479000",
          "093639.482000",
          "093639.485000",
          "093639.487000",
          "093719.407000",
          "093719.410000",
          "093719.413000",
          "093719.416000",
          "093719.419000",
          "093719.421000",
          "093719.424000",
          "093719.427000",
          "093719.430000",
          "093719.433000",
          "093719.435000",
          "093719.438000",
          "093719.441000",
          "093719.444000",
          "093719.447000",
          "093719.459000",
          "093719.462000",
          "093719.465000",
          "093719.468000",
          "093719.471000",
          "093719.473000",
          "093719.476000",
          "093719.479000",
          "093719.482000",
          "093719.485000",
          "093719.488000",
          "093719.490000",
          "093759.407000",
          "093759.410000",
          "093759.413000",
          "093759.416000",
          "093759.418000",
          "093759.421000",
          "093759.424000",
          "093759.427000",
          "093759.430000",
          "093759.433000",
          "093759.436000",
          "093759.438000",
          "093759.441000",
          "093759.444000",
          "093759.447000",
          "093759.450000",
          "093759.453000",
          "093759.455000",
          "093759.458000",
          "093759.461000",
          "093759.464000",
          "093759.467000",
          "093759.470000",
          "093759.472000",
          "093759.475000",
          "093759.478000",
          "093759.481000",
          "093819.407000",
          "093819.410000",
          "093819.413000",
          "093819.416000",
          "093819.419000",
