{
  "aor": 0.0008364146341463415,
  "aqi": 0.006722029512195122,
  "bids_meta": {
    "AcquisitionMatrixPE": 104,
    "AcquisitionNumber": 1,
    "AcquisitionTime": "09:22:10.592500",
    "BandwidthPerPixelPhaseEncode": 17.17,
    "BaseResolution": 104,
    "BodyPartExamined": "BRAIN",
    "CogAtlasID": "trm_4c898da401420",
    "ConsistencyInfo": "N4_VE11C_LATEST_20160120",
    "ConversionSoftware": "dcm2niix",
    "ConversionSoftwareVersion": "v1.0.20171215 (OpenJPEG build) GCC7.3.0",
    "DerivedVendorReportedEchoSpacing": 0.000560011,
    "DeviceSerialNumber": "167006",
    "DwellTime": 2.1e-06,
    "EchoTime": 0.037,
    "EchoTrainLength": 104,
    "EffectiveEchoSpacing": 0.000560011,
    "FlipAngle": 52,
    "ImageComments": "Unaliased_MB4_PE3_LB",
    "ImageOrientationPatientDICOM": [
      0.999808,
      0.017551,
      0.00868549,
      -0.0143099,
      0.957589,
      -0.287781
    ],
    "ImageType": [
      "ORIGINAL",
      "PRIMARY",
      "M",
      "MB",
      "ND",
      "MOSAIC"
    ],
    "InPlanePhaseEncodingDirectionDICOM": "COL",
    "InstitutionAddress": "Chemin_Queen-Mary_4565_Montreal_District_CA_H3W_1W5",
    "InstitutionName": "IUGM",
    "InstitutionalDepartmentName": "Department",
    "MRAcquisitionType": "2D",
    "MagneticFieldStrength": 3,
    "Manufacturer": "Siemens",
    "ManufacturersModelName": "Prisma_fit",
    "Modality": "MR",
    "MultibandAccelerationFactor": 4,
    "PartialFourier": 1,
    "PatientPosition": "HFS",
    "PercentPhaseFOV": 100,
    "PhaseEncodingDirection": "j-",
    "PhaseEncodingSteps": 104,
    "PhaseResolution": 1,
    "PixelBandwidth": 2290,
    "ProcedureStepDescription": "video5_generic",
    "ProtocolName": "func_task-figures7",
    "PulseSequenceDetails": "%CustomerSeq%_cmrr_mbep2d_bold",
    "ReceiveCoilActiveElements": "HC1-7;NC1,2",
    "ReceiveCoilName": "HeadNeck_64",
    "ReconMatrixPE": 104,
    "RepetitionTime": 1.49,
    "SAR": 0.0300658,
    "ScanOptions": "FS",
    "ScanningSequence": "EP",
    "SequenceName": "epfid2d1_104",
    "SequenceVariant": "SK_SS",
    "SeriesDescription": "func_task-figures7",
    "SeriesNumber": 7,
    "ShimSetting": [
      633,
      -7198,
      -8802,
      623,
      38,
      28,
      0,
      -23
    ],
    "SliceThickness": 2,
    "SliceTiming": [
      0,
      0.7825,
      0.0975,
      0.88,
      0.195,
      0.98,
      0.2925,
      1.0775,
      0.39,
      1.175,
      0.49,
      1.2725,
      0.5875,
      1.37,
      0.685,
      0,
      0.7825,
      0.0975,
      0.88,
      0.195,
      0.98,
      0.2925,
      1.0775,
      0.39,
      1.175,
      0.49,
      1.2725,
      0.5875,
      1.37,
      0.685,
      0,
      0.7825,
      0.0975,
      0.88,
      0.195,
      0.98,
      0.2925,
      1.0775,
      0.39,
      1.175,
      0.49,
      1.2725,
      0.5875,
      1.37,
      0.685,
      0,
      0.7825,
      0.0975,
      0.88,
      0.195,
      0.98,
      0.2925,
      1.0775,
      0.39,
      1.175,
      0.49,
      1.2725,
      0.5875,
      1.37,
      0.685
    ],
    "SoftwareVersions": "syngo_MR_E11",
    "SpacingBetweenSlices": 2,
    "StationName": "MRC35049",
    "TaskName": "figures07",
    "TotalReadoutTime": 0.0576811,
    "TxRefAmp": 208.095,
    "dataset": "<unset>",
    "dcmmeta_affine": [
      [
        -1.9996165037155151,
        -0.02861982397735119,
        0.026735981926321983,
        109.04267120361328
      ],
      [
        -0.035102080553770065,
        1.9151785373687744,
        -0.5752032995223999,
        -68.02671813964844
      ],
      [
        0.017370982095599174,
        0.5755622386932373,
        1.915313720703125,
        -55.45438766479492
      ],
      [
        0.0,
        0.0,
        0.0,
        1.0
      ]
    ],
    "dcmmeta_reorient_transform": [
      [
        0.0,
        -1.0,
        0.0,
        103.0
      ],
      [
        1.0,
        0.0,
        0.0,
        0.0
      ],
      [
        0.0,
        0.0,
        1.0,
        0.0
      ],
      [
        0.0,
        0.0,
        0.0,
        1.0
      ]
    ],
    "dcmmeta_shape": [
      104,
      104,
      60,
      410
    ],
    "dcmmeta_slice_dim": 2,
    "dcmmeta_version": 0.6,
    "global": {
      "const": {
        "AcquisitionMatrix": [
          104,
          0,
          0,
          104
        ],
        "AngioFlag": "N",
        "BitsAllocated": 16,
        "BitsStored": 16,
        "BodyPartExamined": "BRAIN",
        "Columns": 832,
        "EchoNumbers": 1,
        "EchoTime": 37.0,
        "EchoTrainLength": 104,
        "FlipAngle": 52.0,
        "HighBit": 15,
        "ImageOrientationPatient": [
          0.99980824323119,
          0.0175510402969,
          0.00868549085859,
          -0.0143099121764,
          0.95758929647315,
          -0.2877811072561
        ],
        "ImagePositionPatient": [
          -823.53761517786,
          -839.13883889751,
          207.01012890781
        ],
        "ImageType": [
          "ORIGINAL",
          "PRIMARY",
          "M",
          "MB",
          "ND",
          "MOSAIC"
        ],
        "ImagedNucleus": "1H",
        "ImagingFrequency": 123.259495,
        "InPlanePhaseEncodingDirection": "COL",
        "MRAcquisitionType": "2D",
        "MagneticFieldStrength": 3.0,
        "Manufacturer": "SIEMENS",
        "ManufacturerModelName": "Prisma_fit",
        "Modality": "MR",
        "NumberOfAverages": 1.0,
        "NumberOfPhaseEncodingSteps": 104,
        "PercentPhaseFieldOfView": 100.0,
        "PercentSampling": 100.0,
        "PerformedProcedureStepStartTime": "090603.047000",
        "PhotometricInterpretation": "MONOCHROME2",
        "PixelBandwidth": 2290.0,
        "PixelRepresentation": 0,
        "PixelSpacing": [
          2.0,
          2.0
        ],
        "ProtocolName": "func_task-figures7",
        "RepetitionTime": 1490.0,
        "Rows": 832,
        "SAR": 0.03006582518315,
        "SamplesPerPixel": 1,
        "ScanOptions": "FS",
        "ScanningSequence": "EP",
        "SequenceName": "epfid2d1_104",
        "SequenceVariant": [
          "SK",
          "SS"
        ],
        "SeriesDescription": "func_task-figures7",
        "SeriesNumber": 7,
        "SeriesTime": "092327.357000",
        "SliceLocation": -32.083995425385,
        "SliceThickness": 2.0,
        "SmallestImagePixelValue": 0,
        "SoftwareVersions": "syngo MR E11",
        "SpacingBetweenSlices": 2.0000000336672,
        "SpecificCharacterSet": "ISO_IR 100",
        "StudyID": "1",
        "StudyTime": "090602.939000",
        "TransmitCoilName": "Body",
        "VariableFlipAngleFlag": "N",
        "WindowCenterWidthExplanation": "Algo1",
        "dBdt": 0.0
      },
      "slices": {}
    },
    "modality": "bold",
    "run_id": 1,
    "session_id": "009",
    "subject_id": "03",
    "task_id": "figures07",
    "time": {
      "samples": {
        "AcquisitionNumber": [
          1,
          2,
          3,
          4,
          5,
          6,
          7,
          8,
          9,
          10,
          11,
          12,
          13,
          14,
          15,
          16,
          17,
          18,
          19,
          20,
          21,
          22,
          23,
          24,
          25,
          26,
          27,
          28,
          29,
          30,
          31,
          32,
          33,
          34,
          35,
          36,
          37,
          38,
          39,
          40,
          41,
          42,
          43,
          44,
          45,
          46,
          47,
          48,
          49,
          50,
          51,
          52,
          53,
          54,
          55,
          56,
          57,
          58,
          59,
          60,
          61,
          62,
          63,
          64,
          65,
          66,
          67,
          68,
          69,
          70,
          71,
          72,
          73,
          74,
          75,
          76,
          77,
          78,
          79,
          80,
          81,
          82,
          83,
          84,
          85,
          86,
          87,
          88,
          89,
          90,
          91,
          92,
          93,
          94,
          95,
          96,
          97,
          98,
          99,
          100,
          101,
          102,
          103,
          104,
          105,
          106,
          107,
          108,
          109,
          110,
          111,
          112,
          113,
          114,
          115,
          116,
          117,
          118,
          119,
          120,
          121,
          122,
          123,
          124,
          125,
          126,
          127,
          128,
          129,
          130,
          131,
          132,
          133,
          134,
          135,
          136,
          137,
          138,
          139,
          140,
          141,
          142,
          143,
          144,
          145,
          146,
          147,
          148,
          149,
          150,
          151,
          152,
          153,
          154,
          155,
          156,
          157,
          158,
          159,
          160,
          161,
          162,
          163,
          164,
          165,
          166,
          167,
          168,
          169,
          170,
          171,
          172,
          173,
          174,
          175,
          176,
          177,
          178,
          179,
          180,
          181,
          182,
          183,
          184,
          185,
          186,
          187,
          188,
          189,
          190,
          191,
          192,
          193,
          194,
          195,
          196,
          197,
          198,
          199,
          200,
          201,
          202,
          203,
          204,
          205,
          206,
          207,
          208,
          209,
          210,
          211,
          212,
          213,
          214,
          215,
          216,
          217,
          218,
          219,
          220,
          221,
          222,
          223,
          224,
          225,
          226,
          227,
          228,
          229,
          230,
          231,
          232,
          233,
          234,
          235,
          236,
          237,
          238,
          239,
          240,
          241,
          242,
          243,
          244,
          245,
          246,
          247,
          248,
          249,
          250,
          251,
          252,
          253,
          254,
          255,
          256,
          257,
          258,
          259,
          260,
          261,
          262,
          263,
          264,
          265,
          266,
          267,
          268,
          269,
          270,
          271,
          272,
          273,
          274,
          275,
          276,
          277,
          278,
          279,
          280,
          281,
          282,
          283,
          284,
          285,
          286,
          287,
          288,
          289,
          290,
          291,
          292,
          293,
          294,
          295,
          296,
          297,
          298,
          299,
          300,
          301,
          302,
          303,
          304,
          305,
          306,
          307,
          308,
          309,
          310,
          311,
          312,
          313,
          314,
          315,
          316,
          317,
          318,
          319,
          320,
          321,
          322,
          323,
          324,
          325,
          326,
          327,
          328,
          329,
          330,
          331,
          332,
          333,
          334,
          335,
          336,
          337,
          338,
          339,
          340,
          341,
          342,
          343,
          344,
          345,
          346,
          347,
          348,
          349,
          350,
          351,
          352,
          353,
          354,
          355,
          356,
          357,
          358,
          359,
          360,
          361,
          362,
          363,
          364,
          365,
          366,
          367,
          368,
          369,
          370,
          371,
          372,
          373,
          374,
          375,
          376,
          377,
          378,
          379,
          380,
          381,
          382,
          383,
          384,
          385,
          386,
          387,
          388,
          389,
          390,
          391,
          392,
          393,
          394,
          395,
          396,
          397,
          398,
          399,
          400,
          401,
          402,
          403,
          404,
          405,
          406,
          407,
          408,
          409,
          410
        ],
        "AcquisitionTime": [
          "092210.592500",
          "092212.082500",
          "092213.572500",
          "092215.062500",
          "092216.552500",
          "092218.042500",
          "092219.532500",
          "092221.022500",
          "092222.512500",
          "092224.002500",
          "092225.492500",
          "092226.982500",
          "092228.472500",
          "092229.962500",
          "092231.452500",
          "092232.942500",
          "092234.432500",
          "092235.922500",
          "092237.412500",
          "092238.902500",
          "092240.392500",
          "092241.882500",
          "092243.372500",
          "092244.862500",
          "092246.352500",
          "092247.842500",
          "092249.332500",
          "092250.822500",
          "092252.312500",
          "092253.802500",
          "092255.292500",
          "092256.782500",
          "092258.272500",
          "092259.762500",
          "092301.252500",
          "092302.742500",
          "092304.232500",
          "092305.722500",
          "092307.212500",
          "092308.702500",
          "092310.192500",
          "092311.682500",
          "092313.172500",
          "092314.662500",
          "092316.152500",
          "092317.642500",
          "092319.132500",
          "092320.622500",
          "092322.112500",
          "092323.602500",
          "092325.092500",
          "092326.582500",
          "092328.072500",
          "092329.562500",
          "092331.052500",
          "092332.542500",
          "092334.032500",
          "092335.522500",
          "092337.012500",
          "092338.502500",
          "092339.992500",
          "092341.482500",
          "092342.972500",
          "092344.462500",
          "092345.952500",
          "092347.442500",
          "092348.932500",
          "092350.422500",
          "092351.912500",
          "092353.402500",
          "092354.892500",
          "092356.382500",
          "092357.872500",
          "092359.362500",
          "092400.852500",
          "092402.342500",
          "092403.832500",
          "092405.322500",
          "092406.812500",
          "092408.302500",
          "092409.792500",
          "092411.282500",
          "092412.772500",
          "092414.262500",
          "092415.752500",
          "092417.242500",
          "092418.732500",
          "092420.222500",
          "092421.712500",
          "092423.202500",
          "092424.692500",
          "092426.182500",
          "092427.672500",
          "092429.162500",
          "092430.652500",
          "092432.142500",
          "092433.632500",
          "092435.122500",
          "092436.612500",
          "092438.102500",
          "092439.592500",
          "092441.082500",
          "092442.572500",
          "092444.062500",
          "092445.552500",
          "092447.042500",
          "092448.532500",
          "092450.022500",
          "092451.512500",
          "092453.002500",
          "092454.492500",
          "092455.982500",
          "092457.472500",
          "092458.962500",
          "092500.452500",
          "092501.942500",
          "092503.432500",
          "092504.922500",
          "092506.412500",
          "092507.902500",
          "092509.392500",
          "092510.882500",
          "092512.372500",
          "092513.862500",
          "092515.352500",
          "092516.842500",
          "092518.332500",
          "092519.822500",
          "092521.312500",
          "092522.802500",
          "092524.292500",
          "092525.782500",
          "092527.272500",
          "092528.762500",
          "092530.252500",
          "092531.742500",
          "092533.232500",
          "092534.722500",
          "092536.212500",
          "092537.702500",
          "092539.192500",
          "092540.682500",
          "092542.172500",
          "092543.662500",
          "092545.152500",
          "092546.642500",
          "092548.132500",
          "092549.622500",
          "092551.112500",
          "092552.602500",
          "092554.092500",
          "092555.582500",
          "092557.072500",
          "092558.562500",
          "092600.052500",
          "092601.542500",
          "092603.032500",
          "092604.522500",
          "092606.012500",
          "092607.502500",
          "092608.992500",
          "092610.482500",
          "092611.972500",
          "092613.462500",
          "092614.952500",
          "092616.442500",
          "092617.932500",
          "092619.422500",
          "092620.912500",
          "092622.402500",
          "092623.892500",
          "092625.382500",
          "092626.872500",
          "092628.362500",
          "092629.852500",
          "092631.342500",
          "092632.832500",
          "092634.322500",
          "092635.812500",
          "092637.302500",
          "092638.792500",
          "092640.282500",
          "092641.772500",
          "092643.262500",
          "092644.752500",
          "092646.242500",
          "092647.732500",
          "092649.222500",
          "092650.712500",
          "092652.202500",
          "092653.692500",
          "092655.182500",
          "092656.672500",
          "092658.162500",
          "092659.652500",
          "092701.142500",
          "092702.632500",
          "092704.122500",
          "092705.612500",
          "092707.102500",
          "092708.592500",
          "092710.082500",
          "092711.572500",
          "092713.062500",
          "092714.552500",
          "092716.042500",
          "092717.532500",
          "092719.022500",
          "092720.512500",
          "092722.002500",
          "092723.492500",
          "092724.982500",
          "092726.472500",
          "092727.962500",
          "092729.452500",
          "092730.942500",
          "092732.432500",
          "092733.922500",
          "092735.412500",
          "092736.902500",
          "092738.392500",
          "092739.882500",
          "092741.372500",
          "092742.862500",
          "092744.352500",
          "092745.842500",
          "092747.332500",
          "092748.822500",
          "092750.312500",
          "092751.802500",
          "092753.292500",
          "092754.782500",
          "092756.272500",
          "092757.762500",
          "092759.252500",
          "092800.742500",
          "092802.232500",
          "092803.722500",
          "092805.212500",
          "092806.702500",
          "092808.192500",
          "092809.682500",
          "092811.172500",
          "092812.662500",
          "092814.152500",
          "092815.642500",
          "092817.132500",
          "092818.622500",
          "092820.112500",
          "092821.602500",
          "092823.092500",
          "092824.582500",
          "092826.072500",
          "092827.562500",
          "092829.052500",
          "092830.542500",
          "092832.032500",
          "092833.522500",
          "092835.012500",
          "092836.502500",
          "092837.992500",
          "092839.482500",
          "092840.972500",
          "092842.462500",
          "092843.952500",
          "092845.442500",
          "092846.932500",
          "092848.422500",
          "092849.912500",
          "092851.402500",
          "092852.892500",
          "092854.382500",
          "092855.872500",
          "092857.362500",
          "092858.852500",
          "092900.342500",
          "092901.832500",
          "092903.322500",
          "092904.812500",
          "092906.302500",
          "092907.792500",
          "092909.282500",
          "092910.772500",
          "092912.262500",
          "092913.752500",
          "092915.242500",
          "092916.732500",
          "092918.222500",
          "092919.712500",
          "092921.202500",
          "092922.692500",
          "092924.182500",
          "092925.672500",
          "092927.162500",
          "092928.652500",
          "092930.142500",
          "092931.632500",
          "092933.122500",
          "092934.612500",
          "092936.102500",
          "092937.592500",
          "092939.082500",
          "092940.572500",
          "092942.062500",
          "092943.552500",
          "092945.042500",
          "092946.532500",
          "092948.022500",
          "092949.512500",
          "092951.002500",
          "092952.492500",
          "092953.982500",
          "092955.472500",
          "092956.962500",
          "092958.452500",
          "092959.942500",
          "093001.432500",
          "093002.922500",
          "093004.412500",
          "093005.902500",
          "093007.392500",
          "093008.882500",
          "093010.372500",
          "093011.862500",
          "093013.352500",
          "093014.842500",
          "093016.332500",
          "093017.822500",
          "093019.312500",
          "093020.802500",
          "093022.292500",
          "093023.782500",
          "093025.272500",
          "093026.762500",
          "093028.252500",
          "093029.742500",
          "093031.232500",
          "093032.722500",
          "093034.212500",
          "093035.702500",
          "093037.192500",
          "093038.682500",
          "093040.172500",
          "093041.662500",
          "093043.152500",
          "093044.642500",
          "093046.132500",
          "093047.622500",
          "093049.112500",
          "093050.602500",
          "093052.092500",
          "093053.582500",
          "093055.072500",
          "093056.562500",
          "093058.052500",
          "093059.542500",
          "093101.032500",
          "093102.522500",
          "093104.012500",
          "093105.502500",
          "093106.992500",
          "093108.482500",
          "093109.972500",
          "093111.462500",
          "093112.952500",
          "093114.442500",
          "093115.932500",
          "093117.422500",
          "093118.912500",
          "093120.402500",
          "093121.892500",
          "093123.382500",
          "093124.872500",
          "093126.362500",
          "093127.852500",
          "093129.342500",
          "093130.832500",
          "093132.322500",
          "093133.812500",
          "093135.302500",
          "093136.792500",
          "093138.282500",
          "093139.772500",
          "093141.262500",
          "093142.752500",
          "093144.242500",
          "093145.732500",
          "093147.222500",
          "093148.712500",
          "093150.202500",
          "093151.692500",
          "093153.182500",
          "093154.672500",
          "093156.162500",
          "093157.652500",
          "093159.142500",
          "093200.632500",
          "093202.122500",
          "093203.612500",
          "093205.102500",
          "093206.592500",
          "093208.082500",
          "093209.572500",
          "093211.062500",
          "093212.552500",
          "093214.042500",
          "093215.532500",
          "093217.022500",
          "093218.512500",
          "093220.002500"
        ],
        "ContentTime": [
          "092327.360000",
          "092327.364000",
          "092327.379000",
          "092327.382000",
          "092327.385000",
          "092327.389000",
          "092327.394000",
          "092327.398000",
          "092327.423000",
          "092327.457000",
          "092327.467000",
          "092327.471000",
          "092327.474000",
          "092327.478000",
          "092327.481000",
          "092327.484000",
          "092327.487000",
          "092327.491000",
          "092327.494000",
          "092327.497000",
          "092327.500000",
          "092327.503000",
          "092327.507000",
          "092327.510000",
          "092347.316000",
          "092347.319000",
          "092347.322000",
          "092347.324000",
          "092347.327000",
          "092347.330000",
          "092347.333000",
          "092347.335000",
          "092347.338000",
          "092347.341000",
          "092347.344000",
          "092347.347000",
          "092347.350000",
          "092347.352000",
          "092347.355000",
          "092347.358000",
          "092347.361000",
          "092347.364000",
          "092347.366000",
          "092347.369000",
          "092407.316000",
          "092407.319000",
          "092407.322000",
          "092407.333000",
          "092407.335000",
          "092407.338000",
          "092407.341000",
          "092407.344000",
          "092407.347000",
          "092407.349000",
          "092407.352000",
          "092407.355000",
          "092407.358000",
          "092407.361000",
          "092407.363000",
          "092407.366000",
          "092407.369000",
          "092407.372000",
          "092407.375000",
          "092407.378000",
          "092427.328000",
          "092427.331000",
          "092427.334000",
          "092427.337000",
          "092427.340000",
          "092427.343000",
          "092427.346000",
          "092427.349000",
          "092427.351000",
          "092427.354000",
          "092427.357000",
          "092427.360000",
          "092427.363000",
          "092427.366000",
          "092427.368000",
          "092427.371000",
          "092427.374000",
          "092427.382000",
          "092427.385000",
          "092427.388000",
          "092427.391000",
          "092447.315000",
          "092447.327000",
          "092447.330000",
          "092447.333000",
          "092447.336000",
          "092447.339000",
          "092447.342000",
          "092447.345000",
          "092447.347000",
          "092447.350000",
          "092447.353000",
          "092447.356000",
          "092447.359000",
          "092447.362000",
          "092447.365000",
          "092447.367000",
          "092447.370000",
          "092447.373000",
          "092447.376000",
          "092447.379000",
          "092527.316000",
          "092527.319000",
          "092527.322000",
          "092527.324000",
          "092527.327000",
          "092527.330000",
          "092527.333000",
          "092527.336000",
          "092527.339000",
          "092527.343000",
          "092527.345000",
          "092527.348000",
          "092527.351000",
          "092527.354000",
          "092527.357000",
          "092527.360000",
          "092527.363000",
          "092527.365000",
          "092527.368000",
          "092527.371000",
          "092527.374000",
          "092527.377000",
          "092527.386000",
          "092527.389000",
          "092527.392000",
          "092527.395000",
          "092607.316000",
          "092607.319000",
          "092607.322000",
          "092607.324000",
          "092607.327000",
          "092607.330000",
          "092607.333000",
          "092607.336000",
          "092607.339000",
          "092607.341000",
          "092607.344000",
          "092607.347000",
          "092607.350000",
          "092607.353000",
          "092607.356000",
          "092607.359000",
          "092607.361000",
          "092607.364000",
          "092607.367000",
          "092607.370000",
          "092607.373000",
          "092607.376000",
          "092607.378000",
          "092607.381000",
          "092607.384000",
          "092607.387000",
          "092607.390000",
          "092647.316000",
          "092647.319000",
          "092647.322000",
          "092647.324000",
          "092647.327000",
          "092647.330000",
          "092647.333000",
          "092647.336000",
          "092647.339000",
          "092647.342000",
          "092647.344000",
          "092647.347000",
          "092647.350000",
          "092647.353000",
          "092647.356000",
          "092647.359000",
          "092647.362000",
          "092647.365000",
          "092647.368000",
          "092647.371000",
          "092647.374000",
          "092647.377000",
          "092647.379000",
          "092647.382000",
          "092647.385000",
          "092647.388000",
          "092647.391000",
          "092727.315000",
          "092727.318000",
          "092727.321000",
          "092727.324000",
          "092727.327000",
          "092727.329000",
          "092727.332000",
          "092727.335000",
          "092727.338000",
          "092727.341000",
          "092727.344000",
          "092727.346000",
          "092727.349000",
          "092727.352000",
          "092727.355000",
          "092727.358000",
          "092727.361000",
          "092727.363000",
          "092727.366000",
          "092727.369000",
          "092727.372000",
          "092727.375000",
          "092727.378000",
          "092727.381000",
          "092727.383000",
          "092727.386000",
          "092727.389000",
          "092807.316000",
          "092807.319000",
          "092807.322000",
          "092807.325000",
          "092807.327000",
