{
  "aor": 0.0002198019801980198,
  "aqi": 0.004583127004950495,
  "bids_meta": {
    "AcquisitionMatrixPE": 104,
    "AcquisitionNumber": 1,
    "AcquisitionTime": "12:50:29.522500",
    "BandwidthPerPixelPhaseEncode": 17.17,
    "BaseResolution": 104,
    "BodyPartExamined": "BRAIN",
    "CogAtlasID": "trm_4c898da401420",
    "ConsistencyInfo": "N4_VE11C_LATEST_20160120",
    "ConversionSoftware": "dcm2niix",
    "ConversionSoftwareVersion": "v1.0.20171215 (OpenJPEG build) GCC7.3.0",
    "DerivedVendorReportedEchoSpacing": 0.000560011,
    "DeviceSerialNumber": "167006",
    "DwellTime": 2.1e-06,
    "EchoTime": 0.037,
    "EchoTrainLength": 104,
    "EffectiveEchoSpacing": 0.000560011,
    "FlipAngle": 52,
    "ImageComments": "Unaliased_MB4_PE3_LB",
    "ImageOrientationPatientDICOM": [
      0.997069,
      0.0470977,
      -0.0602873,
      -0.0569669,
      0.983068,
      -0.174162
    ],
    "ImageType": [
      "ORIGINAL",
      "PRIMARY",
      "M",
      "MB",
      "ND",
      "MOSAIC"
    ],
    "InPlanePhaseEncodingDirectionDICOM": "COL",
    "InstitutionAddress": "Chemin_Queen-Mary_4565_Montreal_District_CA_H3W_1W5",
    "InstitutionName": "IUGM",
    "InstitutionalDepartmentName": "Department",
    "MRAcquisitionType": "2D",
    "MagneticFieldStrength": 3,
    "Manufacturer": "Siemens",
    "ManufacturersModelName": "Prisma_fit",
    "Modality": "MR",
    "MultibandAccelerationFactor": 4,
    "PartialFourier": 1,
    "PatientPosition": "HFS",
    "PercentPhaseFOV": 100,
    "PhaseEncodingDirection": "j-",
    "PhaseEncodingSteps": 104,
    "PhaseResolution": 1,
    "PixelBandwidth": 2290,
    "ProcedureStepDescription": "video5_generic",
    "ProtocolName": "func_task-wolf3",
    "PulseSequenceDetails": "%CustomerSeq%_cmrr_mbep2d_bold",
    "ReceiveCoilActiveElements": "HC1-7;NC1,2",
    "ReceiveCoilName": "HeadNeck_64",
    "ReconMatrixPE": 104,
    "RepetitionTime": 1.49,
    "SAR": 0.0309345,
    "ScanOptions": "FS",
    "ScanningSequence": "EP",
    "SequenceName": "epfid2d1_104",
    "SequenceVariant": "SK_SS",
    "SeriesDescription": "func_task-wolf3",
    "SeriesNumber": 11,
    "ShimSetting": [
      605,
      -7223,
      -8868,
      576,
      -12,
      -210,
      -24,
      30
    ],
    "SliceThickness": 2,
    "SliceTiming": [
      0,
      0.7825,
      0.0975,
      0.8825,
      0.195,
      0.98,
      0.2925,
      1.0775,
      0.3925,
      1.175,
      0.49,
      1.2725,
      0.5875,
      1.3725,
      0.685,
      0,
      0.7825,
      0.0975,
      0.8825,
      0.195,
      0.98,
      0.2925,
      1.0775,
      0.3925,
      1.175,
      0.49,
      1.2725,
      0.5875,
      1.3725,
      0.685,
      0,
      0.7825,
      0.0975,
      0.8825,
      0.195,
      0.98,
      0.2925,
      1.0775,
      0.3925,
      1.175,
      0.49,
      1.2725,
      0.5875,
      1.3725,
      0.685,
      0,
      0.7825,
      0.0975,
      0.8825,
      0.195,
      0.98,
      0.2925,
      1.0775,
      0.3925,
      1.175,
      0.49,
      1.2725,
      0.5875,
      1.3725,
      0.685
    ],
    "SoftwareVersions": "syngo_MR_E11",
    "SpacingBetweenSlices": 2,
    "StationName": "MRC35049",
    "TaskName": "wolf03",
    "TotalReadoutTime": 0.0576811,
    "TxRefAmp": 215.883,
    "dataset": "<unset>",
    "dcmmeta_affine": [
      [
        -1.9941387176513672,
        -0.11393377929925919,
        -0.1021277979016304,
        110.31549835205078
      ],
      [
        -0.09419535100460052,
        1.966135859489441,
        -0.35417094826698303,
        -67.76263427734375
      ],
      [
        -0.12057458609342575,
        0.3483230173587799,
        1.9657397270202637,
        -58.48927688598633
      ],
      [
        0.0,
        0.0,
        0.0,
        1.0
      ]
    ],
    "dcmmeta_reorient_transform": [
      [
        0.0,
        -1.0,
        0.0,
        103.0
      ],
      [
        1.0,
        0.0,
        0.0,
        0.0
      ],
      [
        0.0,
        0.0,
        1.0,
        0.0
      ],
      [
        0.0,
        0.0,
        0.0,
        1.0
      ]
    ],
    "dcmmeta_shape": [
      104,
      104,
      60,
      406
    ],
    "dcmmeta_slice_dim": 2,
    "dcmmeta_version": 0.6,
    "global": {
      "const": {
        "AcquisitionMatrix": [
          104,
          0,
          0,
          104
        ],
        "AngioFlag": "N",
        "BitsAllocated": 16,
        "BitsStored": 16,
        "BodyPartExamined": "BRAIN",
        "Columns": 832,
        "EchoNumbers": 1,
        "EchoTime": 37.0,
        "EchoTrainLength": 104,
        "FlipAngle": 52.0,
        "HighBit": 15,
        "ImageOrientationPatient": [
          0.99706933136068,
          0.04709767389912,
          -0.0602872919716,
          -0.0569668891856,
          0.98306792395408,
          -0.1741615067377
        ],
        "ImagePositionPatient": [
          -782.97489864249,
          -884.70991616203,
          148.06671821408
        ],
        "ImageType": [
          "ORIGINAL",
          "PRIMARY",
          "M",
          "MB",
          "ND",
          "MOSAIC"
        ],
        "ImagedNucleus": "1H",
        "ImagingFrequency": 123.259109,
        "InPlanePhaseEncodingDirection": "COL",
        "MRAcquisitionType": "2D",
        "MagneticFieldStrength": 3.0,
        "Manufacturer": "SIEMENS",
        "ManufacturerModelName": "Prisma_fit",
        "Modality": "MR",
        "NumberOfAverages": 1.0,
        "NumberOfPhaseEncodingSteps": 104,
        "PercentPhaseFieldOfView": 100.0,
        "PercentSampling": 100.0,
        "PerformedProcedureStepStartTime": "121615.510000",
        "PhotometricInterpretation": "MONOCHROME2",
        "PixelBandwidth": 2290.0,
        "PixelRepresentation": 0,
        "PixelSpacing": [
          2.0,
          2.0
        ],
        "ProtocolName": "func_task-wolf3",
        "RepetitionTime": 1490.0,
        "Rows": 832,
        "SAR": 0.0309345390515,
        "SamplesPerPixel": 1,
        "ScanOptions": "FS",
        "ScanningSequence": "EP",
        "SequenceName": "epfid2d1_104",
        "SequenceVariant": [
          "SK",
          "SS"
        ],
        "SeriesDescription": "func_task-wolf3",
        "SeriesNumber": 11,
        "SeriesTime": "125145.446000",
        "SliceLocation": -51.120711519152,
        "SliceThickness": 2.0,
        "SmallestImagePixelValue": 0,
        "SoftwareVersions": "syngo MR E11",
        "SpacingBetweenSlices": 1.999999985618,
        "SpecificCharacterSet": "ISO_IR 100",
        "StudyID": "1",
        "StudyTime": "121615.376000",
        "TransmitCoilName": "Body",
        "VariableFlipAngleFlag": "N",
        "WindowCenterWidthExplanation": "Algo1",
        "dBdt": 0.0
      },
      "slices": {}
    },
    "modality": "bold",
    "session_id": "001",
    "subject_id": "04",
    "task_id": "wolf03",
    "time": {
      "samples": {
        "AcquisitionNumber": [
          1,
          2,
          3,
          4,
          5,
          6,
          7,
          8,
          9,
          10,
          11,
          12,
          13,
          14,
          15,
          16,
          17,
          18,
          19,
          20,
          21,
          22,
          23,
          24,
          25,
          26,
          27,
          28,
          29,
          30,
          31,
          32,
          33,
          34,
          35,
          36,
          37,
          38,
          39,
          40,
          41,
          42,
          43,
          44,
          45,
          46,
          47,
          48,
          49,
          50,
          51,
          52,
          53,
          54,
          55,
          56,
          57,
          58,
          59,
          60,
          61,
          62,
          63,
          64,
          65,
          66,
          67,
          68,
          69,
          70,
          71,
          72,
          73,
          74,
          75,
          76,
          77,
          78,
          79,
          80,
          81,
          82,
          83,
          84,
          85,
          86,
          87,
          88,
          89,
          90,
          91,
          92,
          93,
          94,
          95,
          96,
          97,
          98,
          99,
          100,
          101,
          102,
          103,
          104,
          105,
          106,
          107,
          108,
          109,
          110,
          111,
          112,
          113,
          114,
          115,
          116,
          117,
          118,
          119,
          120,
          121,
          122,
          123,
          124,
          125,
          126,
          127,
          128,
          129,
          130,
          131,
          132,
          133,
          134,
          135,
          136,
          137,
          138,
          139,
          140,
          141,
          142,
          143,
          144,
          145,
          146,
          147,
          148,
          149,
          150,
          151,
          152,
          153,
          154,
          155,
          156,
          157,
          158,
          159,
          160,
          161,
          162,
          163,
          164,
          165,
          166,
          167,
          168,
          169,
          170,
          171,
          172,
          173,
          174,
          175,
          176,
          177,
          178,
          179,
          180,
          181,
          182,
          183,
          184,
          185,
          186,
          187,
          188,
          189,
          190,
          191,
          192,
          193,
          194,
          195,
          196,
          197,
          198,
          199,
          200,
          201,
          202,
          203,
          204,
          205,
          206,
          207,
          208,
          209,
          210,
          211,
          212,
          213,
          214,
          215,
          216,
          217,
          218,
          219,
          220,
          221,
          222,
          223,
          224,
          225,
          226,
          227,
          228,
          229,
          230,
          231,
          232,
          233,
          234,
          235,
          236,
          237,
          238,
          239,
          240,
          241,
          242,
          243,
          244,
          245,
          246,
          247,
          248,
          249,
          250,
          251,
          252,
          253,
          254,
          255,
          256,
          257,
          258,
          259,
          260,
          261,
          262,
          263,
          264,
          265,
          266,
          267,
          268,
          269,
          270,
          271,
          272,
          273,
          274,
          275,
          276,
          277,
          278,
          279,
          280,
          281,
          282,
          283,
          284,
          285,
          286,
          287,
          288,
          289,
          290,
          291,
          292,
          293,
          294,
          295,
          296,
          297,
          298,
          299,
          300,
          301,
          302,
          303,
          304,
          305,
          306,
          307,
          308,
          309,
          310,
          311,
          312,
          313,
          314,
          315,
          316,
          317,
          318,
          319,
          320,
          321,
          322,
          323,
          324,
          325,
          326,
          327,
          328,
          329,
          330,
          331,
          332,
          333,
          334,
          335,
          336,
          337,
          338,
          339,
          340,
          341,
          342,
          343,
          344,
          345,
          346,
          347,
          348,
          349,
          350,
          351,
          352,
          353,
          354,
          355,
          356,
          357,
          358,
          359,
          360,
          361,
          362,
          363,
          364,
          365,
          366,
          367,
          368,
          369,
          370,
          371,
          372,
          373,
          374,
          375,
          376,
          377,
          378,
          379,
          380,
          381,
          382,
          383,
          384,
          385,
          386,
          387,
          388,
          389,
          390,
          391,
          392,
          393,
          394,
          395,
          396,
          397,
          398,
          399,
          400,
          401,
          402,
          403,
          404,
          405,
          406
        ],
        "AcquisitionTime": [
          "125029.522500",
          "125031.012500",
          "125032.502500",
          "125033.992500",
          "125035.482500",
          "125036.972500",
          "125038.462500",
          "125039.952500",
          "125041.442500",
          "125042.932500",
          "125044.422500",
          "125045.912500",
          "125047.402500",
          "125048.892500",
          "125050.382500",
          "125051.872500",
          "125053.362500",
          "125054.852500",
          "125056.342500",
          "125057.832500",
          "125059.322500",
          "125100.812500",
          "125102.302500",
          "125103.792500",
          "125105.282500",
          "125106.772500",
          "125108.262500",
          "125109.752500",
          "125111.242500",
          "125112.732500",
          "125114.222500",
          "125115.712500",
          "125117.202500",
          "125118.692500",
          "125120.182500",
          "125121.672500",
          "125123.162500",
          "125124.652500",
          "125126.142500",
          "125127.632500",
          "125129.122500",
          "125130.612500",
          "125132.102500",
          "125133.592500",
          "125135.082500",
          "125136.572500",
          "125138.062500",
          "125139.552500",
          "125141.042500",
          "125142.532500",
          "125144.022500",
          "125145.512500",
          "125147.002500",
          "125148.492500",
          "125149.982500",
          "125151.472500",
          "125152.962500",
          "125154.452500",
          "125155.942500",
          "125157.432500",
          "125158.922500",
          "125200.412500",
          "125201.902500",
          "125203.392500",
          "125204.882500",
          "125206.372500",
          "125207.862500",
          "125209.352500",
          "125210.842500",
          "125212.332500",
          "125213.822500",
          "125215.312500",
          "125216.802500",
          "125218.292500",
          "125219.782500",
          "125221.272500",
          "125222.762500",
          "125224.252500",
          "125225.742500",
          "125227.232500",
          "125228.722500",
          "125230.212500",
          "125231.702500",
          "125233.192500",
          "125234.682500",
          "125236.172500",
          "125237.662500",
          "125239.152500",
          "125240.642500",
          "125242.132500",
          "125243.622500",
          "125245.112500",
          "125246.602500",
          "125248.092500",
          "125249.582500",
          "125251.072500",
          "125252.562500",
          "125254.052500",
          "125255.542500",
          "125257.032500",
          "125258.522500",
          "125300.012500",
          "125301.502500",
          "125302.992500",
          "125304.482500",
          "125305.972500",
          "125307.462500",
          "125308.952500",
          "125310.442500",
          "125311.932500",
          "125313.422500",
          "125314.912500",
          "125316.402500",
          "125317.892500",
          "125319.382500",
          "125320.872500",
          "125322.362500",
          "125323.852500",
          "125325.342500",
          "125326.832500",
          "125328.322500",
          "125329.812500",
          "125331.302500",
          "125332.792500",
          "125334.282500",
          "125335.772500",
          "125337.262500",
          "125338.752500",
          "125340.242500",
          "125341.732500",
          "125343.222500",
          "125344.712500",
          "125346.202500",
          "125347.692500",
          "125349.182500",
          "125350.672500",
          "125352.162500",
          "125353.652500",
          "125355.142500",
          "125356.632500",
          "125358.122500",
          "125359.612500",
          "125401.102500",
          "125402.592500",
          "125404.082500",
          "125405.572500",
          "125407.062500",
          "125408.552500",
          "125410.042500",
          "125411.532500",
          "125413.022500",
          "125414.512500",
          "125416.002500",
          "125417.492500",
          "125418.982500",
          "125420.472500",
          "125421.962500",
          "125423.452500",
          "125424.942500",
          "125426.432500",
          "125427.922500",
          "125429.412500",
          "125430.902500",
          "125432.392500",
          "125433.882500",
          "125435.372500",
          "125436.862500",
          "125438.352500",
          "125439.842500",
          "125441.332500",
          "125442.822500",
          "125444.312500",
          "125445.802500",
          "125447.292500",
          "125448.782500",
          "125450.272500",
          "125451.762500",
          "125453.252500",
          "125454.742500",
          "125456.232500",
          "125457.722500",
          "125459.212500",
          "125500.702500",
          "125502.192500",
          "125503.682500",
          "125505.172500",
          "125506.662500",
          "125508.152500",
          "125509.642500",
          "125511.132500",
          "125512.622500",
          "125514.112500",
          "125515.602500",
          "125517.092500",
          "125518.582500",
          "125520.072500",
          "125521.562500",
          "125523.052500",
          "125524.542500",
          "125526.032500",
          "125527.522500",
          "125529.012500",
          "125530.502500",
          "125531.992500",
          "125533.482500",
          "125534.972500",
          "125536.462500",
          "125537.952500",
          "125539.442500",
          "125540.932500",
          "125542.422500",
          "125543.912500",
          "125545.402500",
          "125546.892500",
          "125548.382500",
          "125549.872500",
          "125551.362500",
          "125552.852500",
          "125554.342500",
          "125555.832500",
          "125557.322500",
          "125558.812500",
          "125600.302500",
          "125601.792500",
          "125603.282500",
          "125604.772500",
          "125606.262500",
          "125607.752500",
          "125609.242500",
          "125610.732500",
          "125612.222500",
          "125613.712500",
          "125615.202500",
          "125616.692500",
          "125618.182500",
          "125619.672500",
          "125621.162500",
          "125622.652500",
          "125624.142500",
          "125625.632500",
          "125627.122500",
          "125628.612500",
          "125630.102500",
          "125631.592500",
          "125633.082500",
          "125634.572500",
          "125636.062500",
          "125637.552500",
          "125639.042500",
          "125640.532500",
          "125642.022500",
          "125643.512500",
          "125645.002500",
          "125646.492500",
          "125647.982500",
          "125649.472500",
          "125650.962500",
          "125652.452500",
          "125653.942500",
          "125655.432500",
          "125656.922500",
          "125658.412500",
          "125659.902500",
          "125701.392500",
          "125702.882500",
          "125704.372500",
          "125705.862500",
          "125707.352500",
          "125708.842500",
          "125710.332500",
          "125711.822500",
          "125713.312500",
          "125714.802500",
          "125716.292500",
          "125717.782500",
          "125719.272500",
          "125720.762500",
          "125722.252500",
          "125723.742500",
          "125725.232500",
          "125726.722500",
          "125728.212500",
          "125729.702500",
          "125731.192500",
          "125732.682500",
          "125734.172500",
          "125735.662500",
          "125737.152500",
          "125738.642500",
          "125740.132500",
          "125741.622500",
          "125743.112500",
          "125744.602500",
          "125746.092500",
          "125747.582500",
          "125749.072500",
          "125750.562500",
          "125752.052500",
          "125753.542500",
          "125755.032500",
          "125756.522500",
          "125758.012500",
          "125759.502500",
          "125800.992500",
          "125802.482500",
          "125803.972500",
          "125805.462500",
          "125806.952500",
          "125808.442500",
          "125809.932500",
          "125811.422500",
          "125812.912500",
          "125814.402500",
          "125815.892500",
          "125817.382500",
          "125818.872500",
          "125820.362500",
          "125821.852500",
          "125823.342500",
          "125824.832500",
          "125826.322500",
          "125827.812500",
          "125829.302500",
          "125830.792500",
          "125832.282500",
          "125833.772500",
          "125835.262500",
          "125836.752500",
          "125838.242500",
          "125839.732500",
          "125841.222500",
          "125842.712500",
          "125844.202500",
          "125845.692500",
          "125847.182500",
          "125848.672500",
          "125850.162500",
          "125851.652500",
          "125853.142500",
          "125854.632500",
          "125856.122500",
          "125857.612500",
          "125859.102500",
          "125900.592500",
          "125902.082500",
          "125903.572500",
          "125905.062500",
          "125906.552500",
          "125908.042500",
          "125909.532500",
          "125911.022500",
          "125912.512500",
          "125914.002500",
          "125915.492500",
          "125916.982500",
          "125918.472500",
          "125919.962500",
          "125921.452500",
          "125922.942500",
          "125924.432500",
          "125925.922500",
          "125927.412500",
          "125928.902500",
          "125930.392500",
          "125931.882500",
          "125933.372500",
          "125934.862500",
          "125936.352500",
          "125937.842500",
          "125939.332500",
          "125940.822500",
          "125942.312500",
          "125943.802500",
          "125945.292500",
          "125946.782500",
          "125948.272500",
          "125949.762500",
          "125951.252500",
          "125952.742500",
          "125954.232500",
          "125955.722500",
          "125957.212500",
          "125958.702500",
          "130000.192500",
          "130001.682500",
          "130003.172500",
          "130004.662500",
          "130006.152500",
          "130007.642500",
          "130009.132500",
          "130010.622500",
          "130012.112500",
          "130013.602500",
          "130015.092500",
          "130016.582500",
          "130018.072500",
          "130019.562500",
          "130021.052500",
          "130022.542500",
          "130024.032500",
          "130025.522500",
          "130027.012500",
          "130028.502500",
          "130029.992500",
          "130031.482500",
          "130032.972500"
        ],
        "ContentTime": [
          "125145.449000",
          "125145.452000",
          "125145.455000",
          "125145.466000",
          "125145.469000",
          "125145.472000",
          "125145.474000",
          "125145.477000",
          "125145.480000",
          "125145.483000",
          "125145.486000",
          "125145.494000",
          "125145.497000",
          "125145.500000",
          "125145.503000",
          "125145.506000",
          "125145.508000",
          "125145.511000",
          "125145.514000",
          "125145.517000",
          "125145.528000",
          "125145.530000",
          "125205.418000",
          "125205.421000",
          "125205.424000",
          "125205.439000",
          "125205.442000",
          "125205.445000",
          "125205.447000",
          "125205.450000",
          "125205.453000",
          "125205.456000",
          "125205.459000",
          "125205.462000",
          "125205.465000",
          "125205.467000",
          "125205.470000",
          "125205.473000",
          "125205.476000",
          "125205.479000",
          "125205.482000",
          "125205.485000",
          "125225.418000",
          "125225.421000",
          "125225.424000",
          "125225.426000",
          "125225.430000",
          "125225.432000",
          "125225.435000",
          "125225.438000",
          "125225.441000",
          "125225.444000",
          "125225.447000",
          "125225.450000",
          "125225.453000",
          "125225.455000",
          "125225.458000",
          "125225.461000",
          "125225.464000",
          "125225.467000",
          "125225.470000",
          "125225.472000",
          "125245.418000",
          "125245.421000",
          "125245.424000",
          "125245.427000",
          "125245.430000",
          "125245.433000",
          "125245.436000",
          "125245.439000",
          "125245.441000",
          "125245.444000",
          "125245.447000",
          "125245.450000",
          "125245.453000",
          "125245.456000",
          "125245.459000",
          "125245.461000",
          "125245.464000",
          "125245.467000",
          "125245.470000",
          "125245.473000",
          "125245.476000",
          "125305.417000",
          "125305.420000",
          "125305.423000",
          "125305.426000",
          "125305.429000",
          "125305.431000",
          "125305.434000",
          "125305.437000",
          "125305.440000",
          "125305.443000",
          "125305.446000",
          "125305.449000",
          "125305.451000",
          "125305.454000",
          "125305.457000",
          "125305.460000",
          "125305.463000",
          "125305.466000",
          "125305.469000",
          "125305.472000",
          "125345.418000",
          "125345.421000",
          "125345.424000",
          "125345.427000",
          "125345.430000",
          "125345.433000",
          "125345.436000",
          "125345.438000",
          "125345.441000",
          "125345.444000",
          "125345.447000",
          "125345.450000",
          "125345.453000",
          "125345.456000",
          "125345.459000",
          "125345.462000",
          "125345.465000",
          "125345.468000",
          "125345.479000",
          "125345.482000",
          "125345.485000",
          "125345.488000",
          "125345.491000",
          "125345.494000",
          "125345.496000",
          "125345.499000",
          "125345.502000",
          "125345.505000",
          "125405.418000",
          "125405.421000",
          "125405.424000",
          "125405.427000",
          "125405.430000",
          "125405.433000",
          "125405.435000",
          "125405.438000",
          "125405.441000",
          "125405.444000",
          "125405.447000",
          "125405.450000",
          "125405.453000",
          "125445.418000",
          "125445.421000",
          "125445.424000",
          "125445.427000",
          "125445.430000",
          "125445.433000",
          "125445.436000",
          "125445.439000",
          "125445.442000",
          "125445.444000",
          "125445.447000",
          "125445.450000",
          "125445.453000",
          "125445.456000",
          "125445.459000",
          "125445.462000",
          "125445.465000",
          "125445.468000",
          "125445.471000",
          "125445.474000",
          "125445.477000",
          "125445.480000",
          "125445.483000",
          "125445.486000",
          "125445.489000",
          "125445.492000",
          "125445.495000",
          "125525.417000",
          "125525.420000",
          "125525.423000",
          "125525.426000",
          "125525.429000",
          "125525.432000",
          "125525.435000",
          "125525.438000",
          "125525.441000",
          "125525.443000",
          "125525.446000",
          "125525.449000",
          "125525.452000",
          "125525.455000",
          "125525.458000",
          "125525.461000",
          "125525.464000",
          "125525.467000",
          "125525.470000",
          "125525.473000",
          "125525.476000",
          "125525.478000",
          "125525.481000",
          "125525.484000",
          "125525.487000",
          "125525.490000",
          "125525.493000",
          "125605.418000",
          "125605.421000",
          "125605.427000",
          "125605.429000",
          "125605.432000",
          "125605.435000",
          "125605.438000",
          "125605.441000",
          "125605.444000",
          "125605.447000",
          "125605.450000",
          "125605.453000",
          "125605.456000",
          "125605.458000",
          "125605.462000",
          "125605.479000",
          "125605.482000",
          "125605.485000",
          "125605.495000",
          "125605.498000",
          "125605.501000",
          "125605.504000",
          "125605.507000",
          "125605.510000",
          "125605.512000",
