{
  "aor": 0.0006633743842364532,
  "aqi": 0.004903127684729064,
  "bids_meta": {
    "AcquisitionMatrixPE": 104,
    "AcquisitionNumber": 1,
    "AcquisitionTime": "11:07:25.607500",
    "BandwidthPerPixelPhaseEncode": 17.17,
    "BaseResolution": 104,
    "BodyPartExamined": "BRAIN",
    "CogAtlasID": "trm_4c898da401420",
    "ConsistencyInfo": "N4_VE11C_LATEST_20160120",
    "ConversionSoftware": "dcm2niix",
    "ConversionSoftwareVersion": "v1.0.20171215 (OpenJPEG build) GCC7.3.0",
    "DerivedVendorReportedEchoSpacing": 0.000560011,
    "DeviceSerialNumber": "167006",
    "DwellTime": 2.1e-06,
    "EchoTime": 0.037,
    "EchoTrainLength": 104,
    "EffectiveEchoSpacing": 0.000560011,
    "FlipAngle": 52,
    "ImageComments": "Unaliased_MB4_PE3_LB",
    "ImageOrientationPatientDICOM": [
      0.999324,
      0.0364407,
      0.00485079,
      -0.033151,
      0.950313,
      -0.309525
    ],
    "ImageType": [
      "ORIGINAL",
      "PRIMARY",
      "M",
      "MB",
      "ND",
      "MOSAIC"
    ],
    "InPlanePhaseEncodingDirectionDICOM": "COL",
    "InstitutionAddress": "Chemin_Queen-Mary_4565_Montreal_District_CA_H3W_1W5",
    "InstitutionName": "IUGM",
    "InstitutionalDepartmentName": "Department",
    "MRAcquisitionType": "2D",
    "MagneticFieldStrength": 3,
    "Manufacturer": "Siemens",
    "ManufacturersModelName": "Prisma_fit",
    "Modality": "MR",
    "MultibandAccelerationFactor": 4,
    "PartialFourier": 1,
    "PatientPosition": "HFS",
    "PercentPhaseFOV": 100,
    "PhaseEncodingDirection": "j-",
    "PhaseEncodingSteps": 104,
    "PhaseResolution": 1,
    "PixelBandwidth": 2290,
    "ProcedureStepDescription": "video5_generic",
    "ProtocolName": "func_task-wolf2",
    "PulseSequenceDetails": "%CustomerSeq%_cmrr_mbep2d_bold",
    "ReceiveCoilActiveElements": "HC1-7;NC1,2",
    "ReceiveCoilName": "HeadNeck_64",
    "ReconMatrixPE": 104,
    "RepetitionTime": 1.49,
    "SAR": 0.0303927,
    "ScanOptions": "FS",
    "ScanningSequence": "EP",
    "SequenceName": "epfid2d1_104",
    "SequenceVariant": "SK_SS",
    "SeriesDescription": "func_task-wolf2",
    "SeriesNumber": 9,
    "ShimSetting": [
      633,
      -7151,
      -8827,
      633,
      47,
      171,
      3,
      3
    ],
    "SliceThickness": 2,
    "SliceTiming": [
      0,
      0.785,
      0.0975,
      0.8825,
      0.1975,
      0.98,
      0.295,
      1.0775,
      0.3925,
      1.175,
      0.49,
      1.275,
      0.5875,
      1.3725,
      0.6875,
      0,
      0.785,
      0.0975,
      0.8825,
      0.1975,
      0.98,
      0.295,
      1.0775,
      0.3925,
      1.175,
      0.49,
      1.275,
      0.5875,
      1.3725,
      0.6875,
      0,
      0.785,
      0.0975,
      0.8825,
      0.1975,
      0.98,
      0.295,
      1.0775,
      0.3925,
      1.175,
      0.49,
      1.275,
      0.5875,
      1.3725,
      0.6875,
      0,
      0.785,
      0.0975,
      0.8825,
      0.1975,
      0.98,
      0.295,
      1.0775,
      0.3925,
      1.175,
      0.49,
      1.275,
      0.5875,
      1.3725,
      0.6875
    ],
    "SoftwareVersions": "syngo_MR_E11",
    "SpacingBetweenSlices": 2,
    "StationName": "MRC35049",
    "TaskName": "wolf02",
    "TotalReadoutTime": 0.0576811,
    "TxRefAmp": 210.453,
    "dataset": "<unset>",
    "dcmmeta_affine": [
      [
        -1.9986480474472046,
        -0.06630204617977142,
        0.03177810460329056,
        110.15936279296875
      ],
      [
        -0.07288133352994919,
        1.9006267786026,
        -0.6183091998100281,
        -64.52610778808594
      ],
      [
        0.00970157328993082,
        0.6190493106842041,
        1.901758074760437,
        -66.86119842529297
      ],
      [
        0.0,
        0.0,
        0.0,
        1.0
      ]
    ],
    "dcmmeta_reorient_transform": [
      [
        0.0,
        -1.0,
        0.0,
        103.0
      ],
      [
        1.0,
        0.0,
        0.0,
        0.0
      ],
      [
        0.0,
        0.0,
        1.0,
        0.0
      ],
      [
        0.0,
        0.0,
        0.0,
        1.0
      ]
    ],
    "dcmmeta_shape": [
      104,
      104,
      60,
      406
    ],
    "dcmmeta_slice_dim": 2,
    "dcmmeta_version": 0.6,
    "global": {
      "const": {
        "AcquisitionMatrix": [
          104,
          0,
          0,
          104
        ],
        "AngioFlag": "N",
        "BitsAllocated": 16,
        "BitsStored": 16,
        "BodyPartExamined": "BRAIN",
        "Columns": 832,
        "EchoNumbers": 1,
        "EchoTime": 37.0,
        "EchoTrainLength": 104,
        "FlipAngle": 52.0,
        "HighBit": 15,
        "ImageOrientationPatient": [
          0.99932404538707,
          0.03644066659268,
          0.00485078648288,
          -0.033151023311,
          0.9503133706535,
          -0.3095246471779
        ],
        "ImagePositionPatient": [
          -806.70421524678,
          -849.59538682085,
          218.70345007191
        ],
        "ImageType": [
          "ORIGINAL",
          "PRIMARY",
          "M",
          "MB",
          "ND",
          "MOSAIC"
        ],
        "ImagedNucleus": "1H",
        "ImagingFrequency": 123.259331,
        "InPlanePhaseEncodingDirection": "COL",
        "MRAcquisitionType": "2D",
        "MagneticFieldStrength": 3.0,
        "Manufacturer": "SIEMENS",
        "ManufacturerModelName": "Prisma_fit",
        "Modality": "MR",
        "NumberOfAverages": 1.0,
        "NumberOfPhaseEncodingSteps": 104,
        "PercentPhaseFieldOfView": 100.0,
        "PercentSampling": 100.0,
        "PerformedProcedureStepStartTime": "104359.717000",
        "PhotometricInterpretation": "MONOCHROME2",
        "PixelBandwidth": 2290.0,
        "PixelRepresentation": 0,
        "PixelSpacing": [
          2.0,
          2.0
        ],
        "ProtocolName": "func_task-wolf2",
        "RepetitionTime": 1490.0,
        "Rows": 832,
        "SAR": 0.03039271671965,
        "SamplesPerPixel": 1,
        "ScanOptions": "FS",
        "ScanningSequence": "EP",
        "SequenceName": "epfid2d1_104",
        "SequenceVariant": [
          "SK",
          "SS"
        ],
        "SeriesDescription": "func_task-wolf2",
        "SeriesNumber": 9,
        "SeriesTime": "110854.760000",
        "SliceLocation": -41.878040639194,
        "SliceThickness": 2.0,
        "SmallestImagePixelValue": 0,
        "SoftwareVersions": "syngo MR E11",
        "SpacingBetweenSlices": 2.0000000006176,
        "SpecificCharacterSet": "ISO_IR 100",
        "StudyID": "1",
        "StudyTime": "104359.629000",
        "TransmitCoilName": "Body",
        "VariableFlipAngleFlag": "N",
        "WindowCenterWidthExplanation": "Algo1",
        "dBdt": 0.0
      },
      "slices": {}
    },
    "modality": "bold",
    "session_id": "003",
    "subject_id": "03",
    "task_id": "wolf02",
    "time": {
      "samples": {
        "AcquisitionNumber": [
          1,
          2,
          3,
          4,
          5,
          6,
          7,
          8,
          9,
          10,
          11,
          12,
          13,
          14,
          15,
          16,
          17,
          18,
          19,
          20,
          21,
          22,
          23,
          24,
          25,
          26,
          27,
          28,
          29,
          30,
          31,
          32,
          33,
          34,
          35,
          36,
          37,
          38,
          39,
          40,
          41,
          42,
          43,
          44,
          45,
          46,
          47,
          48,
          49,
          50,
          51,
          52,
          53,
          54,
          55,
          56,
          57,
          58,
          59,
          60,
          61,
          62,
          63,
          64,
          65,
          66,
          67,
          68,
          69,
          70,
          71,
          72,
          73,
          74,
          75,
          76,
          77,
          78,
          79,
          80,
          81,
          82,
          83,
          84,
          85,
          86,
          87,
          88,
          89,
          90,
          91,
          92,
          93,
          94,
          95,
          96,
          97,
          98,
          99,
          100,
          101,
          102,
          103,
          104,
          105,
          106,
          107,
          108,
          109,
          110,
          111,
          112,
          113,
          114,
          115,
          116,
          117,
          118,
          119,
          120,
          121,
          122,
          123,
          124,
          125,
          126,
          127,
          128,
          129,
          130,
          131,
          132,
          133,
          134,
          135,
          136,
          137,
          138,
          139,
          140,
          141,
          142,
          143,
          144,
          145,
          146,
          147,
          148,
          149,
          150,
          151,
          152,
          153,
          154,
          155,
          156,
          157,
          158,
          159,
          160,
          161,
          162,
          163,
          164,
          165,
          166,
          167,
          168,
          169,
          170,
          171,
          172,
          173,
          174,
          175,
          176,
          177,
          178,
          179,
          180,
          181,
          182,
          183,
          184,
          185,
          186,
          187,
          188,
          189,
          190,
          191,
          192,
          193,
          194,
          195,
          196,
          197,
          198,
          199,
          200,
          201,
          202,
          203,
          204,
          205,
          206,
          207,
          208,
          209,
          210,
          211,
          212,
          213,
          214,
          215,
          216,
          217,
          218,
          219,
          220,
          221,
          222,
          223,
          224,
          225,
          226,
          227,
          228,
          229,
          230,
          231,
          232,
          233,
          234,
          235,
          236,
          237,
          238,
          239,
          240,
          241,
          242,
          243,
          244,
          245,
          246,
          247,
          248,
          249,
          250,
          251,
          252,
          253,
          254,
          255,
          256,
          257,
          258,
          259,
          260,
          261,
          262,
          263,
          264,
          265,
          266,
          267,
          268,
          269,
          270,
          271,
          272,
          273,
          274,
          275,
          276,
          277,
          278,
          279,
          280,
          281,
          282,
          283,
          284,
          285,
          286,
          287,
          288,
          289,
          290,
          291,
          292,
          293,
          294,
          295,
          296,
          297,
          298,
          299,
          300,
          301,
          302,
          303,
          304,
          305,
          306,
          307,
          308,
          309,
          310,
          311,
          312,
          313,
          314,
          315,
          316,
          317,
          318,
          319,
          320,
          321,
          322,
          323,
          324,
          325,
          326,
          327,
          328,
          329,
          330,
          331,
          332,
          333,
          334,
          335,
          336,
          337,
          338,
          339,
          340,
          341,
          342,
          343,
          344,
          345,
          346,
          347,
          348,
          349,
          350,
          351,
          352,
          353,
          354,
          355,
          356,
          357,
          358,
          359,
          360,
          361,
          362,
          363,
          364,
          365,
          366,
          367,
          368,
          369,
          370,
          371,
          372,
          373,
          374,
          375,
          376,
          377,
          378,
          379,
          380,
          381,
          382,
          383,
          384,
          385,
          386,
          387,
          388,
          389,
          390,
          391,
          392,
          393,
          394,
          395,
          396,
          397,
          398,
          399,
          400,
          401,
          402,
          403,
          404,
          405,
          406
        ],
        "AcquisitionTime": [
          "110725.607500",
          "110727.097500",
          "110728.587500",
          "110730.077500",
          "110731.567500",
          "110733.057500",
          "110734.547500",
          "110736.037500",
          "110737.527500",
          "110739.017500",
          "110740.507500",
          "110741.997500",
          "110743.487500",
          "110744.977500",
          "110746.467500",
          "110747.957500",
          "110749.447500",
          "110750.937500",
          "110752.427500",
          "110753.917500",
          "110755.407500",
          "110756.897500",
          "110758.387500",
          "110759.877500",
          "110801.367500",
          "110802.857500",
          "110804.347500",
          "110805.837500",
          "110807.327500",
          "110808.817500",
          "110810.307500",
          "110811.797500",
          "110813.287500",
          "110814.777500",
          "110816.267500",
          "110817.757500",
          "110819.247500",
          "110820.737500",
          "110822.227500",
          "110823.717500",
          "110825.207500",
          "110826.697500",
          "110828.187500",
          "110829.677500",
          "110831.167500",
          "110832.657500",
          "110834.147500",
          "110835.637500",
          "110837.127500",
          "110838.617500",
          "110840.107500",
          "110841.597500",
          "110843.087500",
          "110844.577500",
          "110846.067500",
          "110847.557500",
          "110849.047500",
          "110850.537500",
          "110852.027500",
          "110853.517500",
          "110855.007500",
          "110856.497500",
          "110857.987500",
          "110859.477500",
          "110900.967500",
          "110902.457500",
          "110903.947500",
          "110905.437500",
          "110906.927500",
          "110908.417500",
          "110909.907500",
          "110911.397500",
          "110912.887500",
          "110914.377500",
          "110915.867500",
          "110917.357500",
          "110918.847500",
          "110920.337500",
          "110921.827500",
          "110923.317500",
          "110924.807500",
          "110926.297500",
          "110927.787500",
          "110929.277500",
          "110930.767500",
          "110932.257500",
          "110933.747500",
          "110935.237500",
          "110936.727500",
          "110938.217500",
          "110939.707500",
          "110941.197500",
          "110942.687500",
          "110944.177500",
          "110945.667500",
          "110947.157500",
          "110948.647500",
          "110950.137500",
          "110951.627500",
          "110953.117500",
          "110954.607500",
          "110956.097500",
          "110957.587500",
          "110959.077500",
          "111000.567500",
          "111002.057500",
          "111003.547500",
          "111005.037500",
          "111006.527500",
          "111008.017500",
          "111009.507500",
          "111010.997500",
          "111012.487500",
          "111013.977500",
          "111015.467500",
          "111016.957500",
          "111018.447500",
          "111019.937500",
          "111021.427500",
          "111022.917500",
          "111024.407500",
          "111025.897500",
          "111027.387500",
          "111028.877500",
          "111030.367500",
          "111031.857500",
          "111033.347500",
          "111034.837500",
          "111036.327500",
          "111037.817500",
          "111039.307500",
          "111040.797500",
          "111042.287500",
          "111043.777500",
          "111045.267500",
          "111046.757500",
          "111048.247500",
          "111049.737500",
          "111051.227500",
          "111052.717500",
          "111054.207500",
          "111055.697500",
          "111057.187500",
          "111058.677500",
          "111100.167500",
          "111101.657500",
          "111103.147500",
          "111104.637500",
          "111106.127500",
          "111107.617500",
          "111109.107500",
          "111110.597500",
          "111112.087500",
          "111113.577500",
          "111115.067500",
          "111116.557500",
          "111118.047500",
          "111119.537500",
          "111121.027500",
          "111122.517500",
          "111124.007500",
          "111125.497500",
          "111126.987500",
          "111128.477500",
          "111129.967500",
          "111131.457500",
          "111132.947500",
          "111134.437500",
          "111135.927500",
          "111137.417500",
          "111138.907500",
          "111140.397500",
          "111141.887500",
          "111143.377500",
          "111144.867500",
          "111146.357500",
          "111147.847500",
          "111149.337500",
          "111150.827500",
          "111152.317500",
          "111153.807500",
          "111155.297500",
          "111156.787500",
          "111158.277500",
          "111159.767500",
          "111201.257500",
          "111202.747500",
          "111204.237500",
          "111205.727500",
          "111207.217500",
          "111208.707500",
          "111210.197500",
          "111211.687500",
          "111213.177500",
          "111214.667500",
          "111216.157500",
          "111217.647500",
          "111219.137500",
          "111220.627500",
          "111222.117500",
          "111223.607500",
          "111225.097500",
          "111226.587500",
          "111228.077500",
          "111229.567500",
          "111231.057500",
          "111232.547500",
          "111234.037500",
          "111235.527500",
          "111237.017500",
          "111238.507500",
          "111239.997500",
          "111241.487500",
          "111242.977500",
          "111244.467500",
          "111245.957500",
          "111247.447500",
          "111248.937500",
          "111250.427500",
          "111251.917500",
          "111253.407500",
          "111254.897500",
          "111256.387500",
          "111257.877500",
          "111259.367500",
          "111300.857500",
          "111302.347500",
          "111303.837500",
          "111305.327500",
          "111306.817500",
          "111308.307500",
          "111309.797500",
          "111311.287500",
          "111312.777500",
          "111314.267500",
          "111315.757500",
          "111317.247500",
          "111318.737500",
          "111320.227500",
          "111321.717500",
          "111323.207500",
          "111324.697500",
          "111326.187500",
          "111327.677500",
          "111329.167500",
          "111330.657500",
          "111332.147500",
          "111333.637500",
          "111335.127500",
          "111336.617500",
          "111338.107500",
          "111339.597500",
          "111341.087500",
          "111342.577500",
          "111344.067500",
          "111345.557500",
          "111347.047500",
          "111348.537500",
          "111350.027500",
          "111351.517500",
          "111353.007500",
          "111354.497500",
          "111355.987500",
          "111357.477500",
          "111358.967500",
          "111400.457500",
          "111401.947500",
          "111403.437500",
          "111404.927500",
          "111406.417500",
          "111407.907500",
          "111409.397500",
          "111410.887500",
          "111412.377500",
          "111413.867500",
          "111415.357500",
          "111416.847500",
          "111418.337500",
          "111419.827500",
          "111421.317500",
          "111422.807500",
          "111424.297500",
          "111425.787500",
          "111427.277500",
          "111428.767500",
          "111430.257500",
          "111431.747500",
          "111433.237500",
          "111434.727500",
          "111436.217500",
          "111437.707500",
          "111439.197500",
          "111440.687500",
          "111442.177500",
          "111443.667500",
          "111445.157500",
          "111446.647500",
          "111448.137500",
          "111449.627500",
          "111451.117500",
          "111452.607500",
          "111454.097500",
          "111455.587500",
          "111457.077500",
          "111458.567500",
          "111500.057500",
          "111501.547500",
          "111503.037500",
          "111504.527500",
          "111506.017500",
          "111507.507500",
          "111508.997500",
          "111510.487500",
          "111511.977500",
          "111513.467500",
          "111514.957500",
          "111516.447500",
          "111517.937500",
          "111519.427500",
          "111520.917500",
          "111522.407500",
          "111523.897500",
          "111525.387500",
          "111526.877500",
          "111528.367500",
          "111529.857500",
          "111531.347500",
          "111532.837500",
          "111534.327500",
          "111535.817500",
          "111537.307500",
          "111538.797500",
          "111540.287500",
          "111541.777500",
          "111543.267500",
          "111544.757500",
          "111546.247500",
          "111547.737500",
          "111549.227500",
          "111550.717500",
          "111552.207500",
          "111553.697500",
          "111555.187500",
          "111556.677500",
          "111558.167500",
          "111559.657500",
          "111601.147500",
          "111602.637500",
          "111604.127500",
          "111605.617500",
          "111607.107500",
          "111608.597500",
          "111610.087500",
          "111611.577500",
          "111613.067500",
          "111614.557500",
          "111616.047500",
          "111617.537500",
          "111619.027500",
          "111620.517500",
          "111622.007500",
          "111623.497500",
          "111624.987500",
          "111626.477500",
          "111627.967500",
          "111629.457500",
          "111630.947500",
          "111632.437500",
          "111633.927500",
          "111635.417500",
          "111636.907500",
          "111638.397500",
          "111639.887500",
          "111641.377500",
          "111642.867500",
          "111644.357500",
          "111645.847500",
          "111647.337500",
          "111648.827500",
          "111650.317500",
          "111651.807500",
          "111653.297500",
          "111654.787500",
          "111656.277500",
          "111657.767500",
          "111659.257500",
          "111700.747500",
          "111702.237500",
          "111703.727500",
          "111705.217500",
          "111706.707500",
          "111708.197500",
          "111709.687500",
          "111711.177500",
          "111712.667500",
          "111714.157500",
          "111715.647500",
          "111717.137500",
          "111718.627500",
          "111720.117500",
          "111721.607500",
          "111723.097500",
          "111724.587500",
          "111726.077500",
          "111727.567500",
          "111729.057500"
        ],
        "ContentTime": [
          "110854.762000",
          "110854.765000",
          "110854.769000",
          "110854.801000",
          "110854.804000",
          "110854.807000",
          "110854.810000",
          "110854.813000",
          "110854.815000",
          "110854.818000",
          "110854.821000",
          "110854.824000",
          "110854.827000",
          "110854.830000",
          "110854.836000",
          "110854.840000",
          "110854.842000",
          "110854.845000",
          "110854.848000",
          "110854.851000",
          "110854.854000",
          "110854.857000",
          "110854.860000",
          "110854.863000",
          "110854.865000",
          "110854.868000",
          "110854.871000",
          "110854.874000",
          "110854.877000",
          "110854.880000",
          "110854.883000",
          "110854.886000",
          "110914.734000",
          "110914.737000",
          "110914.740000",
          "110914.743000",
          "110914.745000",
          "110914.748000",
          "110914.751000",
          "110914.754000",
          "110914.757000",
          "110914.760000",
          "110914.763000",
          "110914.765000",
          "110914.768000",
          "110914.771000",
          "110914.774000",
          "110914.785000",
          "110914.788000",
          "110914.791000",
          "110914.793000",
          "110914.796000",
          "110934.734000",
          "110934.737000",
          "110934.740000",
          "110934.743000",
          "110934.745000",
          "110934.748000",
          "110934.751000",
          "110934.754000",
          "110934.757000",
          "110934.760000",
          "110934.762000",
          "110934.765000",
          "110934.768000",
          "110934.771000",
          "110934.774000",
          "110934.777000",
          "110934.780000",
          "110934.783000",
          "110934.785000",
          "110934.788000",
          "110954.734000",
          "110954.737000",
          "110954.740000",
          "110954.743000",
          "110954.745000",
          "110954.748000",
          "110954.751000",
          "110954.754000",
          "110954.757000",
          "110954.760000",
          "110954.763000",
          "110954.765000",
          "110954.768000",
          "110954.772000",
          "110954.775000",
          "110954.778000",
          "110954.780000",
          "110954.783000",
          "110954.786000",
          "110954.789000",
          "111014.734000",
          "111014.737000",
          "111014.743000",
          "111014.746000",
          "111014.749000",
          "111014.752000",
          "111014.755000",
          "111014.757000",
          "111014.760000",
          "111014.763000",
          "111014.766000",
          "111014.769000",
          "111014.772000",
          "111014.775000",
          "111014.778000",
          "111014.781000",
          "111014.784000",
          "111014.786000",
          "111014.789000",
          "111014.792000",
          "111054.734000",
          "111054.737000",
          "111054.740000",
          "111054.743000",
          "111054.746000",
          "111054.748000",
          "111054.751000",
          "111054.754000",
          "111054.757000",
          "111054.760000",
          "111054.763000",
          "111054.766000",
          "111054.769000",
          "111054.771000",
          "111054.774000",
          "111054.777000",
          "111054.780000",
          "111054.783000",
          "111054.786000",
          "111054.789000",
          "111054.792000",
          "111054.795000",
          "111054.798000",
          "111054.800000",
          "111054.803000",
          "111054.806000",
          "111054.809000",
          "111054.812000",
          "111134.734000",
          "111134.737000",
          "111134.740000",
          "111134.743000",
          "111134.746000",
          "111134.749000",
          "111134.752000",
          "111134.754000",
          "111134.757000",
          "111134.760000",
          "111134.763000",
          "111134.766000",
          "111134.769000",
          "111134.771000",
          "111134.774000",
          "111134.777000",
          "111134.794000",
          "111134.797000",
          "111134.800000",
          "111134.803000",
          "111134.806000",
          "111134.808000",
          "111134.811000",
          "111134.814000",
          "111134.817000",
          "111134.820000",
          "111134.823000",
          "111214.734000",
          "111214.737000",
          "111214.740000",
          "111214.743000",
          "111214.746000",
          "111214.748000",
          "111214.751000",
          "111214.754000",
          "111214.757000",
          "111214.760000",
          "111214.763000",
          "111214.766000",
          "111214.978000",
          "111214.981000",
          "111214.984000",
          "111214.986000",
          "111214.989000",
          "111214.992000",
          "111214.995000",
          "111214.998000",
          "111215.002000",
          "111215.005000",
          "111215.008000",
          "111215.011000",
          "111215.013000",
          "111215.016000",
          "111254.735000",
          "111254.738000",
          "111254.751000",
          "111254.754000",
          "111254.757000",
          "111254.760000",
          "111254.763000",
          "111254.766000",
          "111254.769000",
          "111254.772000",
          "111254.774000",
          "111254.777000",
          "111254.780000",
          "111254.783000",
          "111254.786000",
          "111254.789000",
          "111254.792000",
          "111254.794000",
          "111254.797000",
          "111254.800000",
          "111254.803000",
          "111254.806000",
          "111254.809000",
          "111254.812000",
          "111254.814000",
          "111254.817000",
          "111254.820000",
          "111334.734000",
          "111334.737000",
          "111334.740000",
          "111334.743000",
