{
  "aor": 0.0007862807881773399,
  "aqi": 0.007175423054187191,
  "bids_meta": {
    "AcquisitionMatrixPE": 104,
    "AcquisitionNumber": 1,
    "AcquisitionTime": "11:50:7.675000",
    "BandwidthPerPixelPhaseEncode": 17.17,
    "BaseResolution": 104,
    "BodyPartExamined": "BRAIN",
    "CogAtlasID": "trm_4c898da401420",
    "ConsistencyInfo": "N4_VE11C_LATEST_20160120",
    "ConversionSoftware": "dcm2niix",
    "ConversionSoftwareVersion": "v1.0.20171215 (OpenJPEG build) GCC7.3.0",
    "DerivedVendorReportedEchoSpacing": 0.000560011,
    "DeviceSerialNumber": "167006",
    "DwellTime": 2.1e-06,
    "EchoTime": 0.037,
    "EchoTrainLength": 104,
    "EffectiveEchoSpacing": 0.000560011,
    "FlipAngle": 52,
    "ImageComments": "Unaliased_MB4_PE3_LB",
    "ImageOrientationPatientDICOM": [
      0.999324,
      0.0364407,
      0.00485079,
      -0.033151,
      0.950313,
      -0.309525
    ],
    "ImageType": [
      "ORIGINAL",
      "PRIMARY",
      "M",
      "MB",
      "ND",
      "MOSAIC"
    ],
    "InPlanePhaseEncodingDirectionDICOM": "COL",
    "InstitutionAddress": "Chemin_Queen-Mary_4565_Montreal_District_CA_H3W_1W5",
    "InstitutionName": "IUGM",
    "InstitutionalDepartmentName": "Department",
    "MRAcquisitionType": "2D",
    "MagneticFieldStrength": 3,
    "Manufacturer": "Siemens",
    "ManufacturersModelName": "Prisma_fit",
    "Modality": "MR",
    "MultibandAccelerationFactor": 4,
    "PartialFourier": 1,
    "PatientPosition": "HFS",
    "PercentPhaseFOV": 100,
    "PhaseEncodingDirection": "j-",
    "PhaseEncodingSteps": 104,
    "PhaseResolution": 1,
    "PixelBandwidth": 2290,
    "ProcedureStepDescription": "video5_generic",
    "ProtocolName": "func_task-wolf6",
    "PulseSequenceDetails": "%CustomerSeq%_cmrr_mbep2d_bold",
    "ReceiveCoilActiveElements": "HC1-7;NC1,2",
    "ReceiveCoilName": "HeadNeck_64",
    "ReconMatrixPE": 104,
    "RepetitionTime": 1.49,
    "SAR": 0.0303927,
    "ScanOptions": "FS",
    "ScanningSequence": "EP",
    "SequenceName": "epfid2d1_104",
    "SequenceVariant": "SK_SS",
    "SeriesDescription": "func_task-wolf6",
    "SeriesNumber": 17,
    "ShimSetting": [
      633,
      -7151,
      -8827,
      633,
      47,
      171,
      3,
      3
    ],
    "SliceThickness": 2,
    "SliceTiming": [
      0,
      0.785,
      0.1,
      0.8825,
      0.1975,
      0.98,
      0.295,
      1.08,
      0.3925,
      1.1775,
      0.49,
      1.275,
      0.59,
      1.3725,
      0.6875,
      0,
      0.785,
      0.1,
      0.8825,
      0.1975,
      0.98,
      0.295,
      1.08,
      0.3925,
      1.1775,
      0.49,
      1.275,
      0.59,
      1.3725,
      0.6875,
      0,
      0.785,
      0.1,
      0.8825,
      0.1975,
      0.98,
      0.295,
      1.08,
      0.3925,
      1.1775,
      0.49,
      1.275,
      0.59,
      1.3725,
      0.6875,
      0,
      0.785,
      0.1,
      0.8825,
      0.1975,
      0.98,
      0.295,
      1.08,
      0.3925,
      1.1775,
      0.49,
      1.275,
      0.59,
      1.3725,
      0.6875
    ],
    "SoftwareVersions": "syngo_MR_E11",
    "SpacingBetweenSlices": 2,
    "StationName": "MRC35049",
    "TaskName": "wolf06",
    "TotalReadoutTime": 0.0576811,
    "TxRefAmp": 210.453,
    "dataset": "<unset>",
    "dcmmeta_affine": [
      [
        -1.9986480474472046,
        -0.06630204617977142,
        0.03177810460329056,
        110.15936279296875
      ],
      [
        -0.07288133352994919,
        1.9006267786026,
        -0.6183091998100281,
        -64.52610778808594
      ],
      [
        0.00970157328993082,
        0.6190493106842041,
        1.901758074760437,
        -66.86119842529297
      ],
      [
        0.0,
        0.0,
        0.0,
        1.0
      ]
    ],
    "dcmmeta_reorient_transform": [
      [
        0.0,
        -1.0,
        0.0,
        103.0
      ],
      [
        1.0,
        0.0,
        0.0,
        0.0
      ],
      [
        0.0,
        0.0,
        1.0,
        0.0
      ],
      [
        0.0,
        0.0,
        0.0,
        1.0
      ]
    ],
    "dcmmeta_shape": [
      104,
      104,
      60,
      406
    ],
    "dcmmeta_slice_dim": 2,
    "dcmmeta_version": 0.6,
    "global": {
      "const": {
        "AcquisitionMatrix": [
          104,
          0,
          0,
          104
        ],
        "AngioFlag": "N",
        "BitsAllocated": 16,
        "BitsStored": 16,
        "BodyPartExamined": "BRAIN",
        "Columns": 832,
        "EchoNumbers": 1,
        "EchoTime": 37.0,
        "EchoTrainLength": 104,
        "FlipAngle": 52.0,
        "HighBit": 15,
        "ImageOrientationPatient": [
          0.99932404538707,
          0.03644066659268,
          0.00485078648288,
          -0.033151023311,
          0.9503133706535,
          -0.3095246471779
        ],
        "ImagePositionPatient": [
          -806.70421524678,
          -849.59538682085,
          218.70345007191
        ],
        "ImageType": [
          "ORIGINAL",
          "PRIMARY",
          "M",
          "MB",
          "ND",
          "MOSAIC"
        ],
        "ImagedNucleus": "1H",
        "ImagingFrequency": 123.259346,
        "InPlanePhaseEncodingDirection": "COL",
        "MRAcquisitionType": "2D",
        "MagneticFieldStrength": 3.0,
        "Manufacturer": "SIEMENS",
        "ManufacturerModelName": "Prisma_fit",
        "Modality": "MR",
        "NumberOfAverages": 1.0,
        "NumberOfPhaseEncodingSteps": 104,
        "PercentPhaseFieldOfView": 100.0,
        "PercentSampling": 100.0,
        "PerformedProcedureStepStartTime": "104359.717000",
        "PhotometricInterpretation": "MONOCHROME2",
        "PixelBandwidth": 2290.0,
        "PixelRepresentation": 0,
        "PixelSpacing": [
          2.0,
          2.0
        ],
        "ProtocolName": "func_task-wolf6",
        "RepetitionTime": 1490.0,
        "Rows": 832,
        "SAR": 0.03039271671965,
        "SamplesPerPixel": 1,
        "ScanOptions": "FS",
        "ScanningSequence": "EP",
        "SequenceName": "epfid2d1_104",
        "SequenceVariant": [
          "SK",
          "SS"
        ],
        "SeriesDescription": "func_task-wolf6",
        "SeriesNumber": 17,
        "SeriesTime": "115115.010000",
        "SliceLocation": -41.878040639194,
        "SliceThickness": 2.0,
        "SmallestImagePixelValue": 0,
        "SoftwareVersions": "syngo MR E11",
        "SpacingBetweenSlices": 2.0000000006176,
        "SpecificCharacterSet": "ISO_IR 100",
        "StudyID": "1",
        "StudyTime": "104359.629000",
        "TransmitCoilName": "Body",
        "VariableFlipAngleFlag": "N",
        "WindowCenterWidthExplanation": "Algo1",
        "dBdt": 0.0
      },
      "slices": {}
    },
    "modality": "bold",
    "session_id": "003",
    "subject_id": "03",
    "task_id": "wolf06",
    "time": {
      "samples": {
        "AcquisitionNumber": [
          1,
          2,
          3,
          4,
          5,
          6,
          7,
          8,
          9,
          10,
          11,
          12,
          13,
          14,
          15,
          16,
          17,
          18,
          19,
          20,
          21,
          22,
          23,
          24,
          25,
          26,
          27,
          28,
          29,
          30,
          31,
          32,
          33,
          34,
          35,
          36,
          37,
          38,
          39,
          40,
          41,
          42,
          43,
          44,
          45,
          46,
          47,
          48,
          49,
          50,
          51,
          52,
          53,
          54,
          55,
          56,
          57,
          58,
          59,
          60,
          61,
          62,
          63,
          64,
          65,
          66,
          67,
          68,
          69,
          70,
          71,
          72,
          73,
          74,
          75,
          76,
          77,
          78,
          79,
          80,
          81,
          82,
          83,
          84,
          85,
          86,
          87,
          88,
          89,
          90,
          91,
          92,
          93,
          94,
          95,
          96,
          97,
          98,
          99,
          100,
          101,
          102,
          103,
          104,
          105,
          106,
          107,
          108,
          109,
          110,
          111,
          112,
          113,
          114,
          115,
          116,
          117,
          118,
          119,
          120,
          121,
          122,
          123,
          124,
          125,
          126,
          127,
          128,
          129,
          130,
          131,
          132,
          133,
          134,
          135,
          136,
          137,
          138,
          139,
          140,
          141,
          142,
          143,
          144,
          145,
          146,
          147,
          148,
          149,
          150,
          151,
          152,
          153,
          154,
          155,
          156,
          157,
          158,
          159,
          160,
          161,
          162,
          163,
          164,
          165,
          166,
          167,
          168,
          169,
          170,
          171,
          172,
          173,
          174,
          175,
          176,
          177,
          178,
          179,
          180,
          181,
          182,
          183,
          184,
          185,
          186,
          187,
          188,
          189,
          190,
          191,
          192,
          193,
          194,
          195,
          196,
          197,
          198,
          199,
          200,
          201,
          202,
          203,
          204,
          205,
          206,
          207,
          208,
          209,
          210,
          211,
          212,
          213,
          214,
          215,
          216,
          217,
          218,
          219,
          220,
          221,
          222,
          223,
          224,
          225,
          226,
          227,
          228,
          229,
          230,
          231,
          232,
          233,
          234,
          235,
          236,
          237,
          238,
          239,
          240,
          241,
          242,
          243,
          244,
          245,
          246,
          247,
          248,
          249,
          250,
          251,
          252,
          253,
          254,
          255,
          256,
          257,
          258,
          259,
          260,
          261,
          262,
          263,
          264,
          265,
          266,
          267,
          268,
          269,
          270,
          271,
          272,
          273,
          274,
          275,
          276,
          277,
          278,
          279,
          280,
          281,
          282,
          283,
          284,
          285,
          286,
          287,
          288,
          289,
          290,
          291,
          292,
          293,
          294,
          295,
          296,
          297,
          298,
          299,
          300,
          301,
          302,
          303,
          304,
          305,
          306,
          307,
          308,
          309,
          310,
          311,
          312,
          313,
          314,
          315,
          316,
          317,
          318,
          319,
          320,
          321,
          322,
          323,
          324,
          325,
          326,
          327,
          328,
          329,
          330,
          331,
          332,
          333,
          334,
          335,
          336,
          337,
          338,
          339,
          340,
          341,
          342,
          343,
          344,
          345,
          346,
          347,
          348,
          349,
          350,
          351,
          352,
          353,
          354,
          355,
          356,
          357,
          358,
          359,
          360,
          361,
          362,
          363,
          364,
          365,
          366,
          367,
          368,
          369,
          370,
          371,
          372,
          373,
          374,
          375,
          376,
          377,
          378,
          379,
          380,
          381,
          382,
          383,
          384,
          385,
          386,
          387,
          388,
          389,
          390,
          391,
          392,
          393,
          394,
          395,
          396,
          397,
          398,
          399,
          400,
          401,
          402,
          403,
          404,
          405,
          406
        ],
        "AcquisitionTime": [
          "115007.675000",
          "115009.165000",
          "115010.655000",
          "115012.145000",
          "115013.635000",
          "115015.125000",
          "115016.615000",
          "115018.105000",
          "115019.595000",
          "115021.085000",
          "115022.575000",
          "115024.065000",
          "115025.555000",
          "115027.045000",
          "115028.535000",
          "115030.025000",
          "115031.515000",
          "115033.005000",
          "115034.495000",
          "115035.985000",
          "115037.475000",
          "115038.965000",
          "115040.455000",
          "115041.945000",
          "115043.435000",
          "115044.925000",
          "115046.415000",
          "115047.905000",
          "115049.395000",
          "115050.885000",
          "115052.375000",
          "115053.865000",
          "115055.355000",
          "115056.845000",
          "115058.335000",
          "115059.825000",
          "115101.315000",
          "115102.805000",
          "115104.295000",
          "115105.785000",
          "115107.275000",
          "115108.765000",
          "115110.255000",
          "115111.745000",
          "115113.235000",
          "115114.725000",
          "115116.215000",
          "115117.705000",
          "115119.195000",
          "115120.685000",
          "115122.175000",
          "115123.665000",
          "115125.155000",
          "115126.645000",
          "115128.135000",
          "115129.625000",
          "115131.115000",
          "115132.605000",
          "115134.095000",
          "115135.585000",
          "115137.075000",
          "115138.565000",
          "115140.055000",
          "115141.545000",
          "115143.035000",
          "115144.525000",
          "115146.015000",
          "115147.505000",
          "115148.995000",
          "115150.485000",
          "115151.975000",
          "115153.465000",
          "115154.955000",
          "115156.445000",
          "115157.935000",
          "115159.425000",
          "115200.915000",
          "115202.405000",
          "115203.895000",
          "115205.385000",
          "115206.875000",
          "115208.365000",
          "115209.855000",
          "115211.345000",
          "115212.835000",
          "115214.325000",
          "115215.815000",
          "115217.305000",
          "115218.795000",
          "115220.285000",
          "115221.775000",
          "115223.265000",
          "115224.755000",
          "115226.245000",
          "115227.735000",
          "115229.225000",
          "115230.715000",
          "115232.205000",
          "115233.695000",
          "115235.185000",
          "115236.675000",
          "115238.165000",
          "115239.655000",
          "115241.145000",
          "115242.635000",
          "115244.125000",
          "115245.615000",
          "115247.105000",
          "115248.595000",
          "115250.085000",
          "115251.575000",
          "115253.065000",
          "115254.555000",
          "115256.045000",
          "115257.535000",
          "115259.025000",
          "115300.515000",
          "115302.005000",
          "115303.495000",
          "115304.985000",
          "115306.475000",
          "115307.965000",
          "115309.455000",
          "115310.945000",
          "115312.435000",
          "115313.925000",
          "115315.415000",
          "115316.905000",
          "115318.395000",
          "115319.885000",
          "115321.375000",
          "115322.865000",
          "115324.355000",
          "115325.845000",
          "115327.335000",
          "115328.825000",
          "115330.315000",
          "115331.805000",
          "115333.295000",
          "115334.785000",
          "115336.275000",
          "115337.765000",
          "115339.255000",
          "115340.745000",
          "115342.235000",
          "115343.725000",
          "115345.215000",
          "115346.705000",
          "115348.195000",
          "115349.685000",
          "115351.175000",
          "115352.665000",
          "115354.155000",
          "115355.645000",
          "115357.135000",
          "115358.625000",
          "115400.115000",
          "115401.605000",
          "115403.095000",
          "115404.585000",
          "115406.075000",
          "115407.565000",
          "115409.055000",
          "115410.545000",
          "115412.035000",
          "115413.525000",
          "115415.015000",
          "115416.505000",
          "115417.995000",
          "115419.485000",
          "115420.975000",
          "115422.465000",
          "115423.955000",
          "115425.445000",
          "115426.935000",
          "115428.425000",
          "115429.915000",
          "115431.405000",
          "115432.895000",
          "115434.385000",
          "115435.875000",
          "115437.365000",
          "115438.855000",
          "115440.345000",
          "115441.835000",
          "115443.325000",
          "115444.815000",
          "115446.305000",
          "115447.795000",
          "115449.285000",
          "115450.775000",
          "115452.265000",
          "115453.755000",
          "115455.245000",
          "115456.735000",
          "115458.225000",
          "115459.715000",
          "115501.205000",
          "115502.695000",
          "115504.185000",
          "115505.675000",
          "115507.165000",
          "115508.655000",
          "115510.145000",
          "115511.635000",
          "115513.125000",
          "115514.615000",
          "115516.105000",
          "115517.595000",
          "115519.085000",
          "115520.575000",
          "115522.065000",
          "115523.555000",
          "115525.045000",
          "115526.535000",
          "115528.025000",
          "115529.515000",
          "115531.005000",
          "115532.495000",
          "115533.985000",
          "115535.475000",
          "115536.965000",
          "115538.455000",
          "115539.945000",
          "115541.435000",
          "115542.925000",
          "115544.415000",
          "115545.905000",
          "115547.395000",
          "115548.885000",
          "115550.375000",
          "115551.865000",
          "115553.355000",
          "115554.845000",
          "115556.335000",
          "115557.825000",
          "115559.315000",
          "115600.805000",
          "115602.295000",
          "115603.785000",
          "115605.275000",
          "115606.765000",
          "115608.255000",
          "115609.745000",
          "115611.235000",
          "115612.725000",
          "115614.215000",
          "115615.705000",
          "115617.195000",
          "115618.685000",
          "115620.175000",
          "115621.665000",
          "115623.155000",
          "115624.645000",
          "115626.135000",
          "115627.625000",
          "115629.115000",
          "115630.605000",
          "115632.095000",
          "115633.585000",
          "115635.075000",
          "115636.565000",
          "115638.055000",
          "115639.545000",
          "115641.035000",
          "115642.525000",
          "115644.015000",
          "115645.505000",
          "115646.995000",
          "115648.485000",
          "115649.975000",
          "115651.465000",
          "115652.955000",
          "115654.445000",
          "115655.935000",
          "115657.425000",
          "115658.915000",
          "115700.405000",
          "115701.895000",
          "115703.385000",
          "115704.875000",
          "115706.365000",
          "115707.855000",
          "115709.345000",
          "115710.835000",
          "115712.325000",
          "115713.815000",
          "115715.305000",
          "115716.795000",
          "115718.285000",
          "115719.775000",
          "115721.265000",
          "115722.755000",
          "115724.245000",
          "115725.735000",
          "115727.225000",
          "115728.715000",
          "115730.205000",
          "115731.695000",
          "115733.185000",
          "115734.675000",
          "115736.165000",
          "115737.655000",
          "115739.145000",
          "115740.635000",
          "115742.125000",
          "115743.615000",
          "115745.105000",
          "115746.595000",
          "115748.085000",
          "115749.575000",
          "115751.065000",
          "115752.555000",
          "115754.045000",
          "115755.535000",
          "115757.025000",
          "115758.515000",
          "115800.005000",
          "115801.495000",
          "115802.985000",
          "115804.475000",
          "115805.965000",
          "115807.455000",
          "115808.945000",
          "115810.435000",
          "115811.925000",
          "115813.415000",
          "115814.905000",
          "115816.395000",
          "115817.885000",
          "115819.375000",
          "115820.865000",
          "115822.355000",
          "115823.845000",
          "115825.335000",
          "115826.825000",
          "115828.315000",
          "115829.805000",
          "115831.295000",
          "115832.785000",
          "115834.275000",
          "115835.765000",
          "115837.255000",
          "115838.745000",
          "115840.235000",
          "115841.725000",
          "115843.215000",
          "115844.705000",
          "115846.195000",
          "115847.685000",
          "115849.175000",
          "115850.665000",
          "115852.155000",
          "115853.645000",
          "115855.135000",
          "115856.625000",
          "115858.115000",
          "115859.605000",
          "115901.095000",
          "115902.585000",
          "115904.075000",
          "115905.565000",
          "115907.055000",
          "115908.545000",
          "115910.035000",
          "115911.525000",
          "115913.015000",
          "115914.505000",
          "115915.995000",
          "115917.485000",
          "115918.975000",
          "115920.465000",
          "115921.955000",
          "115923.445000",
          "115924.935000",
          "115926.425000",
          "115927.915000",
          "115929.405000",
          "115930.895000",
          "115932.385000",
          "115933.875000",
          "115935.365000",
          "115936.855000",
          "115938.345000",
          "115939.835000",
          "115941.325000",
          "115942.815000",
          "115944.305000",
          "115945.795000",
          "115947.285000",
          "115948.775000",
          "115950.265000",
          "115951.755000",
          "115953.245000",
          "115954.735000",
          "115956.225000",
          "115957.715000",
          "115959.205000",
          "120000.695000",
          "120002.185000",
          "120003.675000",
          "120005.165000",
          "120006.655000",
          "120008.145000",
          "120009.635000",
          "120011.125000"
        ],
        "ContentTime": [
          "115115.013000",
          "115115.016000",
          "115115.019000",
          "115115.022000",
          "115115.025000",
          "115115.036000",
          "115115.039000",
          "115115.042000",
          "115115.045000",
          "115115.048000",
          "115115.050000",
          "115115.053000",
          "115115.063000",
          "115134.968000",
          "115134.971000",
          "115134.974000",
          "115134.976000",
          "115134.979000",
          "115134.982000",
          "115134.992000",
          "115134.994000",
          "115134.997000",
          "115135.001000",
          "115135.004000",
          "115135.007000",
          "115135.010000",
          "115135.013000",
          "115135.015000",
          "115135.018000",
          "115135.021000",
          "115135.024000",
          "115135.027000",
          "115135.030000",
          "115154.968000",
          "115154.971000",
          "115154.973000",
          "115154.976000",
          "115154.979000",
          "115154.982000",
          "115154.985000",
          "115154.988000",
          "115154.991000",
          "115154.993000",
          "115154.996000",
          "115155.000000",
          "115155.003000",
          "115155.006000",
          "115155.009000",
          "115155.011000",
          "115155.014000",
          "115155.017000",
          "115155.020000",
          "115155.023000",
          "115155.026000",
          "115214.969000",
          "115214.972000",
          "115214.975000",
          "115214.977000",
          "115214.980000",
          "115214.983000",
          "115214.986000",
          "115214.989000",
          "115214.992000",
          "115214.994000",
          "115214.997000",
          "115215.000000",
          "115215.007000",
          "115215.010000",
          "115215.013000",
          "115215.016000",
          "115215.018000",
          "115215.021000",
          "115215.024000",
          "115215.027000",
          "115234.969000",
          "115234.972000",
          "115234.975000",
          "115234.977000",
          "115234.980000",
          "115234.983000",
          "115234.986000",
          "115234.989000",
          "115234.992000",
          "115234.994000",
          "115234.997000",
          "115235.001000",
          "115235.004000",
          "115235.007000",
          "115235.010000",
          "115235.013000",
          "115235.015000",
          "115235.018000",
          "115235.021000",
          "115235.024000",
          "115314.969000",
          "115314.972000",
          "115314.975000",
          "115314.977000",
          "115314.980000",
          "115314.983000",
          "115314.986000",
          "115314.989000",
          "115314.992000",
          "115314.995000",
          "115314.998000",
          "115315.001000",
          "115315.004000",
          "115315.007000",
          "115315.010000",
          "115315.013000",
          "115315.016000",
          "115315.018000",
          "115315.021000",
          "115315.024000",
          "115315.027000",
          "115315.030000",
          "115315.033000",
          "115315.036000",
          "115315.038000",
          "115315.041000",
          "115315.044000",
          "115315.047000",
          "115315.050000",
          "115315.053000",
          "115315.056000",
          "115354.968000",
          "115354.971000",
          "115354.974000",
          "115354.977000",
          "115354.995000",
          "115354.998000",
          "115355.002000",
          "115355.005000",
          "115355.008000",
          "115355.010000",
          "115355.013000",
          "115355.016000",
          "115355.019000",
          "115355.022000",
          "115355.025000",
          "115355.028000",
          "115355.031000",
          "115355.034000",
          "115355.036000",
          "115355.039000",
          "115355.042000",
          "115355.045000",
          "115355.048000",
          "115355.051000",
          "115355.053000",
          "115355.056000",
          "115434.969000",
          "115434.972000",
          "115434.975000",
          "115434.978000",
          "115434.981000",
          "115434.983000",
          "115434.986000",
          "115434.989000",
          "115434.992000",
          "115434.995000",
          "115434.998000",
          "115435.002000",
          "115435.004000",
          "115435.007000",
          "115435.010000",
          "115435.013000",
          "115435.016000",
          "115435.019000",
          "115435.022000",
          "115435.025000",
          "115435.027000",
          "115435.030000",
          "115435.033000",
          "115435.036000",
          "115435.039000",
          "115435.042000",
          "115435.045000",
          "115514.969000",
          "115514.972000",
          "115514.975000",
          "115514.978000",
          "115514.980000",
          "115514.983000",
          "115514.986000",
          "115514.989000",
          "115514.992000",
          "115514.995000",
          "115514.998000",
          "115515.002000",
          "115515.004000",
          "115515.007000",
          "115515.010000",
          "115515.013000",
          "115515.016000",
          "115515.019000",
          "115515.022000",
          "115515.025000",
          "115515.028000",
          "115515.030000",
          "115515.033000",
          "115515.036000",
          "115515.039000",
          "115515.042000",
          "115515.045000",
          "115554.969000",
          "115554.972000",
          "115554.975000",
          "115554.978000",
          "115554.981000",
          "115554.983000",
          "115554.986000",
          "115554.989000",
          "115554.992000",
          "115555.004000",
          "115555.006000",
          "115555.009000",
          "115555.012000",
          "115555.015000",
          "115555.018000",
          "115555.021000",
          "115555.024000",
          "115555.027000",
          "115555.030000",
          "115555.032000",
