{
  "aor": 0.0005228888888888889,
  "aqi": 0.006613892666666666,
  "bids_meta": {
    "AcquisitionMatrixPE": 104,
    "AcquisitionNumber": 1,
    "AcquisitionTime": "10:56:38.012500",
    "BandwidthPerPixelPhaseEncode": 17.17,
    "BaseResolution": 104,
    "BodyPartExamined": "BRAIN",
    "CogAtlasID": "trm_4c898da401420",
    "ConsistencyInfo": "N4_VE11C_LATEST_20160120",
    "ConversionSoftware": "dcm2niix",
    "ConversionSoftwareVersion": "v1.0.20171215 (OpenJPEG build) GCC7.3.0",
    "DerivedVendorReportedEchoSpacing": 0.000560011,
    "DeviceSerialNumber": "167006",
    "DwellTime": 2.1e-06,
    "EchoTime": 0.037,
    "EchoTrainLength": 104,
    "EffectiveEchoSpacing": 0.000560011,
    "FlipAngle": 52,
    "ImageComments": "Unaliased_MB4_PE3_LB",
    "ImageOrientationPatientDICOM": [
      0.999324,
      0.0364407,
      0.00485079,
      -0.033151,
      0.950313,
      -0.309525
    ],
    "ImageType": [
      "ORIGINAL",
      "PRIMARY",
      "M",
      "MB",
      "ND",
      "MOSAIC"
    ],
    "InPlanePhaseEncodingDirectionDICOM": "COL",
    "InstitutionAddress": "Chemin_Queen-Mary_4565_Montreal_District_CA_H3W_1W5",
    "InstitutionName": "IUGM",
    "InstitutionalDepartmentName": "Department",
    "MRAcquisitionType": "2D",
    "MagneticFieldStrength": 3,
    "Manufacturer": "Siemens",
    "ManufacturersModelName": "Prisma_fit",
    "Modality": "MR",
    "MultibandAccelerationFactor": 4,
    "PartialFourier": 1,
    "PatientPosition": "HFS",
    "PercentPhaseFOV": 100,
    "PhaseEncodingDirection": "j-",
    "PhaseEncodingSteps": 104,
    "PhaseResolution": 1,
    "PixelBandwidth": 2290,
    "ProcedureStepDescription": "video5_generic",
    "ProtocolName": "func_task-wolf1",
    "PulseSequenceDetails": "%CustomerSeq%_cmrr_mbep2d_bold",
    "ReceiveCoilActiveElements": "HC1-7;NC1,2",
    "ReceiveCoilName": "HeadNeck_64",
    "ReconMatrixPE": 104,
    "RepetitionTime": 1.49,
    "SAR": 0.0303927,
    "ScanOptions": "FS",
    "ScanningSequence": "EP",
    "SequenceName": "epfid2d1_104",
    "SequenceVariant": "SK_SS",
    "SeriesDescription": "func_task-wolf1",
    "SeriesNumber": 7,
    "ShimSetting": [
      633,
      -7151,
      -8827,
      633,
      47,
      171,
      3,
      3
    ],
    "SliceThickness": 2,
    "SliceTiming": [
      0,
      0.785,
      0.0975,
      0.8825,
      0.1975,
      0.98,
      0.295,
      1.0775,
      0.3925,
      1.175,
      0.49,
      1.275,
      0.5875,
      1.3725,
      0.6875,
      0,
      0.785,
      0.0975,
      0.8825,
      0.1975,
      0.98,
      0.295,
      1.0775,
      0.3925,
      1.175,
      0.49,
      1.275,
      0.5875,
      1.3725,
      0.6875,
      0,
      0.785,
      0.0975,
      0.8825,
      0.1975,
      0.98,
      0.295,
      1.0775,
      0.3925,
      1.175,
      0.49,
      1.275,
      0.5875,
      1.3725,
      0.6875,
      0,
      0.785,
      0.0975,
      0.8825,
      0.1975,
      0.98,
      0.295,
      1.0775,
      0.3925,
      1.175,
      0.49,
      1.275,
      0.5875,
      1.3725,
      0.6875
    ],
    "SoftwareVersions": "syngo_MR_E11",
    "SpacingBetweenSlices": 2,
    "StationName": "MRC35049",
    "TaskName": "wolf01",
    "TotalReadoutTime": 0.0576811,
    "TxRefAmp": 210.453,
    "dataset": "<unset>",
    "dcmmeta_affine": [
      [
        -1.9986480474472046,
        -0.06630204617977142,
        0.03177810460329056,
        110.15936279296875
      ],
      [
        -0.07288133352994919,
        1.9006267786026,
        -0.6183091998100281,
        -64.52610778808594
      ],
      [
        0.00970157328993082,
        0.6190493106842041,
        1.901758074760437,
        -66.86119842529297
      ],
      [
        0.0,
        0.0,
        0.0,
        1.0
      ]
    ],
    "dcmmeta_reorient_transform": [
      [
        0.0,
        -1.0,
        0.0,
        103.0
      ],
      [
        1.0,
        0.0,
        0.0,
        0.0
      ],
      [
        0.0,
        0.0,
        1.0,
        0.0
      ],
      [
        0.0,
        0.0,
        0.0,
        1.0
      ]
    ],
    "dcmmeta_shape": [
      104,
      104,
      60,
      406
    ],
    "dcmmeta_slice_dim": 2,
    "dcmmeta_version": 0.6,
    "global": {
      "const": {
        "AcquisitionMatrix": [
          104,
          0,
          0,
          104
        ],
        "AngioFlag": "N",
        "BitsAllocated": 16,
        "BitsStored": 16,
        "BodyPartExamined": "BRAIN",
        "Columns": 832,
        "EchoNumbers": 1,
        "EchoTime": 37.0,
        "EchoTrainLength": 104,
        "FlipAngle": 52.0,
        "HighBit": 15,
        "ImageOrientationPatient": [
          0.99932404538707,
          0.03644066659268,
          0.00485078648288,
          -0.033151023311,
          0.9503133706535,
          -0.3095246471779
        ],
        "ImagePositionPatient": [
          -806.70421524678,
          -849.59538682085,
          218.70345007191
        ],
        "ImageType": [
          "ORIGINAL",
          "PRIMARY",
          "M",
          "MB",
          "ND",
          "MOSAIC"
        ],
        "ImagedNucleus": "1H",
        "ImagingFrequency": 123.259326,
        "InPlanePhaseEncodingDirection": "COL",
        "MRAcquisitionType": "2D",
        "MagneticFieldStrength": 3.0,
        "Manufacturer": "SIEMENS",
        "ManufacturerModelName": "Prisma_fit",
        "Modality": "MR",
        "NumberOfAverages": 1.0,
        "NumberOfPhaseEncodingSteps": 104,
        "PercentPhaseFieldOfView": 100.0,
        "PercentSampling": 100.0,
        "PerformedProcedureStepStartTime": "104359.717000",
        "PhotometricInterpretation": "MONOCHROME2",
        "PixelBandwidth": 2290.0,
        "PixelRepresentation": 0,
        "PixelSpacing": [
          2.0,
          2.0
        ],
        "ProtocolName": "func_task-wolf1",
        "RepetitionTime": 1490.0,
        "Rows": 832,
        "SAR": 0.03039271671965,
        "SamplesPerPixel": 1,
        "ScanOptions": "FS",
        "ScanningSequence": "EP",
        "SequenceName": "epfid2d1_104",
        "SequenceVariant": [
          "SK",
          "SS"
        ],
        "SeriesDescription": "func_task-wolf1",
        "SeriesNumber": 7,
        "SeriesTime": "105758.144000",
        "SliceLocation": -41.878040639194,
        "SliceThickness": 2.0,
        "SmallestImagePixelValue": 0,
        "SoftwareVersions": "syngo MR E11",
        "SpacingBetweenSlices": 2.0000000006176,
        "SpecificCharacterSet": "ISO_IR 100",
        "StudyID": "1",
        "StudyTime": "104359.629000",
        "TransmitCoilName": "Body",
        "VariableFlipAngleFlag": "N",
        "WindowCenterWidthExplanation": "Algo1",
        "dBdt": 0.0
      },
      "slices": {}
    },
    "modality": "bold",
    "session_id": "003",
    "subject_id": "03",
    "task_id": "wolf01",
    "time": {
      "samples": {
        "AcquisitionNumber": [
          1,
          2,
          3,
          4,
          5,
          6,
          7,
          8,
          9,
          10,
          11,
          12,
          13,
          14,
          15,
          16,
          17,
          18,
          19,
          20,
          21,
          22,
          23,
          24,
          25,
          26,
          27,
          28,
          29,
          30,
          31,
          32,
          33,
          34,
          35,
          36,
          37,
          38,
          39,
          40,
          41,
          42,
          43,
          44,
          45,
          46,
          47,
          48,
          49,
          50,
          51,
          52,
          53,
          54,
          55,
          56,
          57,
          58,
          59,
          60,
          61,
          62,
          63,
          64,
          65,
          66,
          67,
          68,
          69,
          70,
          71,
          72,
          73,
          74,
          75,
          76,
          77,
          78,
          79,
          80,
          81,
          82,
          83,
          84,
          85,
          86,
          87,
          88,
          89,
          90,
          91,
          92,
          93,
          94,
          95,
          96,
          97,
          98,
          99,
          100,
          101,
          102,
          103,
          104,
          105,
          106,
          107,
          108,
          109,
          110,
          111,
          112,
          113,
          114,
          115,
          116,
          117,
          118,
          119,
          120,
          121,
          122,
          123,
          124,
          125,
          126,
          127,
          128,
          129,
          130,
          131,
          132,
          133,
          134,
          135,
          136,
          137,
          138,
          139,
          140,
          141,
          142,
          143,
          144,
          145,
          146,
          147,
          148,
          149,
          150,
          151,
          152,
          153,
          154,
          155,
          156,
          157,
          158,
          159,
          160,
          161,
          162,
          163,
          164,
          165,
          166,
          167,
          168,
          169,
          170,
          171,
          172,
          173,
          174,
          175,
          176,
          177,
          178,
          179,
          180,
          181,
          182,
          183,
          184,
          185,
          186,
          187,
          188,
          189,
          190,
          191,
          192,
          193,
          194,
          195,
          196,
          197,
          198,
          199,
          200,
          201,
          202,
          203,
          204,
          205,
          206,
          207,
          208,
          209,
          210,
          211,
          212,
          213,
          214,
          215,
          216,
          217,
          218,
          219,
          220,
          221,
          222,
          223,
          224,
          225,
          226,
          227,
          228,
          229,
          230,
          231,
          232,
          233,
          234,
          235,
          236,
          237,
          238,
          239,
          240,
          241,
          242,
          243,
          244,
          245,
          246,
          247,
          248,
          249,
          250,
          251,
          252,
          253,
          254,
          255,
          256,
          257,
          258,
          259,
          260,
          261,
          262,
          263,
          264,
          265,
          266,
          267,
          268,
          269,
          270,
          271,
          272,
          273,
          274,
          275,
          276,
          277,
          278,
          279,
          280,
          281,
          282,
          283,
          284,
          285,
          286,
          287,
          288,
          289,
          290,
          291,
          292,
          293,
          294,
          295,
          296,
          297,
          298,
          299,
          300,
          301,
          302,
          303,
          304,
          305,
          306,
          307,
          308,
          309,
          310,
          311,
          312,
          313,
          314,
          315,
          316,
          317,
          318,
          319,
          320,
          321,
          322,
          323,
          324,
          325,
          326,
          327,
          328,
          329,
          330,
          331,
          332,
          333,
          334,
          335,
          336,
          337,
          338,
          339,
          340,
          341,
          342,
          343,
          344,
          345,
          346,
          347,
          348,
          349,
          350,
          351,
          352,
          353,
          354,
          355,
          356,
          357,
          358,
          359,
          360,
          361,
          362,
          363,
          364,
          365,
          366,
          367,
          368,
          369,
          370,
          371,
          372,
          373,
          374,
          375,
          376,
          377,
          378,
          379,
          380,
          381,
          382,
          383,
          384,
          385,
          386,
          387,
          388,
          389,
          390,
          391,
          392,
          393,
          394,
          395,
          396,
          397,
          398,
          399,
          400,
          401,
          402,
          403,
          404,
          405,
          406
        ],
        "AcquisitionTime": [
          "105638.012500",
          "105639.502500",
          "105640.992500",
          "105642.482500",
          "105643.972500",
          "105645.462500",
          "105646.952500",
          "105648.442500",
          "105649.932500",
          "105651.422500",
          "105652.912500",
          "105654.402500",
          "105655.892500",
          "105657.382500",
          "105658.872500",
          "105700.362500",
          "105701.852500",
          "105703.342500",
          "105704.832500",
          "105706.322500",
          "105707.812500",
          "105709.302500",
          "105710.792500",
          "105712.282500",
          "105713.772500",
          "105715.262500",
          "105716.752500",
          "105718.242500",
          "105719.732500",
          "105721.222500",
          "105722.712500",
          "105724.202500",
          "105725.692500",
          "105727.182500",
          "105728.672500",
          "105730.162500",
          "105731.652500",
          "105733.142500",
          "105734.632500",
          "105736.122500",
          "105737.612500",
          "105739.102500",
          "105740.592500",
          "105742.082500",
          "105743.572500",
          "105745.062500",
          "105746.552500",
          "105748.042500",
          "105749.532500",
          "105751.022500",
          "105752.512500",
          "105754.002500",
          "105755.492500",
          "105756.982500",
          "105758.472500",
          "105759.962500",
          "105801.452500",
          "105802.942500",
          "105804.432500",
          "105805.922500",
          "105807.412500",
          "105808.902500",
          "105810.392500",
          "105811.882500",
          "105813.372500",
          "105814.862500",
          "105816.352500",
          "105817.842500",
          "105819.332500",
          "105820.822500",
          "105822.312500",
          "105823.802500",
          "105825.292500",
          "105826.782500",
          "105828.272500",
          "105829.762500",
          "105831.252500",
          "105832.742500",
          "105834.232500",
          "105835.722500",
          "105837.212500",
          "105838.702500",
          "105840.192500",
          "105841.682500",
          "105843.172500",
          "105844.662500",
          "105846.152500",
          "105847.642500",
          "105849.132500",
          "105850.622500",
          "105852.112500",
          "105853.602500",
          "105855.092500",
          "105856.582500",
          "105858.072500",
          "105859.562500",
          "105901.052500",
          "105902.542500",
          "105904.032500",
          "105905.522500",
          "105907.012500",
          "105908.502500",
          "105909.992500",
          "105911.482500",
          "105912.972500",
          "105914.462500",
          "105915.952500",
          "105917.442500",
          "105918.932500",
          "105920.422500",
          "105921.912500",
          "105923.402500",
          "105924.892500",
          "105926.382500",
          "105927.872500",
          "105929.362500",
          "105930.852500",
          "105932.342500",
          "105933.832500",
          "105935.322500",
          "105936.812500",
          "105938.302500",
          "105939.792500",
          "105941.282500",
          "105942.772500",
          "105944.262500",
          "105945.752500",
          "105947.242500",
          "105948.732500",
          "105950.222500",
          "105951.712500",
          "105953.202500",
          "105954.692500",
          "105956.182500",
          "105957.672500",
          "105959.162500",
          "110000.652500",
          "110002.142500",
          "110003.632500",
          "110005.122500",
          "110006.612500",
          "110008.102500",
          "110009.592500",
          "110011.082500",
          "110012.572500",
          "110014.062500",
          "110015.552500",
          "110017.042500",
          "110018.532500",
          "110020.022500",
          "110021.512500",
          "110023.002500",
          "110024.492500",
          "110025.982500",
          "110027.472500",
          "110028.962500",
          "110030.452500",
          "110031.942500",
          "110033.432500",
          "110034.922500",
          "110036.412500",
          "110037.902500",
          "110039.392500",
          "110040.882500",
          "110042.372500",
          "110043.862500",
          "110045.352500",
          "110046.842500",
          "110048.332500",
          "110049.822500",
          "110051.312500",
          "110052.802500",
          "110054.292500",
          "110055.782500",
          "110057.272500",
          "110058.762500",
          "110100.252500",
          "110101.742500",
          "110103.232500",
          "110104.722500",
          "110106.212500",
          "110107.702500",
          "110109.192500",
          "110110.682500",
          "110112.172500",
          "110113.662500",
          "110115.152500",
          "110116.642500",
          "110118.132500",
          "110119.622500",
          "110121.112500",
          "110122.602500",
          "110124.092500",
          "110125.582500",
          "110127.072500",
          "110128.562500",
          "110130.052500",
          "110131.542500",
          "110133.032500",
          "110134.522500",
          "110136.012500",
          "110137.502500",
          "110138.992500",
          "110140.482500",
          "110141.972500",
          "110143.462500",
          "110144.952500",
          "110146.442500",
          "110147.932500",
          "110149.422500",
          "110150.912500",
          "110152.402500",
          "110153.892500",
          "110155.382500",
          "110156.872500",
          "110158.362500",
          "110159.852500",
          "110201.342500",
          "110202.832500",
          "110204.322500",
          "110205.812500",
          "110207.302500",
          "110208.792500",
          "110210.282500",
          "110211.772500",
          "110213.262500",
          "110214.752500",
          "110216.242500",
          "110217.732500",
          "110219.222500",
          "110220.712500",
          "110222.202500",
          "110223.692500",
          "110225.182500",
          "110226.672500",
          "110228.162500",
          "110229.652500",
          "110231.142500",
          "110232.632500",
          "110234.122500",
          "110235.612500",
          "110237.102500",
          "110238.592500",
          "110240.082500",
          "110241.572500",
          "110243.062500",
          "110244.552500",
          "110246.042500",
          "110247.532500",
          "110249.022500",
          "110250.512500",
          "110252.002500",
          "110253.492500",
          "110254.982500",
          "110256.472500",
          "110257.962500",
          "110259.452500",
          "110300.942500",
          "110302.432500",
          "110303.922500",
          "110305.412500",
          "110306.902500",
          "110308.392500",
          "110309.882500",
          "110311.372500",
          "110312.862500",
          "110314.352500",
          "110315.842500",
          "110317.332500",
          "110318.822500",
          "110320.312500",
          "110321.802500",
          "110323.292500",
          "110324.782500",
          "110326.272500",
          "110327.762500",
          "110329.252500",
          "110330.742500",
          "110332.232500",
          "110333.722500",
          "110335.212500",
          "110336.702500",
          "110338.192500",
          "110339.682500",
          "110341.172500",
          "110342.662500",
          "110344.152500",
          "110345.642500",
          "110347.132500",
          "110348.622500",
          "110350.112500",
          "110351.602500",
          "110353.092500",
          "110354.582500",
          "110356.072500",
          "110357.562500",
          "110359.052500",
          "110400.542500",
          "110402.032500",
          "110403.522500",
          "110405.012500",
          "110406.502500",
          "110407.992500",
          "110409.482500",
          "110410.972500",
          "110412.462500",
          "110413.952500",
          "110415.442500",
          "110416.932500",
          "110418.422500",
          "110419.912500",
          "110421.402500",
          "110422.892500",
          "110424.382500",
          "110425.872500",
          "110427.362500",
          "110428.852500",
          "110430.342500",
          "110431.832500",
          "110433.322500",
          "110434.812500",
          "110436.302500",
          "110437.792500",
          "110439.282500",
          "110440.772500",
          "110442.262500",
          "110443.752500",
          "110445.242500",
          "110446.732500",
          "110448.222500",
          "110449.712500",
          "110451.202500",
          "110452.692500",
          "110454.182500",
          "110455.672500",
          "110457.162500",
          "110458.652500",
          "110500.142500",
          "110501.632500",
          "110503.122500",
          "110504.612500",
          "110506.102500",
          "110507.592500",
          "110509.082500",
          "110510.572500",
          "110512.062500",
          "110513.552500",
          "110515.042500",
          "110516.532500",
          "110518.022500",
          "110519.512500",
          "110521.002500",
          "110522.492500",
          "110523.982500",
          "110525.472500",
          "110526.962500",
          "110528.452500",
          "110529.942500",
          "110531.432500",
          "110532.922500",
          "110534.412500",
          "110535.902500",
          "110537.392500",
          "110538.882500",
          "110540.372500",
          "110541.862500",
          "110543.352500",
          "110544.842500",
          "110546.332500",
          "110547.822500",
          "110549.312500",
          "110550.802500",
          "110552.292500",
          "110553.782500",
          "110555.272500",
          "110556.762500",
          "110558.252500",
          "110559.742500",
          "110601.232500",
          "110602.722500",
          "110604.212500",
          "110605.702500",
          "110607.192500",
          "110608.682500",
          "110610.172500",
          "110611.662500",
          "110613.152500",
          "110614.642500",
          "110616.132500",
          "110617.622500",
          "110619.112500",
          "110620.602500",
          "110622.092500",
          "110623.582500",
          "110625.072500",
          "110626.562500",
          "110628.052500",
          "110629.542500",
          "110631.032500",
          "110632.522500",
          "110634.012500",
          "110635.502500",
          "110636.992500",
          "110638.482500",
          "110639.972500",
          "110641.462500"
        ],
        "ContentTime": [
          "105758.147000",
          "105758.151000",
          "105758.154000",
          "105758.157000",
          "105758.168000",
          "105758.179000",
          "105758.182000",
          "105758.185000",
          "105758.188000",
          "105758.191000",
          "105758.194000",
          "105758.197000",
          "105758.200000",
          "105758.203000",
          "105758.206000",
          "105758.209000",
          "105758.211000",
          "105758.214000",
          "105758.217000",
          "105758.220000",
          "105758.223000",
          "105758.226000",
          "105758.232000",
          "105758.235000",
          "105758.238000",
          "105818.106000",
          "105818.109000",
          "105818.112000",
          "105818.115000",
          "105818.126000",
          "105818.129000",
          "105818.132000",
          "105818.134000",
          "105818.137000",
          "105818.140000",
          "105818.143000",
          "105818.146000",
          "105818.149000",
          "105818.152000",
          "105818.155000",
          "105818.157000",
          "105818.160000",
          "105818.163000",
          "105818.166000",
          "105818.169000",
          "105838.107000",
          "105838.122000",
          "105838.124000",
          "105838.127000",
          "105838.130000",
          "105838.133000",
          "105838.136000",
          "105838.139000",
          "105838.142000",
          "105838.144000",
          "105838.147000",
          "105838.150000",
          "105838.153000",
          "105838.156000",
          "105838.159000",
          "105838.162000",
          "105838.165000",
          "105838.167000",
          "105838.170000",
          "105838.173000",
          "105838.176000",
          "105858.107000",
          "105858.110000",
          "105858.113000",
          "105858.123000",
          "105858.125000",
          "105858.128000",
          "105858.131000",
          "105858.134000",
          "105858.137000",
          "105858.145000",
          "105858.148000",
          "105858.151000",
          "105858.153000",
          "105858.162000",
          "105858.165000",
          "105858.168000",
          "105858.171000",
          "105858.174000",
          "105858.176000",
          "105858.179000",
          "105918.107000",
          "105918.110000",
          "105918.113000",
          "105918.116000",
          "105918.119000",
          "105918.122000",
          "105918.125000",
          "105918.128000",
          "105918.130000",
          "105918.133000",
          "105918.136000",
          "105918.139000",
          "105918.142000",
          "105918.145000",
          "105918.148000",
          "105918.150000",
          "105918.153000",
          "105918.156000",
          "105918.159000",
          "105918.162000",
          "105958.106000",
          "105958.109000",
          "105958.112000",
          "105958.115000",
          "105958.118000",
          "105958.121000",
          "105958.124000",
          "105958.128000",
          "105958.132000",
          "105958.135000",
          "105958.138000",
          "105958.141000",
          "105958.144000",
          "105958.146000",
          "105958.149000",
          "105958.152000",
          "105958.155000",
          "105958.158000",
          "105958.161000",
          "105958.163000",
          "105958.166000",
          "105958.169000",
          "105958.172000",
          "105958.175000",
          "105958.178000",
          "105958.181000",
          "105958.184000",
          "110038.106000",
          "110038.109000",
          "110038.112000",
          "110038.115000",
          "110038.118000",
          "110038.120000",
          "110038.123000",
          "110038.126000",
          "110038.129000",
          "110038.132000",
          "110038.135000",
          "110038.138000",
          "110038.141000",
          "110038.143000",
          "110038.146000",
          "110038.149000",
          "110038.152000",
          "110038.155000",
          "110038.158000",
          "110038.161000",
          "110038.163000",
          "110038.166000",
          "110038.169000",
          "110038.172000",
          "110038.175000",
          "110038.178000",
          "110038.181000",
          "110058.107000",
          "110058.110000",
          "110058.113000",
          "110058.116000",
          "110058.119000",
          "110058.122000",
          "110058.124000",
          "110058.127000",
          "110058.130000",
          "110058.133000",
          "110058.136000",
          "110058.139000",
          "110058.142000",
          "110058.145000",
          "110138.107000",
          "110138.110000",
          "110138.113000",
          "110138.116000",
          "110138.118000",
          "110138.121000",
          "110138.124000",
          "110138.127000",
          "110138.130000",
          "110138.133000",
          "110138.136000",
          "110138.139000",
          "110138.142000",
          "110138.144000",
          "110138.147000",
          "110138.150000",
          "110138.153000",
          "110138.156000",
          "110138.159000",
          "110138.162000",
          "110138.165000",
          "110138.178000",
          "110138.181000",
          "110138.184000",
          "110138.187000",
          "110138.190000",
          "110138.193000",
          "110218.106000",
          "110218.109000",
          "110218.112000",
          "110218.115000",
          "110218.118000",
          "110218.120000",
          "110218.123000",
          "110218.126000",
          "110218.129000",
          "110218.132000",
          "110218.135000",
          "110218.138000",
          "110218.141000",
          "110218.144000",
          "110218.147000",
          "110218.149000",
          "110218.152000",
          "110218.155000",
          "110218.158000",
          "110218.161000",
          "110218.164000",
          "110218.167000",
          "110218.170000",
