{
  "aor": 0.0011516585365853656,
  "aqi": 0.010896495658536585,
  "bids_meta": {
    "AcquisitionMatrixPE": 104,
    "AcquisitionNumber": 1,
    "AcquisitionTime": "11:38:5.422500",
    "BandwidthPerPixelPhaseEncode": 17.17,
    "BaseResolution": 104,
    "BodyPartExamined": "BRAIN",
    "CogAtlasID": "trm_4c898da401420",
    "ConsistencyInfo": "N4_VE11C_LATEST_20160120",
    "ConversionSoftware": "dcm2niix",
    "ConversionSoftwareVersion": "v1.0.20171215 (OpenJPEG build) GCC7.3.0",
    "DerivedVendorReportedEchoSpacing": 0.000560011,
    "DeviceSerialNumber": "167006",
    "DwellTime": 2.1e-06,
    "EchoTime": 0.037,
    "EchoTrainLength": 104,
    "EffectiveEchoSpacing": 0.000560011,
    "FlipAngle": 52,
    "ImageComments": "Unaliased_MB4_PE3_LB",
    "ImageOrientationPatientDICOM": [
      0.999707,
      -0.0110666,
      -0.0215319,
      0.00279177,
      0.936169,
      -0.351539
    ],
    "ImageType": [
      "ORIGINAL",
      "PRIMARY",
      "M",
      "MB",
      "ND",
      "MOSAIC"
    ],
    "InPlanePhaseEncodingDirectionDICOM": "COL",
    "InstitutionAddress": "Chemin_Queen-Mary_4565_Montreal_District_CA_H3W_1W5",
    "InstitutionName": "IUGM",
    "InstitutionalDepartmentName": "Department",
    "MRAcquisitionType": "2D",
    "MagneticFieldStrength": 3,
    "Manufacturer": "Siemens",
    "ManufacturersModelName": "Prisma_fit",
    "Modality": "MR",
    "MultibandAccelerationFactor": 4,
    "PartialFourier": 1,
    "PatientPosition": "HFS",
    "PercentPhaseFOV": 100,
    "PhaseEncodingDirection": "j-",
    "PhaseEncodingSteps": 104,
    "PhaseResolution": 1,
    "PixelBandwidth": 2290,
    "ProcedureStepDescription": "video5_generic",
    "ProtocolName": "func_task-figures3",
    "PulseSequenceDetails": "%CustomerSeq%_cmrr_mbep2d_bold",
    "ReceiveCoilActiveElements": "HC1-7;NC1,2",
    "ReceiveCoilName": "HeadNeck_64",
    "ReconMatrixPE": 104,
    "RepetitionTime": 1.49,
    "SAR": 0.0296154,
    "ScanOptions": "FS",
    "ScanningSequence": "EP",
    "SequenceName": "epfid2d1_104",
    "SequenceVariant": "SK_SS",
    "SeriesDescription": "func_task-figures3",
    "SeriesNumber": 28,
    "ShimSetting": [
      621,
      -7231,
      -8887,
      594,
      0,
      -215,
      -129,
      -13
    ],
    "SliceThickness": 2,
    "SliceTiming": [
      0,
      0.7825,
      0.0975,
      0.8825,
      0.195,
      0.98,
      0.2925,
      1.0775,
      0.3925,
      1.175,
      0.49,
      1.2725,
      0.5875,
      1.3725,
      0.685,
      0,
      0.7825,
      0.0975,
      0.8825,
      0.195,
      0.98,
      0.2925,
      1.0775,
      0.3925,
      1.175,
      0.49,
      1.2725,
      0.5875,
      1.3725,
      0.685,
      0,
      0.7825,
      0.0975,
      0.8825,
      0.195,
      0.98,
      0.2925,
      1.0775,
      0.3925,
      1.175,
      0.49,
      1.2725,
      0.5875,
      1.3725,
      0.685,
      0,
      0.7825,
      0.0975,
      0.8825,
      0.195,
      0.98,
      0.2925,
      1.0775,
      0.3925,
      1.175,
      0.49,
      1.2725,
      0.5875,
      1.3725,
      0.685
    ],
    "SoftwareVersions": "syngo_MR_E11",
    "SpacingBetweenSlices": 2,
    "StationName": "MRC35049",
    "TaskName": "figures03",
    "TotalReadoutTime": 0.0576811,
    "TxRefAmp": 222.941,
    "dataset": "<unset>",
    "dcmmeta_affine": [
      [
        -1.9994138479232788,
        0.005583545658737421,
        -0.0480957068502903,
        105.86429595947266
      ],
      [
        0.022133292630314827,
        1.8723382949829102,
        -0.7027513980865479,
        -70.24591064453125
      ],
      [
        -0.04306379333138466,
        0.7030776739120483,
        1.8718513250350952,
        -83.81588745117188
      ],
      [
        0.0,
        0.0,
        0.0,
        1.0
      ]
    ],
    "dcmmeta_reorient_transform": [
      [
        0.0,
        -1.0,
        0.0,
        103.0
      ],
      [
        1.0,
        0.0,
        0.0,
        0.0
      ],
      [
        0.0,
        0.0,
        1.0,
        0.0
      ],
      [
        0.0,
        0.0,
        0.0,
        1.0
      ]
    ],
    "dcmmeta_shape": [
      104,
      104,
      60,
      411
    ],
    "dcmmeta_slice_dim": 2,
    "dcmmeta_version": 0.6,
    "global": {
      "const": {
        "AcquisitionMatrix": [
          104,
          0,
          0,
          104
        ],
        "AngioFlag": "N",
        "BitsAllocated": 16,
        "BitsStored": 16,
        "BodyPartExamined": "BRAIN",
        "Columns": 832,
        "EchoNumbers": 1,
        "EchoTime": 37.0,
        "EchoTrainLength": 104,
        "FlipAngle": 52.0,
        "HighBit": 15,
        "ImageOrientationPatient": [
          0.99970691042948,
          -0.0110666465292,
          -0.0215318966686,
          0.00279177290123,
          0.93616913135794,
          -0.3515388506219
        ],
        "ImagePositionPatient": [
          -836.25844158903,
          -796.07953922807,
          260.19661955827
        ],
        "ImageType": [
          "ORIGINAL",
          "PRIMARY",
          "M",
          "MB",
          "ND",
          "MOSAIC"
        ],
        "ImagedNucleus": "1H",
        "ImagingFrequency": 123.259476,
        "InPlanePhaseEncodingDirection": "COL",
        "MRAcquisitionType": "2D",
        "MagneticFieldStrength": 3.0,
        "Manufacturer": "SIEMENS",
        "ManufacturerModelName": "Prisma_fit",
        "Modality": "MR",
        "NumberOfAverages": 1.0,
        "NumberOfPhaseEncodingSteps": 104,
        "PercentPhaseFieldOfView": 100.0,
        "PercentSampling": 100.0,
        "PerformedProcedureStepStartTime": "094845.519000",
        "PhotometricInterpretation": "MONOCHROME2",
        "PixelBandwidth": 2290.0,
        "PixelRepresentation": 0,
        "PixelSpacing": [
          2.0,
          2.0
        ],
        "ProtocolName": "func_task-figures3",
        "RepetitionTime": 1490.0,
        "Rows": 832,
        "SAR": 0.02961537670691,
        "SamplesPerPixel": 1,
        "ScanOptions": "FS",
        "ScanningSequence": "EP",
        "SequenceName": "epfid2d1_104",
        "SequenceVariant": [
          "SK",
          "SS"
        ],
        "SeriesDescription": "func_task-figures3",
        "SeriesNumber": 28,
        "SeriesTime": "113932.637000",
        "SliceLocation": -56.308541318292,
        "SliceThickness": 2.0,
        "SmallestImagePixelValue": 0,
        "SoftwareVersions": "syngo MR E11",
        "SpacingBetweenSlices": 2.0000000377143,
        "SpecificCharacterSet": "ISO_IR 100",
        "StudyID": "1",
        "StudyTime": "094845.434000",
        "TransmitCoilName": "Body",
        "VariableFlipAngleFlag": "N",
        "WindowCenterWidthExplanation": "Algo1",
        "dBdt": 0.0
      },
      "slices": {}
    },
    "modality": "bold",
    "run_id": 2,
    "session_id": "006",
    "subject_id": "06",
    "task_id": "figures03",
    "time": {
      "samples": {
        "AcquisitionNumber": [
          1,
          2,
          3,
          4,
          5,
          6,
          7,
          8,
          9,
          10,
          11,
          12,
          13,
          14,
          15,
          16,
          17,
          18,
          19,
          20,
          21,
          22,
          23,
          24,
          25,
          26,
          27,
          28,
          29,
          30,
          31,
          32,
          33,
          34,
          35,
          36,
          37,
          38,
          39,
          40,
          41,
          42,
          43,
          44,
          45,
          46,
          47,
          48,
          49,
          50,
          51,
          52,
          53,
          54,
          55,
          56,
          57,
          58,
          59,
          60,
          61,
          62,
          63,
          64,
          65,
          66,
          67,
          68,
          69,
          70,
          71,
          72,
          73,
          74,
          75,
          76,
          77,
          78,
          79,
          80,
          81,
          82,
          83,
          84,
          85,
          86,
          87,
          88,
          89,
          90,
          91,
          92,
          93,
          94,
          95,
          96,
          97,
          98,
          99,
          100,
          101,
          102,
          103,
          104,
          105,
          106,
          107,
          108,
          109,
          110,
          111,
          112,
          113,
          114,
          115,
          116,
          117,
          118,
          119,
          120,
          121,
          122,
          123,
          124,
          125,
          126,
          127,
          128,
          129,
          130,
          131,
          132,
          133,
          134,
          135,
          136,
          137,
          138,
          139,
          140,
          141,
          142,
          143,
          144,
          145,
          146,
          147,
          148,
          149,
          150,
          151,
          152,
          153,
          154,
          155,
          156,
          157,
          158,
          159,
          160,
          161,
          162,
          163,
          164,
          165,
          166,
          167,
          168,
          169,
          170,
          171,
          172,
          173,
          174,
          175,
          176,
          177,
          178,
          179,
          180,
          181,
          182,
          183,
          184,
          185,
          186,
          187,
          188,
          189,
          190,
          191,
          192,
          193,
          194,
          195,
          196,
          197,
          198,
          199,
          200,
          201,
          202,
          203,
          204,
          205,
          206,
          207,
          208,
          209,
          210,
          211,
          212,
          213,
          214,
          215,
          216,
          217,
          218,
          219,
          220,
          221,
          222,
          223,
          224,
          225,
          226,
          227,
          228,
          229,
          230,
          231,
          232,
          233,
          234,
          235,
          236,
          237,
          238,
          239,
          240,
          241,
          242,
          243,
          244,
          245,
          246,
          247,
          248,
          249,
          250,
          251,
          252,
          253,
          254,
          255,
          256,
          257,
          258,
          259,
          260,
          261,
          262,
          263,
          264,
          265,
          266,
          267,
          268,
          269,
          270,
          271,
          272,
          273,
          274,
          275,
          276,
          277,
          278,
          279,
          280,
          281,
          282,
          283,
          284,
          285,
          286,
          287,
          288,
          289,
          290,
          291,
          292,
          293,
          294,
          295,
          296,
          297,
          298,
          299,
          300,
          301,
          302,
          303,
          304,
          305,
          306,
          307,
          308,
          309,
          310,
          311,
          312,
          313,
          314,
          315,
          316,
          317,
          318,
          319,
          320,
          321,
          322,
          323,
          324,
          325,
          326,
          327,
          328,
          329,
          330,
          331,
          332,
          333,
          334,
          335,
          336,
          337,
          338,
          339,
          340,
          341,
          342,
          343,
          344,
          345,
          346,
          347,
          348,
          349,
          350,
          351,
          352,
          353,
          354,
          355,
          356,
          357,
          358,
          359,
          360,
          361,
          362,
          363,
          364,
          365,
          366,
          367,
          368,
          369,
          370,
          371,
          372,
          373,
          374,
          375,
          376,
          377,
          378,
          379,
          380,
          381,
          382,
          383,
          384,
          385,
          386,
          387,
          388,
          389,
          390,
          391,
          392,
          393,
          394,
          395,
          396,
          397,
          398,
          399,
          400,
          401,
          402,
          403,
          404,
          405,
          406,
          407,
          408,
          409,
          410,
          411
        ],
        "AcquisitionTime": [
          "113805.422500",
          "113806.912500",
          "113808.402500",
          "113809.892500",
          "113811.382500",
          "113812.872500",
          "113814.362500",
          "113815.852500",
          "113817.342500",
          "113818.832500",
          "113820.322500",
          "113821.812500",
          "113823.302500",
          "113824.792500",
          "113826.282500",
          "113827.772500",
          "113829.262500",
          "113830.752500",
          "113832.242500",
          "113833.732500",
          "113835.222500",
          "113836.712500",
          "113838.202500",
          "113839.692500",
          "113841.182500",
          "113842.672500",
          "113844.162500",
          "113845.652500",
          "113847.142500",
          "113848.632500",
          "113850.122500",
          "113851.612500",
          "113853.102500",
          "113854.592500",
          "113856.082500",
          "113857.572500",
          "113859.062500",
          "113900.552500",
          "113902.042500",
          "113903.532500",
          "113905.022500",
          "113906.512500",
          "113908.002500",
          "113909.492500",
          "113910.982500",
          "113912.472500",
          "113913.962500",
          "113915.452500",
          "113916.942500",
          "113918.432500",
          "113919.922500",
          "113921.412500",
          "113922.902500",
          "113924.392500",
          "113925.882500",
          "113927.372500",
          "113928.862500",
          "113930.352500",
          "113931.842500",
          "113933.332500",
          "113934.822500",
          "113936.312500",
          "113937.802500",
          "113939.292500",
          "113940.782500",
          "113942.272500",
          "113943.762500",
          "113945.252500",
          "113946.742500",
          "113948.232500",
          "113949.722500",
          "113951.212500",
          "113952.702500",
          "113954.192500",
          "113955.682500",
          "113957.172500",
          "113958.662500",
          "114000.152500",
          "114001.642500",
          "114003.132500",
          "114004.622500",
          "114006.112500",
          "114007.602500",
          "114009.092500",
          "114010.582500",
          "114012.072500",
          "114013.562500",
          "114015.052500",
          "114016.542500",
          "114018.032500",
          "114019.522500",
          "114021.012500",
          "114022.502500",
          "114023.992500",
          "114025.482500",
          "114026.972500",
          "114028.462500",
          "114029.952500",
          "114031.442500",
          "114032.932500",
          "114034.422500",
          "114035.912500",
          "114037.402500",
          "114038.892500",
          "114040.382500",
          "114041.872500",
          "114043.362500",
          "114044.852500",
          "114046.342500",
          "114047.832500",
          "114049.322500",
          "114050.812500",
          "114052.302500",
          "114053.792500",
          "114055.282500",
          "114056.772500",
          "114058.262500",
          "114059.752500",
          "114101.242500",
          "114102.732500",
          "114104.222500",
          "114105.712500",
          "114107.202500",
          "114108.692500",
          "114110.182500",
          "114111.672500",
          "114113.162500",
          "114114.652500",
          "114116.142500",
          "114117.632500",
          "114119.122500",
          "114120.612500",
          "114122.102500",
          "114123.592500",
          "114125.082500",
          "114126.572500",
          "114128.062500",
          "114129.552500",
          "114131.042500",
          "114132.532500",
          "114134.022500",
          "114135.512500",
          "114137.002500",
          "114138.492500",
          "114139.982500",
          "114141.472500",
          "114142.962500",
          "114144.452500",
          "114145.942500",
          "114147.432500",
          "114148.922500",
          "114150.412500",
          "114151.902500",
          "114153.392500",
          "114154.882500",
          "114156.372500",
          "114157.862500",
          "114159.352500",
          "114200.842500",
          "114202.332500",
          "114203.822500",
          "114205.312500",
          "114206.802500",
          "114208.292500",
          "114209.782500",
          "114211.272500",
          "114212.762500",
          "114214.252500",
          "114215.742500",
          "114217.232500",
          "114218.722500",
          "114220.212500",
          "114221.702500",
          "114223.192500",
          "114224.682500",
          "114226.172500",
          "114227.662500",
          "114229.152500",
          "114230.642500",
          "114232.132500",
          "114233.622500",
          "114235.112500",
          "114236.602500",
          "114238.092500",
          "114239.582500",
          "114241.072500",
          "114242.562500",
          "114244.052500",
          "114245.542500",
          "114247.032500",
          "114248.522500",
          "114250.012500",
          "114251.502500",
          "114252.992500",
          "114254.482500",
          "114255.972500",
          "114257.462500",
          "114258.952500",
          "114300.442500",
          "114301.932500",
          "114303.422500",
          "114304.912500",
          "114306.402500",
          "114307.892500",
          "114309.382500",
          "114310.872500",
          "114312.362500",
          "114313.852500",
          "114315.342500",
          "114316.832500",
          "114318.322500",
          "114319.812500",
          "114321.302500",
          "114322.792500",
          "114324.282500",
          "114325.772500",
          "114327.262500",
          "114328.752500",
          "114330.242500",
          "114331.732500",
          "114333.222500",
          "114334.712500",
          "114336.202500",
          "114337.692500",
          "114339.182500",
          "114340.672500",
          "114342.162500",
          "114343.652500",
          "114345.142500",
          "114346.632500",
          "114348.122500",
          "114349.612500",
          "114351.102500",
          "114352.592500",
          "114354.082500",
          "114355.572500",
          "114357.062500",
          "114358.552500",
          "114400.042500",
          "114401.532500",
          "114403.022500",
          "114404.512500",
          "114406.002500",
          "114407.492500",
          "114408.982500",
          "114410.472500",
          "114411.962500",
          "114413.452500",
          "114414.942500",
          "114416.432500",
          "114417.922500",
          "114419.412500",
          "114420.902500",
          "114422.392500",
          "114423.882500",
          "114425.372500",
          "114426.862500",
          "114428.352500",
          "114429.842500",
          "114431.332500",
          "114432.822500",
          "114434.312500",
          "114435.802500",
          "114437.292500",
          "114438.782500",
          "114440.272500",
          "114441.762500",
          "114443.252500",
          "114444.742500",
          "114446.232500",
          "114447.722500",
          "114449.212500",
          "114450.702500",
          "114452.192500",
          "114453.682500",
          "114455.172500",
          "114456.662500",
          "114458.152500",
          "114459.642500",
          "114501.132500",
          "114502.622500",
          "114504.112500",
          "114505.602500",
          "114507.092500",
          "114508.582500",
          "114510.072500",
          "114511.562500",
          "114513.052500",
          "114514.542500",
          "114516.032500",
          "114517.522500",
          "114519.012500",
          "114520.502500",
          "114521.992500",
          "114523.482500",
          "114524.972500",
          "114526.462500",
          "114527.952500",
          "114529.442500",
          "114530.932500",
          "114532.422500",
          "114533.912500",
          "114535.402500",
          "114536.892500",
          "114538.382500",
          "114539.872500",
          "114541.362500",
          "114542.852500",
          "114544.342500",
          "114545.832500",
          "114547.322500",
          "114548.812500",
          "114550.302500",
          "114551.792500",
          "114553.282500",
          "114554.772500",
          "114556.262500",
          "114557.752500",
          "114559.242500",
          "114600.732500",
          "114602.222500",
          "114603.712500",
          "114605.202500",
          "114606.692500",
          "114608.182500",
          "114609.672500",
          "114611.162500",
          "114612.652500",
          "114614.142500",
          "114615.632500",
          "114617.122500",
          "114618.612500",
          "114620.102500",
          "114621.592500",
          "114623.082500",
          "114624.572500",
          "114626.062500",
          "114627.552500",
          "114629.042500",
          "114630.532500",
          "114632.022500",
          "114633.512500",
          "114635.002500",
          "114636.492500",
          "114637.982500",
          "114639.472500",
          "114640.962500",
          "114642.452500",
          "114643.942500",
          "114645.432500",
          "114646.922500",
          "114648.412500",
          "114649.902500",
          "114651.392500",
          "114652.882500",
          "114654.372500",
          "114655.862500",
          "114657.352500",
          "114658.842500",
          "114700.332500",
          "114701.822500",
          "114703.312500",
          "114704.802500",
          "114706.292500",
          "114707.782500",
          "114709.272500",
          "114710.762500",
          "114712.252500",
          "114713.742500",
          "114715.232500",
          "114716.722500",
          "114718.212500",
          "114719.702500",
          "114721.192500",
          "114722.682500",
          "114724.172500",
          "114725.662500",
          "114727.152500",
          "114728.642500",
          "114730.132500",
          "114731.622500",
          "114733.112500",
          "114734.602500",
          "114736.092500",
          "114737.582500",
          "114739.072500",
          "114740.562500",
          "114742.052500",
          "114743.542500",
          "114745.032500",
          "114746.522500",
          "114748.012500",
          "114749.502500",
          "114750.992500",
          "114752.482500",
          "114753.972500",
          "114755.462500",
          "114756.952500",
          "114758.442500",
          "114759.932500",
          "114801.422500",
          "114802.912500",
          "114804.402500",
          "114805.892500",
          "114807.382500",
          "114808.872500",
          "114810.362500",
          "114811.852500",
          "114813.342500",
          "114814.832500",
          "114816.322500"
        ],
        "ContentTime": [
          "113932.640000",
          "113932.643000",
          "113932.646000",
          "113932.649000",
          "113932.652000",
          "113932.655000",
          "113932.658000",
          "113932.661000",
          "113932.663000",
          "113932.666000",
          "113932.669000",
          "113932.672000",
          "113932.675000",
          "113932.678000",
          "113932.681000",
          "113932.684000",
          "113932.687000",
          "113932.690000",
          "113932.693000",
          "113932.695000",
          "113932.698000",
          "113932.701000",
          "113932.704000",
          "113932.707000",
          "113932.710000",
          "113932.713000",
          "113932.716000",
          "113932.718000",
          "113932.730000",
          "113932.733000",
          "113932.736000",
          "113932.739000",
          "113932.742000",
          "113932.745000",
          "113952.594000",
          "113952.597000",
          "113952.600000",
          "113952.603000",
          "113952.606000",
          "113952.609000",
          "113952.611000",
          "113952.614000",
          "113952.617000",
          "113952.620000",
          "113952.623000",
          "113952.626000",
          "113952.629000",
          "113952.632000",
          "113952.634000",
          "113952.637000",
          "113952.640000",
          "113952.643000",
          "113952.646000",
          "113952.649000",
          "114012.594000",
          "114012.597000",
          "114012.600000",
          "114012.603000",
          "114012.606000",
          "114012.608000",
          "114012.611000",
          "114012.614000",
          "114012.617000",
          "114012.620000",
          "114012.623000",
          "114012.626000",
          "114012.629000",
          "114012.632000",
          "114012.635000",
          "114012.638000",
          "114012.640000",
          "114012.643000",
          "114012.646000",
          "114012.649000",
          "114032.595000",
          "114032.598000",
          "114032.601000",
          "114032.604000",
          "114032.607000",
          "114032.610000",
          "114032.613000",
          "114032.615000",
          "114032.618000",
          "114032.621000",
          "114032.629000",
          "114032.632000",
          "114032.635000",
          "114032.638000",
          "114032.641000",
          "114032.644000",
          "114032.647000",
          "114032.650000",
          "114032.652000",
          "114032.655000",
          "114112.595000",
          "114112.598000",
          "114112.601000",
          "114112.604000",
          "114112.607000",
          "114112.610000",
          "114112.613000",
          "114112.616000",
          "114112.619000",
          "114112.622000",
          "114112.625000",
          "114112.628000",
          "114112.631000",
          "114112.634000",
          "114112.636000",
          "114112.640000",
          "114112.642000",
          "114112.645000",
          "114112.648000",
          "114112.651000",
          "114112.654000",
          "114112.657000",
          "114112.660000",
          "114112.671000",
          "114112.679000",
          "114112.682000",
          "114112.684000",
          "114112.688000",
          "114112.690000",
          "114112.693000",
          "114112.696000",
          "114152.594000",
          "114152.597000",
          "114152.600000",
          "114152.603000",
          "114152.606000",
          "114152.609000",
          "114152.612000",
          "114152.615000",
          "114152.618000",
          "114152.621000",
          "114152.624000",
          "114152.627000",
          "114152.629000",
          "114152.632000",
          "114152.635000",
          "114152.638000",
          "114152.641000",
          "114152.644000",
          "114152.647000",
          "114152.650000",
          "114152.653000",
          "114152.656000",
          "114152.659000",
          "114152.662000",
          "114152.665000",
          "114152.668000",
          "114152.671000",
          "114232.594000",
          "114232.597000",
          "114232.600000",
          "114232.603000",
          "114232.606000",
          "114232.609000",
          "114232.612000",
          "114232.615000",
          "114232.618000",
          "114232.620000",
          "114232.623000",
          "114232.626000",
          "114232.629000",
          "114232.632000",
          "114232.635000",
          "114232.638000",
          "114232.641000",
          "114232.644000",
          "114232.647000",
          "114232.650000",
          "114232.652000",
          "114232.655000",
          "114232.658000",
          "114232.661000",
          "114232.664000",
          "114232.667000",
          "114232.670000",
          "114312.596000",
          "114312.599000",
          "114312.602000",
          "114312.605000",
          "114312.608000",
          "114312.611000",
          "114312.614000",
          "114312.617000",
          "114312.620000",
          "114312.622000",
          "114312.625000",
          "114312.628000",
          "114312.631000",
          "114312.634000",
          "114312.637000",
          "114312.640000",
          "114312.656000",
          "114312.659000",
          "114312.662000",
          "114312.665000",
          "114312.668000",
          "114312.671000",
          "114312.674000",
          "114312.676000",
          "114312.679000",
          "114312.682000",
          "114352.594000",
          "114352.597000",
          "114352.600000",
          "114352.603000",
          "114352.606000",
          "114352.609000",
          "114352.612000",
          "114352.615000",
          "114352.618000",
