{
  "aor": 0.0019772631578947367,
  "aqi": 0.009773863710526316,
  "bids_meta": {
    "AcquisitionMatrixPE": 104,
    "AcquisitionNumber": 1,
    "AcquisitionTime": "10:50:39.132500",
    "BandwidthPerPixelPhaseEncode": 17.17,
    "BaseResolution": 104,
    "BodyPartExamined": "BRAIN",
    "CogAtlasID": "trm_4c898da401420",
    "ConsistencyInfo": "N4_VE11C_LATEST_20160120",
    "ConversionSoftware": "dcm2niix",
    "ConversionSoftwareVersion": "v1.0.20171215 (OpenJPEG build) GCC7.3.0",
    "DerivedVendorReportedEchoSpacing": 0.000560011,
    "DeviceSerialNumber": "167006",
    "DwellTime": 2.1e-06,
    "EchoTime": 0.037,
    "EchoTrainLength": 104,
    "EffectiveEchoSpacing": 0.000560011,
    "FlipAngle": 52,
    "ImageComments": "Unaliased_MB4_PE3_LB",
    "ImageOrientationPatientDICOM": [
      0.998419,
      -0.0558917,
      -0.00596252,
      0.0484815,
      0.909979,
      -0.411811
    ],
    "ImageType": [
      "ORIGINAL",
      "PRIMARY",
      "M",
      "MB",
      "ND",
      "MOSAIC"
    ],
    "InPlanePhaseEncodingDirectionDICOM": "COL",
    "InstitutionAddress": "Chemin_Queen-Mary_4565_Montreal_District_CA_H3W_1W5",
    "InstitutionName": "IUGM",
    "InstitutionalDepartmentName": "Department",
    "MRAcquisitionType": "2D",
    "MagneticFieldStrength": 3,
    "Manufacturer": "Siemens",
    "ManufacturersModelName": "Prisma_fit",
    "Modality": "MR",
    "MultibandAccelerationFactor": 4,
    "PartialFourier": 1,
    "PatientPosition": "HFS",
    "PercentPhaseFOV": 100,
    "PhaseEncodingDirection": "j",
    "PhaseEncodingSteps": 104,
    "PhaseResolution": 1,
    "PixelBandwidth": 2290,
    "ProcedureStepDescription": "video5_generic",
    "ProtocolName": "func_task-bourne10",
    "PulseSequenceDetails": "%CustomerSeq%_cmrr_mbep2d_bold",
    "ReceiveCoilActiveElements": "HC1-7;NC1,2",
    "ReceiveCoilName": "HeadNeck_64",
    "ReconMatrixPE": 104,
    "RepetitionTime": 1.49,
    "SAR": 0.0285735,
    "ScanOptions": "FS",
    "ScanningSequence": "EP",
    "SequenceName": "epfid2d1_104",
    "SequenceVariant": "SK_SS",
    "SeriesDescription": "func_task-bourne10",
    "SeriesNumber": 16,
    "ShimSetting": [
      633,
      -7239,
      -8903,
      560,
      31,
      -274,
      -131,
      -13
    ],
    "SliceThickness": 2,
    "SliceTiming": [
      0,
      0.7825,
      0.0975,
      0.88,
      0.195,
      0.98,
      0.2925,
      1.0775,
      0.39,
      1.175,
      0.49,
      1.2725,
      0.5875,
      1.37,
      0.685,
      0,
      0.7825,
      0.0975,
      0.88,
      0.195,
      0.98,
      0.2925,
      1.0775,
      0.39,
      1.175,
      0.49,
      1.2725,
      0.5875,
      1.37,
      0.685,
      0,
      0.7825,
      0.0975,
      0.88,
      0.195,
      0.98,
      0.2925,
      1.0775,
      0.39,
      1.175,
      0.49,
      1.2725,
      0.5875,
      1.37,
      0.685,
      0,
      0.7825,
      0.0975,
      0.88,
      0.195,
      0.98,
      0.2925,
      1.0775,
      0.39,
      1.175,
      0.49,
      1.2725,
      0.5875,
      1.37,
      0.685
    ],
    "SoftwareVersions": "syngo_MR_E11",
    "SpacingBetweenSlices": 2,
    "StationName": "MRC35049",
    "TaskName": "bourne10",
    "TotalReadoutTime": 0.0576811,
    "TxRefAmp": 222.463,
    "dataset": "<unset>",
    "dcmmeta_affine": [
      [
        -1.996838092803955,
        0.09696297347545624,
        -0.056885186582803726,
        98.0257568359375
      ],
      [
        0.11178342998027802,
        1.8199573755264282,
        -0.8217417001724243,
        -73.731689453125
      ],
      [
        -0.011925047263503075,
        0.8236219882965088,
        1.8224995136260986,
        -94.06820678710938
      ],
      [
        0.0,
        0.0,
        0.0,
        1.0
      ]
    ],
    "dcmmeta_reorient_transform": [
      [
        0.0,
        -1.0,
        0.0,
        103.0
      ],
      [
        1.0,
        0.0,
        0.0,
        0.0
      ],
      [
        0.0,
        0.0,
        1.0,
        0.0
      ],
      [
        0.0,
        0.0,
        0.0,
        1.0
      ]
    ],
    "dcmmeta_shape": [
      104,
      104,
      60,
      380
    ],
    "dcmmeta_slice_dim": 2,
    "dcmmeta_version": 0.6,
    "global": {
      "const": {
        "AcquisitionMatrix": [
          104,
          0,
          0,
          104
        ],
        "AngioFlag": "N",
        "BitsAllocated": 16,
        "BitsStored": 16,
        "BodyPartExamined": "BRAIN",
        "Columns": 832,
        "EchoNumbers": 1,
        "EchoTime": 37.0,
        "EchoTrainLength": 104,
        "FlipAngle": 52.0,
        "HighBit": 15,
        "ImageOrientationPatient": [
          0.99841903244102,
          -0.0558917164741,
          -0.0059625237211,
          0.04848148701553,
          0.90997871153973,
          -0.4118109881502
        ],
        "ImagePositionPatient": [
          -870.15652292977,
          -735.49925608483,
          294.90397575635
        ],
        "ImageType": [
          "ORIGINAL",
          "PRIMARY",
          "M",
          "MB",
          "ND",
          "MOSAIC"
        ],
        "ImagedNucleus": "1H",
        "ImagingFrequency": 123.259475,
        "InPlanePhaseEncodingDirection": "COL",
        "MRAcquisitionType": "2D",
        "MagneticFieldStrength": 3.0,
        "Manufacturer": "SIEMENS",
        "ManufacturerModelName": "Prisma_fit",
        "Modality": "MR",
        "NumberOfAverages": 1.0,
        "NumberOfPhaseEncodingSteps": 104,
        "PercentPhaseFieldOfView": 100.0,
        "PercentSampling": 100.0,
        "PerformedProcedureStepStartTime": "094845.519000",
        "PhotometricInterpretation": "MONOCHROME2",
        "PixelBandwidth": 2290.0,
        "PixelRepresentation": 0,
        "PixelSpacing": [
          2.0,
          2.0
        ],
        "ProtocolName": "func_task-bourne10",
        "RepetitionTime": 1490.0,
        "Rows": 832,
        "SAR": 0.02857347146243,
        "SamplesPerPixel": 1,
        "ScanOptions": "FS",
        "ScanningSequence": "EP",
        "SequenceName": "epfid2d1_104",
        "SequenceVariant": [
          "SK",
          "SS"
        ],
        "SeriesDescription": "func_task-bourne10",
        "SeriesNumber": 16,
        "SeriesTime": "105210.978000",
        "SliceLocation": -58.21353417801,
        "SliceThickness": 2.0,
        "SmallestImagePixelValue": 0,
        "SoftwareVersions": "syngo MR E11",
        "SpacingBetweenSlices": 2.0000000097885,
        "SpecificCharacterSet": "ISO_IR 100",
        "StudyID": "1",
        "StudyTime": "094845.434000",
        "TransmitCoilName": "Body",
        "VariableFlipAngleFlag": "N",
        "WindowCenterWidthExplanation": "Algo1",
        "dBdt": 0.0
      },
      "slices": {}
    },
    "modality": "bold",
    "session_id": "006",
    "subject_id": "06",
    "task_id": "bourne10",
    "time": {
      "samples": {
        "AcquisitionNumber": [
          1,
          2,
          3,
          4,
          5,
          6,
          7,
          8,
          9,
          10,
          11,
          12,
          13,
          14,
          15,
          16,
          17,
          18,
          19,
          20,
          21,
          22,
          23,
          24,
          25,
          26,
          27,
          28,
          29,
          30,
          31,
          32,
          33,
          34,
          35,
          36,
          37,
          38,
          39,
          40,
          41,
          42,
          43,
          44,
          45,
          46,
          47,
          48,
          49,
          50,
          51,
          52,
          53,
          54,
          55,
          56,
          57,
          58,
          59,
          60,
          61,
          62,
          63,
          64,
          65,
          66,
          67,
          68,
          69,
          70,
          71,
          72,
          73,
          74,
          75,
          76,
          77,
          78,
          79,
          80,
          81,
          82,
          83,
          84,
          85,
          86,
          87,
          88,
          89,
          90,
          91,
          92,
          93,
          94,
          95,
          96,
          97,
          98,
          99,
          100,
          101,
          102,
          103,
          104,
          105,
          106,
          107,
          108,
          109,
          110,
          111,
          112,
          113,
          114,
          115,
          116,
          117,
          118,
          119,
          120,
          121,
          122,
          123,
          124,
          125,
          126,
          127,
          128,
          129,
          130,
          131,
          132,
          133,
          134,
          135,
          136,
          137,
          138,
          139,
          140,
          141,
          142,
          143,
          144,
          145,
          146,
          147,
          148,
          149,
          150,
          151,
          152,
          153,
          154,
          155,
          156,
          157,
          158,
          159,
          160,
          161,
          162,
          163,
          164,
          165,
          166,
          167,
          168,
          169,
          170,
          171,
          172,
          173,
          174,
          175,
          176,
          177,
          178,
          179,
          180,
          181,
          182,
          183,
          184,
          185,
          186,
          187,
          188,
          189,
          190,
          191,
          192,
          193,
          194,
          195,
          196,
          197,
          198,
          199,
          200,
          201,
          202,
          203,
          204,
          205,
          206,
          207,
          208,
          209,
          210,
          211,
          212,
          213,
          214,
          215,
          216,
          217,
          218,
          219,
          220,
          221,
          222,
          223,
          224,
          225,
          226,
          227,
          228,
          229,
          230,
          231,
          232,
          233,
          234,
          235,
          236,
          237,
          238,
          239,
          240,
          241,
          242,
          243,
          244,
          245,
          246,
          247,
          248,
          249,
          250,
          251,
          252,
          253,
          254,
          255,
          256,
          257,
          258,
          259,
          260,
          261,
          262,
          263,
          264,
          265,
          266,
          267,
          268,
          269,
          270,
          271,
          272,
          273,
          274,
          275,
          276,
          277,
          278,
          279,
          280,
          281,
          282,
          283,
          284,
          285,
          286,
          287,
          288,
          289,
          290,
          291,
          292,
          293,
          294,
          295,
          296,
          297,
          298,
          299,
          300,
          301,
          302,
          303,
          304,
          305,
          306,
          307,
          308,
          309,
          310,
          311,
          312,
          313,
          314,
          315,
          316,
          317,
          318,
          319,
          320,
          321,
          322,
          323,
          324,
          325,
          326,
          327,
          328,
          329,
          330,
          331,
          332,
          333,
          334,
          335,
          336,
          337,
          338,
          339,
          340,
          341,
          342,
          343,
          344,
          345,
          346,
          347,
          348,
          349,
          350,
          351,
          352,
          353,
          354,
          355,
          356,
          357,
          358,
          359,
          360,
          361,
          362,
          363,
          364,
          365,
          366,
          367,
          368,
          369,
          370,
          371,
          372,
          373,
          374,
          375,
          376,
          377,
          378,
          379,
          380
        ],
        "AcquisitionTime": [
          "105039.132500",
          "105040.622500",
          "105042.112500",
          "105043.602500",
          "105045.092500",
          "105046.582500",
          "105048.072500",
          "105049.562500",
          "105051.052500",
          "105052.542500",
          "105054.032500",
          "105055.522500",
          "105057.012500",
          "105058.502500",
          "105059.992500",
          "105101.482500",
          "105102.972500",
          "105104.462500",
          "105105.952500",
          "105107.442500",
          "105108.932500",
          "105110.422500",
          "105111.912500",
          "105113.402500",
          "105114.892500",
          "105116.382500",
          "105117.872500",
          "105119.362500",
          "105120.852500",
          "105122.342500",
          "105123.832500",
          "105125.322500",
          "105126.812500",
          "105128.302500",
          "105129.792500",
          "105131.282500",
          "105132.772500",
          "105134.262500",
          "105135.752500",
          "105137.242500",
          "105138.732500",
          "105140.222500",
          "105141.712500",
          "105143.202500",
          "105144.692500",
          "105146.182500",
          "105147.672500",
          "105149.162500",
          "105150.652500",
          "105152.142500",
          "105153.632500",
          "105155.122500",
          "105156.612500",
          "105158.102500",
          "105159.592500",
          "105201.082500",
          "105202.572500",
          "105204.062500",
          "105205.552500",
          "105207.042500",
          "105208.532500",
          "105210.022500",
          "105211.512500",
          "105213.002500",
          "105214.492500",
          "105215.982500",
          "105217.472500",
          "105218.962500",
          "105220.452500",
          "105221.942500",
          "105223.432500",
          "105224.922500",
          "105226.412500",
          "105227.902500",
          "105229.392500",
          "105230.882500",
          "105232.372500",
          "105233.862500",
          "105235.352500",
          "105236.842500",
          "105238.332500",
          "105239.822500",
          "105241.312500",
          "105242.802500",
          "105244.292500",
          "105245.782500",
          "105247.272500",
          "105248.762500",
          "105250.252500",
          "105251.742500",
          "105253.232500",
          "105254.722500",
          "105256.212500",
          "105257.702500",
          "105259.192500",
          "105300.682500",
          "105302.172500",
          "105303.662500",
          "105305.152500",
          "105306.642500",
          "105308.132500",
          "105309.622500",
          "105311.112500",
          "105312.602500",
          "105314.092500",
          "105315.582500",
          "105317.072500",
          "105318.562500",
          "105320.052500",
          "105321.542500",
          "105323.032500",
          "105324.522500",
          "105326.012500",
          "105327.502500",
          "105328.992500",
          "105330.482500",
          "105331.972500",
          "105333.462500",
          "105334.952500",
          "105336.442500",
          "105337.932500",
          "105339.422500",
          "105340.912500",
          "105342.402500",
          "105343.892500",
          "105345.382500",
          "105346.872500",
          "105348.362500",
          "105349.852500",
          "105351.342500",
          "105352.832500",
          "105354.322500",
          "105355.812500",
          "105357.302500",
          "105358.792500",
          "105400.282500",
          "105401.772500",
          "105403.262500",
          "105404.752500",
          "105406.242500",
          "105407.732500",
          "105409.222500",
          "105410.712500",
          "105412.202500",
          "105413.692500",
          "105415.182500",
          "105416.672500",
          "105418.162500",
          "105419.652500",
          "105421.142500",
          "105422.632500",
          "105424.122500",
          "105425.612500",
          "105427.102500",
          "105428.592500",
          "105430.082500",
          "105431.572500",
          "105433.062500",
          "105434.552500",
          "105436.042500",
          "105437.532500",
          "105439.022500",
          "105440.512500",
          "105442.002500",
          "105443.492500",
          "105444.982500",
          "105446.472500",
          "105447.962500",
          "105449.452500",
          "105450.942500",
          "105452.432500",
          "105453.922500",
          "105455.412500",
          "105456.902500",
          "105458.392500",
          "105459.882500",
          "105501.372500",
          "105502.862500",
          "105504.352500",
          "105505.842500",
          "105507.332500",
          "105508.822500",
          "105510.312500",
          "105511.802500",
          "105513.292500",
          "105514.782500",
          "105516.272500",
          "105517.762500",
          "105519.252500",
          "105520.742500",
          "105522.232500",
          "105523.722500",
          "105525.212500",
          "105526.702500",
          "105528.192500",
          "105529.682500",
          "105531.172500",
          "105532.662500",
          "105534.152500",
          "105535.642500",
          "105537.132500",
          "105538.622500",
          "105540.112500",
          "105541.602500",
          "105543.092500",
          "105544.582500",
          "105546.072500",
          "105547.562500",
          "105549.052500",
          "105550.542500",
          "105552.032500",
          "105553.522500",
          "105555.012500",
          "105556.502500",
          "105557.992500",
          "105559.482500",
          "105600.972500",
          "105602.462500",
          "105603.952500",
          "105605.442500",
          "105606.932500",
          "105608.422500",
          "105609.912500",
          "105611.402500",
          "105612.892500",
          "105614.382500",
          "105615.872500",
          "105617.362500",
          "105618.852500",
          "105620.342500",
          "105621.832500",
          "105623.322500",
          "105624.812500",
          "105626.302500",
          "105627.792500",
          "105629.282500",
          "105630.772500",
          "105632.262500",
          "105633.752500",
          "105635.242500",
          "105636.732500",
          "105638.222500",
          "105639.712500",
          "105641.202500",
          "105642.692500",
          "105644.182500",
          "105645.672500",
          "105647.162500",
          "105648.652500",
          "105650.142500",
          "105651.632500",
          "105653.122500",
          "105654.612500",
          "105656.102500",
          "105657.592500",
          "105659.082500",
          "105700.572500",
          "105702.062500",
          "105703.552500",
          "105705.042500",
          "105706.532500",
          "105708.022500",
          "105709.512500",
          "105711.002500",
          "105712.492500",
          "105713.982500",
          "105715.472500",
          "105716.962500",
          "105718.452500",
          "105719.942500",
          "105721.432500",
          "105722.922500",
          "105724.412500",
          "105725.902500",
          "105727.392500",
          "105728.882500",
          "105730.372500",
          "105731.862500",
          "105733.352500",
          "105734.842500",
          "105736.332500",
          "105737.822500",
          "105739.312500",
          "105740.802500",
          "105742.292500",
          "105743.782500",
          "105745.272500",
          "105746.762500",
          "105748.252500",
          "105749.742500",
          "105751.232500",
          "105752.722500",
          "105754.212500",
          "105755.702500",
          "105757.192500",
          "105758.682500",
          "105800.172500",
          "105801.662500",
          "105803.152500",
          "105804.642500",
          "105806.132500",
          "105807.622500",
          "105809.112500",
          "105810.602500",
          "105812.092500",
          "105813.582500",
          "105815.072500",
          "105816.562500",
          "105818.052500",
          "105819.542500",
          "105821.032500",
          "105822.522500",
          "105824.012500",
          "105825.502500",
          "105826.992500",
          "105828.482500",
          "105829.972500",
          "105831.462500",
          "105832.952500",
          "105834.442500",
          "105835.932500",
          "105837.422500",
          "105838.912500",
          "105840.402500",
          "105841.892500",
          "105843.382500",
          "105844.872500",
          "105846.362500",
          "105847.852500",
          "105849.342500",
          "105850.832500",
          "105852.322500",
          "105853.812500",
          "105855.302500",
          "105856.792500",
          "105858.282500",
          "105859.772500",
          "105901.262500",
          "105902.752500",
          "105904.242500",
          "105905.732500",
          "105907.222500",
          "105908.712500",
          "105910.202500",
          "105911.692500",
          "105913.182500",
          "105914.672500",
          "105916.162500",
          "105917.652500",
          "105919.142500",
          "105920.632500",
          "105922.122500",
          "105923.612500",
          "105925.102500",
          "105926.592500",
          "105928.082500",
          "105929.572500",
          "105931.062500",
          "105932.552500",
          "105934.042500",
          "105935.532500",
          "105937.022500",
          "105938.512500",
          "105940.002500",
          "105941.492500",
          "105942.982500",
          "105944.472500",
          "105945.962500",
          "105947.452500",
          "105948.942500",
          "105950.432500",
          "105951.922500",
          "105953.412500",
          "105954.902500",
          "105956.392500",
          "105957.882500",
          "105959.372500",
          "110000.862500",
          "110002.352500",
          "110003.842500"
        ],
        "ContentTime": [
          "105210.981000",
          "105210.984000",
          "105210.987000",
          "105210.990000",
          "105210.993000",
          "105210.996000",
          "105211.000000",
          "105211.003000",
          "105211.006000",
          "105211.009000",
          "105211.011000",
          "105211.014000",
          "105211.017000",
          "105211.020000",
          "105211.023000",
          "105211.026000",
          "105211.029000",
          "105211.035000",
          "105211.038000",
          "105211.065000",
          "105211.068000",
          "105211.070000",
          "105211.073000",
          "105211.076000",
          "105211.079000",
          "105211.098000",
          "105211.101000",
          "105211.104000",
          "105211.107000",
          "105211.110000",
          "105211.113000",
          "105211.115000",
          "105211.118000",
          "105211.121000",
          "105211.124000",
          "105211.127000",
          "105211.130000",
          "105211.133000",
          "105230.946000",
          "105230.949000",
          "105230.960000",
          "105230.963000",
          "105230.965000",
          "105230.968000",
          "105230.971000",
          "105230.974000",
          "105230.977000",
          "105230.980000",
          "105230.983000",
          "105230.986000",
          "105230.989000",
          "105230.992000",
          "105230.994000",
          "105230.997000",
          "105231.001000",
          "105231.004000",
          "105231.007000",
          "105231.010000",
          "105231.013000",
          "105250.946000",
          "105250.949000",
          "105250.952000",
          "105250.955000",
          "105250.958000",
          "105250.961000",
          "105250.964000",
          "105250.967000",
          "105250.969000",
          "105250.972000",
          "105250.975000",
          "105250.978000",
          "105250.981000",
          "105250.984000",
          "105250.987000",
          "105250.990000",
          "105250.993000",
          "105250.996000",
          "105250.998000",
          "105251.002000",
          "105310.945000",
          "105310.948000",
          "105310.951000",
          "105310.954000",
          "105310.957000",
          "105310.959000",
          "105310.962000",
          "105310.965000",
          "105310.968000",
          "105310.971000",
          "105310.974000",
          "105310.977000",
          "105310.980000",
          "105310.982000",
          "105310.985000",
          "105310.988000",
          "105310.991000",
          "105310.994000",
          "105310.997000",
          "105311.001000",
          "105350.945000",
          "105350.948000",
          "105350.951000",
          "105350.954000",
          "105350.957000",
          "105350.960000",
          "105350.963000",
          "105350.966000",
          "105350.969000",
          "105350.972000",
          "105350.975000",
          "105350.979000",
          "105350.982000",
          "105350.985000",
          "105350.988000",
          "105350.991000",
          "105350.994000",
          "105350.997000",
          "105351.001000",
          "105351.004000",
          "105351.006000",
          "105351.009000",
          "105351.012000",
          "105351.015000",
          "105351.018000",
          "105351.021000",
          "105351.024000",
          "105351.027000",
          "105351.030000",
          "105430.946000",
          "105430.949000",
          "105430.952000",
          "105430.955000",
          "105430.958000",
          "105430.961000",
          "105430.963000",
          "105430.966000",
          "105430.969000",
          "105430.972000",
          "105430.975000",
          "105430.978000",
          "105430.981000",
          "105430.984000",
          "105430.987000",
          "105430.990000",
          "105430.993000",
          "105430.995000",
          "105430.998000",
          "105431.002000",
          "105431.005000",
          "105431.008000",
          "105431.011000",
          "105431.014000",
          "105431.017000",
          "105431.020000",
          "105431.023000",
          "105510.946000",
          "105510.949000",
          "105510.952000",
          "105510.963000",
          "105510.966000",
          "105510.969000",
          "105510.972000",
          "105510.975000",
          "105510.978000",
          "105510.981000",
          "105510.984000",
          "105510.987000",
          "105510.990000",
          "105510.993000",
          "105511.008000",
          "105511.011000",
          "105511.014000",
          "105511.017000",
          "105511.020000",
          "105511.023000",
          "105511.026000",
          "105511.029000",
          "105511.032000",
          "105511.035000",
          "105511.038000",
          "105511.041000",
          "105550.945000",
          "105550.948000",
          "105550.951000",
          "105550.954000",
          "105550.957000",
          "105550.960000",
          "105550.963000",
          "105550.965000",
          "105550.968000",
          "105550.971000",
          "105550.974000",
          "105550.977000",
          "105550.980000",
          "105550.983000",
          "105550.986000",
          "105550.989000",
          "105550.992000",
          "105550.995000",
          "105550.998000",
          "105551.002000",
          "105551.004000",
          "105551.007000",
          "105551.010000",
          "105551.013000",
          "105551.016000",
          "105551.019000",
          "105551.022000",
          "105630.945000",
          "105630.948000",
          "105630.951000",
          "105630.954000",
          "105630.957000",
          "105630.960000",
          "105630.962000",
          "105630.965000",
          "105630.968000",
          "105630.971000",
          "105630.974000",
          "105630.977000",
          "105630.980000",
          "105630.983000",
          "105630.988000",
          "105630.991000",
          "105630.994000",
          "105630.997000",
          "105631.001000",
          "105631.004000",
          "105631.007000",
          "105631.010000",
          "105631.013000",
          "105631.016000",
          "105631.019000",
          "105631.021000",
          "105631.025000",
          "105710.946000",
          "105710.949000",
          "105710.952000",
          "105710.955000",
          "105710.958000",
          "105710.961000",
          "105710.964000",
          "105710.967000",
          "105710.970000",
          "105710.972000",
          "105710.975000",
          "105710.978000",
          "105710.981000",
          "105710.984000",
          "105710.987000",
          "105710.990000",
          "105710.993000",
          "105710.996000",
          "105711.000000",
          "105711.003000",
          "105711.006000",
          "105711.008000",
          "105711.011000",
          "105711.014000",
          "105711.017000",
          "105711.020000",
          "105711.023000",
          "105730.946000",
          "105730.949000",
