{
  "aor": 0.0004214567901234568,
  "aqi": 0.0069694162962962965,
  "bids_meta": {
    "AcquisitionMatrixPE": 104,
    "AcquisitionNumber": 1,
    "AcquisitionTime": "10:18:59.475000",
    "BandwidthPerPixelPhaseEncode": 17.17,
    "BaseResolution": 104,
    "BodyPartExamined": "BRAIN",
    "CogAtlasID": "trm_4c898da401420",
    "ConsistencyInfo": "N4_VE11C_LATEST_20160120",
    "ConversionSoftware": "dcm2niix",
    "ConversionSoftwareVersion": "v1.0.20171215 (OpenJPEG build) GCC7.3.0",
    "DerivedVendorReportedEchoSpacing": 0.000560011,
    "DeviceSerialNumber": "167006",
    "DwellTime": 2.1e-06,
    "EchoTime": 0.037,
    "EchoTrainLength": 104,
    "EffectiveEchoSpacing": 0.000560011,
    "FlipAngle": 52,
    "ImageComments": "Unaliased_MB4_PE3_LB",
    "ImageOrientationPatientDICOM": [
      0.998419,
      -0.0558917,
      -0.00596252,
      0.0484815,
      0.909979,
      -0.411811
    ],
    "ImageType": [
      "ORIGINAL",
      "PRIMARY",
      "M",
      "MB",
      "ND",
      "MOSAIC"
    ],
    "InPlanePhaseEncodingDirectionDICOM": "COL",
    "InstitutionAddress": "Chemin_Queen-Mary_4565_Montreal_District_CA_H3W_1W5",
    "InstitutionName": "IUGM",
    "InstitutionalDepartmentName": "Department",
    "MRAcquisitionType": "2D",
    "MagneticFieldStrength": 3,
    "Manufacturer": "Siemens",
    "ManufacturersModelName": "Prisma_fit",
    "Modality": "MR",
    "MultibandAccelerationFactor": 4,
    "PartialFourier": 1,
    "PatientPosition": "HFS",
    "PercentPhaseFOV": 100,
    "PhaseEncodingDirection": "j",
    "PhaseEncodingSteps": 104,
    "PhaseResolution": 1,
    "PixelBandwidth": 2290,
    "ProcedureStepDescription": "video5_generic",
    "ProtocolName": "func_task-bourne7",
    "PulseSequenceDetails": "%CustomerSeq%_cmrr_mbep2d_bold",
    "ReceiveCoilActiveElements": "HC1-7;NC1,2",
    "ReceiveCoilName": "HeadNeck_64",
    "ReconMatrixPE": 104,
    "RepetitionTime": 1.49,
    "SAR": 0.0285826,
    "ScanOptions": "FS",
    "ScanningSequence": "EP",
    "SequenceName": "epfid2d1_104",
    "SequenceVariant": "SK_SS",
    "SeriesDescription": "func_task-bourne7",
    "SeriesNumber": 10,
    "ShimSetting": [
      633,
      -7239,
      -8903,
      560,
      31,
      -274,
      -131,
      -13
    ],
    "SliceThickness": 2,
    "SliceTiming": [
      0,
      0.785,
      0.0975,
      0.8825,
      0.1975,
      0.98,
      0.295,
      1.0775,
      0.3925,
      1.1775,
      0.49,
      1.275,
      0.5875,
      1.3725,
      0.6875,
      0,
      0.785,
      0.0975,
      0.8825,
      0.1975,
      0.98,
      0.295,
      1.0775,
      0.3925,
      1.1775,
      0.49,
      1.275,
      0.5875,
      1.3725,
      0.6875,
      0,
      0.785,
      0.0975,
      0.8825,
      0.1975,
      0.98,
      0.295,
      1.0775,
      0.3925,
      1.1775,
      0.49,
      1.275,
      0.5875,
      1.3725,
      0.6875,
      0,
      0.785,
      0.0975,
      0.8825,
      0.1975,
      0.98,
      0.295,
      1.0775,
      0.3925,
      1.1775,
      0.49,
      1.275,
      0.5875,
      1.3725,
      0.6875
    ],
    "SoftwareVersions": "syngo_MR_E11",
    "SpacingBetweenSlices": 2,
    "StationName": "MRC35049",
    "TaskName": "bourne07",
    "TotalReadoutTime": 0.0576811,
    "TxRefAmp": 222.463,
    "dataset": "<unset>",
    "dcmmeta_affine": [
      [
        -1.996838092803955,
        0.09696297347545624,
        -0.056885186582803726,
        98.0257568359375
      ],
      [
        0.11178342998027802,
        1.8199573755264282,
        -0.8217417001724243,
        -73.731689453125
      ],
      [
        -0.011925047263503075,
        0.8236219882965088,
        1.8224995136260986,
        -94.06820678710938
      ],
      [
        0.0,
        0.0,
        0.0,
        1.0
      ]
    ],
    "dcmmeta_reorient_transform": [
      [
        0.0,
        -1.0,
        0.0,
        103.0
      ],
      [
        1.0,
        0.0,
        0.0,
        0.0
      ],
      [
        0.0,
        0.0,
        1.0,
        0.0
      ],
      [
        0.0,
        0.0,
        0.0,
        1.0
      ]
    ],
    "dcmmeta_shape": [
      104,
      104,
      60,
      405
    ],
    "dcmmeta_slice_dim": 2,
    "dcmmeta_version": 0.6,
    "global": {
      "const": {
        "AcquisitionMatrix": [
          104,
          0,
          0,
          104
        ],
        "AngioFlag": "N",
        "BitsAllocated": 16,
        "BitsStored": 16,
        "BodyPartExamined": "BRAIN",
        "Columns": 832,
        "EchoNumbers": 1,
        "EchoTime": 37.0,
        "EchoTrainLength": 104,
        "FlipAngle": 52.0,
        "HighBit": 15,
        "ImageOrientationPatient": [
          0.99841903244102,
          -0.0558917164741,
          -0.0059625237211,
          0.04848148701553,
          0.90997871153973,
          -0.4118109881502
        ],
        "ImagePositionPatient": [
          -870.15652292977,
          -735.49925608483,
          294.90397575635
        ],
        "ImageType": [
          "ORIGINAL",
          "PRIMARY",
          "M",
          "MB",
          "ND",
          "MOSAIC"
        ],
        "ImagedNucleus": "1H",
        "ImagingFrequency": 123.259462,
        "InPlanePhaseEncodingDirection": "COL",
        "MRAcquisitionType": "2D",
        "MagneticFieldStrength": 3.0,
        "Manufacturer": "SIEMENS",
        "ManufacturerModelName": "Prisma_fit",
        "Modality": "MR",
        "NumberOfAverages": 1.0,
        "NumberOfPhaseEncodingSteps": 104,
        "PercentPhaseFieldOfView": 100.0,
        "PercentSampling": 100.0,
        "PerformedProcedureStepStartTime": "094845.519000",
        "PhotometricInterpretation": "MONOCHROME2",
        "PixelBandwidth": 2290.0,
        "PixelRepresentation": 0,
        "PixelSpacing": [
          2.0,
          2.0
        ],
        "ProtocolName": "func_task-bourne7",
        "RepetitionTime": 1490.0,
        "Rows": 832,
        "SAR": 0.02858259632551,
        "SamplesPerPixel": 1,
        "ScanOptions": "FS",
        "ScanningSequence": "EP",
        "SequenceName": "epfid2d1_104",
        "SequenceVariant": [
          "SK",
          "SS"
        ],
        "SeriesDescription": "func_task-bourne7",
        "SeriesNumber": 10,
        "SeriesTime": "102030.981000",
        "SliceLocation": -58.21353417801,
        "SliceThickness": 2.0,
        "SmallestImagePixelValue": 0,
        "SoftwareVersions": "syngo MR E11",
        "SpacingBetweenSlices": 2.0000000097885,
        "SpecificCharacterSet": "ISO_IR 100",
        "StudyID": "1",
        "StudyTime": "094845.434000",
        "TransmitCoilName": "Body",
        "VariableFlipAngleFlag": "N",
        "WindowCenterWidthExplanation": "Algo1",
        "dBdt": 0.0
      },
      "slices": {}
    },
    "modality": "bold",
    "session_id": "006",
    "subject_id": "06",
    "task_id": "bourne07",
    "time": {
      "samples": {
        "AcquisitionNumber": [
          1,
          2,
          3,
          4,
          5,
          6,
          7,
          8,
          9,
          10,
          11,
          12,
          13,
          14,
          15,
          16,
          17,
          18,
          19,
          20,
          21,
          22,
          23,
          24,
          25,
          26,
          27,
          28,
          29,
          30,
          31,
          32,
          33,
          34,
          35,
          36,
          37,
          38,
          39,
          40,
          41,
          42,
          43,
          44,
          45,
          46,
          47,
          48,
          49,
          50,
          51,
          52,
          53,
          54,
          55,
          56,
          57,
          58,
          59,
          60,
          61,
          62,
          63,
          64,
          65,
          66,
          67,
          68,
          69,
          70,
          71,
          72,
          73,
          74,
          75,
          76,
          77,
          78,
          79,
          80,
          81,
          82,
          83,
          84,
          85,
          86,
          87,
          88,
          89,
          90,
          91,
          92,
          93,
          94,
          95,
          96,
          97,
          98,
          99,
          100,
          101,
          102,
          103,
          104,
          105,
          106,
          107,
          108,
          109,
          110,
          111,
          112,
          113,
          114,
          115,
          116,
          117,
          118,
          119,
          120,
          121,
          122,
          123,
          124,
          125,
          126,
          127,
          128,
          129,
          130,
          131,
          132,
          133,
          134,
          135,
          136,
          137,
          138,
          139,
          140,
          141,
          142,
          143,
          144,
          145,
          146,
          147,
          148,
          149,
          150,
          151,
          152,
          153,
          154,
          155,
          156,
          157,
          158,
          159,
          160,
          161,
          162,
          163,
          164,
          165,
          166,
          167,
          168,
          169,
          170,
          171,
          172,
          173,
          174,
          175,
          176,
          177,
          178,
          179,
          180,
          181,
          182,
          183,
          184,
          185,
          186,
          187,
          188,
          189,
          190,
          191,
          192,
          193,
          194,
          195,
          196,
          197,
          198,
          199,
          200,
          201,
          202,
          203,
          204,
          205,
          206,
          207,
          208,
          209,
          210,
          211,
          212,
          213,
          214,
          215,
          216,
          217,
          218,
          219,
          220,
          221,
          222,
          223,
          224,
          225,
          226,
          227,
          228,
          229,
          230,
          231,
          232,
          233,
          234,
          235,
          236,
          237,
          238,
          239,
          240,
          241,
          242,
          243,
          244,
          245,
          246,
          247,
          248,
          249,
          250,
          251,
          252,
          253,
          254,
          255,
          256,
          257,
          258,
          259,
          260,
          261,
          262,
          263,
          264,
          265,
          266,
          267,
          268,
          269,
          270,
          271,
          272,
          273,
          274,
          275,
          276,
          277,
          278,
          279,
          280,
          281,
          282,
          283,
          284,
          285,
          286,
          287,
          288,
          289,
          290,
          291,
          292,
          293,
          294,
          295,
          296,
          297,
          298,
          299,
          300,
          301,
          302,
          303,
          304,
          305,
          306,
          307,
          308,
          309,
          310,
          311,
          312,
          313,
          314,
          315,
          316,
          317,
          318,
          319,
          320,
          321,
          322,
          323,
          324,
          325,
          326,
          327,
          328,
          329,
          330,
          331,
          332,
          333,
          334,
          335,
          336,
          337,
          338,
          339,
          340,
          341,
          342,
          343,
          344,
          345,
          346,
          347,
          348,
          349,
          350,
          351,
          352,
          353,
          354,
          355,
          356,
          357,
          358,
          359,
          360,
          361,
          362,
          363,
          364,
          365,
          366,
          367,
          368,
          369,
          370,
          371,
          372,
          373,
          374,
          375,
          376,
          377,
          378,
          379,
          380,
          381,
          382,
          383,
          384,
          385,
          386,
          387,
          388,
          389,
          390,
          391,
          392,
          393,
          394,
          395,
          396,
          397,
          398,
          399,
          400,
          401,
          402,
          403,
          404,
          405
        ],
        "AcquisitionTime": [
          "101859.475000",
          "101900.965000",
          "101902.455000",
          "101903.945000",
          "101905.435000",
          "101906.925000",
          "101908.415000",
          "101909.905000",
          "101911.395000",
          "101912.885000",
          "101914.375000",
          "101915.865000",
          "101917.355000",
          "101918.845000",
          "101920.335000",
          "101921.825000",
          "101923.315000",
          "101924.805000",
          "101926.295000",
          "101927.785000",
          "101929.275000",
          "101930.765000",
          "101932.255000",
          "101933.745000",
          "101935.235000",
          "101936.725000",
          "101938.215000",
          "101939.705000",
          "101941.195000",
          "101942.685000",
          "101944.175000",
          "101945.665000",
          "101947.155000",
          "101948.645000",
          "101950.135000",
          "101951.625000",
          "101953.115000",
          "101954.605000",
          "101956.095000",
          "101957.585000",
          "101959.075000",
          "102000.565000",
          "102002.055000",
          "102003.545000",
          "102005.035000",
          "102006.525000",
          "102008.015000",
          "102009.505000",
          "102010.995000",
          "102012.485000",
          "102013.975000",
          "102015.465000",
          "102016.955000",
          "102018.445000",
          "102019.935000",
          "102021.425000",
          "102022.915000",
          "102024.405000",
          "102025.895000",
          "102027.385000",
          "102028.875000",
          "102030.365000",
          "102031.855000",
          "102033.345000",
          "102034.835000",
          "102036.325000",
          "102037.815000",
          "102039.305000",
          "102040.795000",
          "102042.285000",
          "102043.775000",
          "102045.265000",
          "102046.755000",
          "102048.245000",
          "102049.735000",
          "102051.225000",
          "102052.715000",
          "102054.205000",
          "102055.695000",
          "102057.185000",
          "102058.675000",
          "102100.165000",
          "102101.655000",
          "102103.145000",
          "102104.635000",
          "102106.125000",
          "102107.615000",
          "102109.105000",
          "102110.595000",
          "102112.085000",
          "102113.575000",
          "102115.065000",
          "102116.555000",
          "102118.045000",
          "102119.535000",
          "102121.025000",
          "102122.515000",
          "102124.005000",
          "102125.495000",
          "102126.985000",
          "102128.475000",
          "102129.965000",
          "102131.455000",
          "102132.945000",
          "102134.435000",
          "102135.925000",
          "102137.415000",
          "102138.905000",
          "102140.395000",
          "102141.885000",
          "102143.375000",
          "102144.865000",
          "102146.355000",
          "102147.845000",
          "102149.335000",
          "102150.825000",
          "102152.315000",
          "102153.805000",
          "102155.295000",
          "102156.785000",
          "102158.275000",
          "102159.765000",
          "102201.255000",
          "102202.745000",
          "102204.235000",
          "102205.725000",
          "102207.215000",
          "102208.705000",
          "102210.195000",
          "102211.685000",
          "102213.175000",
          "102214.665000",
          "102216.155000",
          "102217.645000",
          "102219.135000",
          "102220.625000",
          "102222.115000",
          "102223.605000",
          "102225.095000",
          "102226.585000",
          "102228.075000",
          "102229.565000",
          "102231.055000",
          "102232.545000",
          "102234.035000",
          "102235.525000",
          "102237.015000",
          "102238.505000",
          "102239.995000",
          "102241.485000",
          "102242.975000",
          "102244.465000",
          "102245.955000",
          "102247.445000",
          "102248.935000",
          "102250.425000",
          "102251.915000",
          "102253.405000",
          "102254.895000",
          "102256.385000",
          "102257.875000",
          "102259.365000",
          "102300.855000",
          "102302.345000",
          "102303.835000",
          "102305.325000",
          "102306.815000",
          "102308.305000",
          "102309.795000",
          "102311.285000",
          "102312.775000",
          "102314.265000",
          "102315.755000",
          "102317.245000",
          "102318.735000",
          "102320.225000",
          "102321.715000",
          "102323.205000",
          "102324.695000",
          "102326.185000",
          "102327.675000",
          "102329.165000",
          "102330.655000",
          "102332.145000",
          "102333.635000",
          "102335.125000",
          "102336.615000",
          "102338.105000",
          "102339.595000",
          "102341.085000",
          "102342.575000",
          "102344.065000",
          "102345.555000",
          "102347.045000",
          "102348.535000",
          "102350.025000",
          "102351.515000",
          "102353.005000",
          "102354.495000",
          "102355.985000",
          "102357.475000",
          "102358.965000",
          "102400.455000",
          "102401.945000",
          "102403.435000",
          "102404.925000",
          "102406.415000",
          "102407.905000",
          "102409.395000",
          "102410.885000",
          "102412.375000",
          "102413.865000",
          "102415.355000",
          "102416.845000",
          "102418.335000",
          "102419.825000",
          "102421.315000",
          "102422.805000",
          "102424.295000",
          "102425.785000",
          "102427.275000",
          "102428.765000",
          "102430.255000",
          "102431.745000",
          "102433.235000",
          "102434.725000",
          "102436.215000",
          "102437.705000",
          "102439.195000",
          "102440.685000",
          "102442.175000",
          "102443.665000",
          "102445.155000",
          "102446.645000",
          "102448.135000",
          "102449.625000",
          "102451.115000",
          "102452.605000",
          "102454.095000",
          "102455.585000",
          "102457.075000",
          "102458.565000",
          "102500.055000",
          "102501.545000",
          "102503.035000",
          "102504.525000",
          "102506.015000",
          "102507.505000",
          "102508.995000",
          "102510.485000",
          "102511.975000",
          "102513.465000",
          "102514.955000",
          "102516.445000",
          "102517.935000",
          "102519.425000",
          "102520.915000",
          "102522.405000",
          "102523.895000",
          "102525.385000",
          "102526.875000",
          "102528.365000",
          "102529.855000",
          "102531.345000",
          "102532.835000",
          "102534.325000",
          "102535.815000",
          "102537.305000",
          "102538.795000",
          "102540.285000",
          "102541.775000",
          "102543.265000",
          "102544.755000",
          "102546.245000",
          "102547.735000",
          "102549.225000",
          "102550.715000",
          "102552.205000",
          "102553.695000",
          "102555.185000",
          "102556.675000",
          "102558.165000",
          "102559.655000",
          "102601.145000",
          "102602.635000",
          "102604.125000",
          "102605.615000",
          "102607.105000",
          "102608.595000",
          "102610.085000",
          "102611.575000",
          "102613.065000",
          "102614.555000",
          "102616.045000",
          "102617.535000",
          "102619.025000",
          "102620.515000",
          "102622.005000",
          "102623.495000",
          "102624.985000",
          "102626.475000",
          "102627.965000",
          "102629.455000",
          "102630.945000",
          "102632.435000",
          "102633.925000",
          "102635.415000",
          "102636.905000",
          "102638.395000",
          "102639.885000",
          "102641.375000",
          "102642.865000",
          "102644.355000",
          "102645.845000",
          "102647.335000",
          "102648.825000",
          "102650.315000",
          "102651.805000",
          "102653.295000",
          "102654.785000",
          "102656.275000",
          "102657.765000",
          "102659.255000",
          "102700.745000",
          "102702.235000",
          "102703.725000",
          "102705.215000",
          "102706.705000",
          "102708.195000",
          "102709.685000",
          "102711.175000",
          "102712.665000",
          "102714.155000",
          "102715.645000",
          "102717.135000",
          "102718.625000",
          "102720.115000",
          "102721.605000",
          "102723.095000",
          "102724.585000",
          "102726.075000",
          "102727.565000",
          "102729.055000",
          "102730.545000",
          "102732.035000",
          "102733.525000",
          "102735.015000",
          "102736.505000",
          "102737.995000",
          "102739.485000",
          "102740.975000",
          "102742.465000",
          "102743.955000",
          "102745.445000",
          "102746.935000",
          "102748.425000",
          "102749.915000",
          "102751.405000",
          "102752.895000",
          "102754.385000",
          "102755.875000",
          "102757.365000",
          "102758.855000",
          "102800.345000",
          "102801.835000",
          "102803.325000",
          "102804.815000",
          "102806.305000",
          "102807.795000",
          "102809.285000",
          "102810.775000",
          "102812.265000",
          "102813.755000",
          "102815.245000",
          "102816.735000",
          "102818.225000",
          "102819.715000",
          "102821.205000",
          "102822.695000",
          "102824.185000",
          "102825.675000",
          "102827.165000",
          "102828.655000",
          "102830.145000",
          "102831.635000",
          "102833.125000",
          "102834.615000",
          "102836.105000",
          "102837.595000",
          "102839.085000",
          "102840.575000",
          "102842.065000",
          "102843.555000",
          "102845.045000",
          "102846.535000",
          "102848.025000",
          "102849.515000",
          "102851.005000",
          "102852.495000",
          "102853.985000",
          "102855.475000",
          "102856.965000",
          "102858.455000",
          "102859.945000",
          "102901.435000"
        ],
        "ContentTime": [
          "102030.983000",
          "102030.987000",
          "102030.990000",
          "102031.001000",
          "102031.004000",
          "102031.007000",
          "102031.010000",
          "102031.013000",
          "102031.016000",
          "102031.018000",
          "102031.021000",
          "102031.024000",
          "102031.027000",
          "102031.030000",
          "102031.033000",
          "102031.036000",
          "102031.039000",
          "102031.042000",
          "102031.045000",
          "102031.048000",
          "102031.050000",
          "102031.053000",
          "102031.056000",
          "102031.059000",
          "102031.062000",
          "102031.065000",
          "102031.068000",
          "102031.071000",
          "102031.074000",
          "102031.084000",
          "102031.088000",
          "102031.091000",
          "102031.094000",
          "102031.098000",
          "102031.101000",
          "102031.103000",
          "102031.106000",
          "102050.945000",
          "102050.948000",
          "102050.951000",
          "102050.954000",
          "102050.957000",
          "102050.960000",
          "102050.962000",
          "102050.965000",
          "102050.968000",
          "102050.971000",
          "102050.974000",
          "102050.981000",
          "102050.984000",
          "102050.987000",
          "102050.990000",
          "102050.993000",
          "102050.996000",
          "102051.000000",
          "102051.003000",
          "102051.006000",
          "102051.008000",
          "102110.945000",
          "102110.948000",
          "102110.951000",
          "102110.954000",
          "102110.957000",
          "102110.959000",
          "102110.962000",
          "102110.965000",
          "102110.968000",
          "102110.971000",
          "102110.974000",
          "102110.977000",
          "102110.987000",
          "102110.990000",
          "102110.993000",
          "102110.996000",
          "102111.000000",
          "102111.003000",
          "102111.005000",
          "102111.009000",
          "102130.945000",
          "102130.948000",
          "102130.951000",
          "102130.954000",
          "102130.957000",
          "102130.959000",
          "102130.962000",
          "102130.965000",
          "102130.968000",
          "102130.971000",
          "102130.974000",
          "102130.977000",
          "102130.980000",
          "102130.983000",
          "102130.985000",
          "102130.988000",
          "102130.991000",
          "102130.994000",
          "102130.997000",
          "102131.001000",
          "102210.946000",
          "102210.949000",
          "102210.952000",
          "102210.955000",
          "102210.958000",
          "102210.961000",
          "102210.964000",
          "102210.974000",
          "102210.977000",
          "102210.980000",
          "102210.983000",
          "102210.986000",
          "102210.989000",
          "102210.992000",
          "102210.995000",
          "102210.998000",
          "102211.002000",
          "102211.005000",
          "102211.021000",
          "102211.029000",
          "102211.032000",
          "102211.035000",
          "102211.038000",
          "102211.041000",
          "102211.044000",
          "102211.047000",
          "102211.050000",
          "102211.053000",
          "102211.056000",
          "102250.946000",
          "102250.949000",
          "102250.952000",
          "102250.955000",
          "102250.958000",
          "102250.961000",
          "102250.964000",
          "102250.967000",
          "102250.970000",
          "102250.972000",
          "102250.975000",
          "102250.978000",
          "102250.981000",
          "102250.984000",
          "102250.987000",
          "102250.990000",
          "102250.993000",
          "102250.996000",
          "102251.000000",
          "102251.002000",
          "102251.005000",
          "102251.008000",
          "102251.011000",
          "102251.014000",
          "102251.017000",
          "102251.020000",
          "102251.028000",
          "102330.945000",
          "102330.948000",
          "102330.951000",
          "102330.954000",
          "102330.957000",
          "102330.960000",
          "102330.963000",
          "102330.966000",
          "102330.969000",
          "102330.971000",
          "102330.974000",
          "102330.977000",
          "102330.980000",
          "102330.983000",
          "102330.986000",
          "102330.989000",
          "102330.992000",
          "102330.995000",
          "102330.998000",
          "102331.001000",
          "102331.004000",
          "102331.007000",
          "102331.010000",
          "102331.013000",
          "102331.016000",
          "102331.019000",
          "102331.022000",
          "102410.945000",
          "102410.948000",
          "102410.951000",
          "102410.954000",
          "102410.957000",
          "102410.960000",
          "102410.963000",
          "102410.965000",
          "102410.968000",
          "102410.971000",
          "102410.974000",
          "102410.977000",
          "102410.980000",
          "102410.983000",
          "102410.986000",
          "102410.989000",
          "102410.992000",
          "102410.995000",
          "102410.997000",
          "102411.001000",
          "102411.004000",
          "102411.007000",
          "102411.010000",
          "102411.013000",
          "102411.016000",
          "102411.019000",
          "102411.022000",
          "102450.946000",
          "102450.949000",
          "102450.952000",
          "102450.955000",
          "102450.958000",
          "102450.961000",
          "102450.964000",
          "102450.967000",
          "102450.970000",
          "102450.973000",
          "102450.976000",
          "102450.978000",
          "102450.981000",
          "102450.984000",
          "102450.987000",
          "102450.990000",
