{
  "aor": 0.0004604218362282878,
  "aqi": 0.011934394193548388,
  "bids_meta": {
    "AcquisitionMatrixPE": 104,
    "AcquisitionNumber": 1,
    "AcquisitionTime": "11:16:44.730000",
    "BandwidthPerPixelPhaseEncode": 17.17,
    "BaseResolution": 104,
    "BodyPartExamined": "BRAIN",
    "CogAtlasID": "trm_4c898da401420",
    "ConsistencyInfo": "N4_VE11C_LATEST_20160120",
    "ConversionSoftware": "dcm2niix",
    "ConversionSoftwareVersion": "v1.0.20171215 (OpenJPEG build) GCC7.3.0",
    "DerivedVendorReportedEchoSpacing": 0.000560011,
    "DeviceSerialNumber": "167006",
    "DwellTime": 2.1e-06,
    "EchoTime": 0.037,
    "EchoTrainLength": 104,
    "EffectiveEchoSpacing": 0.000560011,
    "FlipAngle": 52,
    "ImageComments": "Unaliased_MB4_PE3_LB",
    "ImageOrientationPatientDICOM": [
      0.999707,
      -0.0110666,
      -0.0215319,
      0.00279177,
      0.936169,
      -0.351539
    ],
    "ImageType": [
      "ORIGINAL",
      "PRIMARY",
      "M",
      "MB",
      "ND",
      "MOSAIC"
    ],
    "InPlanePhaseEncodingDirectionDICOM": "COL",
    "InstitutionAddress": "Chemin_Queen-Mary_4565_Montreal_District_CA_H3W_1W5",
    "InstitutionName": "IUGM",
    "InstitutionalDepartmentName": "Department",
    "MRAcquisitionType": "2D",
    "MagneticFieldStrength": 3,
    "Manufacturer": "Siemens",
    "ManufacturersModelName": "Prisma_fit",
    "Modality": "MR",
    "MultibandAccelerationFactor": 4,
    "PartialFourier": 1,
    "PatientPosition": "HFS",
    "PercentPhaseFOV": 100,
    "PhaseEncodingDirection": "j-",
    "PhaseEncodingSteps": 104,
    "PhaseResolution": 1,
    "PixelBandwidth": 2290,
    "ProcedureStepDescription": "video5_generic",
    "ProtocolName": "func_task-figures1",
    "PulseSequenceDetails": "%CustomerSeq%_cmrr_mbep2d_bold",
    "ReceiveCoilActiveElements": "HC1-7;NC1,2",
    "ReceiveCoilName": "HeadNeck_64",
    "ReconMatrixPE": 104,
    "RepetitionTime": 1.49,
    "SAR": 0.029615,
    "ScanOptions": "FS",
    "ScanningSequence": "EP",
    "SequenceName": "epfid2d1_104",
    "SequenceVariant": "SK_SS",
    "SeriesDescription": "func_task-figures1",
    "SeriesNumber": 24,
    "ShimSetting": [
      621,
      -7231,
      -8887,
      594,
      0,
      -215,
      -129,
      -13
    ],
    "SliceThickness": 2,
    "SliceTiming": [
      0,
      0.785,
      0.1,
      0.8825,
      0.1975,
      0.98,
      0.295,
      1.08,
      0.3925,
      1.1775,
      0.49,
      1.275,
      0.59,
      1.3725,
      0.6875,
      0,
      0.785,
      0.1,
      0.8825,
      0.1975,
      0.98,
      0.295,
      1.08,
      0.3925,
      1.1775,
      0.49,
      1.275,
      0.59,
      1.3725,
      0.6875,
      0,
      0.785,
      0.1,
      0.8825,
      0.1975,
      0.98,
      0.295,
      1.08,
      0.3925,
      1.1775,
      0.49,
      1.275,
      0.59,
      1.3725,
      0.6875,
      0,
      0.785,
      0.1,
      0.8825,
      0.1975,
      0.98,
      0.295,
      1.08,
      0.3925,
      1.1775,
      0.49,
      1.275,
      0.59,
      1.3725,
      0.6875
    ],
    "SoftwareVersions": "syngo_MR_E11",
    "SpacingBetweenSlices": 2,
    "StationName": "MRC35049",
    "TaskName": "figures01",
    "TotalReadoutTime": 0.0576811,
    "TxRefAmp": 222.941,
    "dataset": "<unset>",
    "dcmmeta_affine": [
      [
        -1.9994138479232788,
        0.005583545658737421,
        -0.0480957068502903,
        105.86429595947266
      ],
      [
        0.022133292630314827,
        1.8723382949829102,
        -0.7027513980865479,
        -70.24591064453125
      ],
      [
        -0.04306379333138466,
        0.7030776739120483,
        1.8718513250350952,
        -83.81588745117188
      ],
      [
        0.0,
        0.0,
        0.0,
        1.0
      ]
    ],
    "dcmmeta_reorient_transform": [
      [
        0.0,
        -1.0,
        0.0,
        103.0
      ],
      [
        1.0,
        0.0,
        0.0,
        0.0
      ],
      [
        0.0,
        0.0,
        1.0,
        0.0
      ],
      [
        0.0,
        0.0,
        0.0,
        1.0
      ]
    ],
    "dcmmeta_shape": [
      104,
      104,
      60,
      404
    ],
    "dcmmeta_slice_dim": 2,
    "dcmmeta_version": 0.6,
    "global": {
      "const": {
        "AcquisitionMatrix": [
          104,
          0,
          0,
          104
        ],
        "AngioFlag": "N",
        "BitsAllocated": 16,
        "BitsStored": 16,
        "BodyPartExamined": "BRAIN",
        "Columns": 832,
        "EchoNumbers": 1,
        "EchoTime": 37.0,
        "EchoTrainLength": 104,
        "FlipAngle": 52.0,
        "HighBit": 15,
        "ImageOrientationPatient": [
          0.99970691042948,
          -0.0110666465292,
          -0.0215318966686,
          0.00279177290123,
          0.93616913135794,
          -0.3515388506219
        ],
        "ImagePositionPatient": [
          -836.25844158903,
          -796.07953922807,
          260.19661955827
        ],
        "ImageType": [
          "ORIGINAL",
          "PRIMARY",
          "M",
          "MB",
          "ND",
          "MOSAIC"
        ],
        "ImagedNucleus": "1H",
        "ImagingFrequency": 123.259459,
        "InPlanePhaseEncodingDirection": "COL",
        "MRAcquisitionType": "2D",
        "MagneticFieldStrength": 3.0,
        "Manufacturer": "SIEMENS",
        "ManufacturerModelName": "Prisma_fit",
        "Modality": "MR",
        "NumberOfAverages": 1.0,
        "NumberOfPhaseEncodingSteps": 104,
        "PercentPhaseFieldOfView": 100.0,
        "PercentSampling": 100.0,
        "PerformedProcedureStepStartTime": "094845.519000",
        "PhotometricInterpretation": "MONOCHROME2",
        "PixelBandwidth": 2290.0,
        "PixelRepresentation": 0,
        "PixelSpacing": [
          2.0,
          2.0
        ],
        "ProtocolName": "func_task-figures1",
        "RepetitionTime": 1490.0,
        "Rows": 832,
        "SAR": 0.02961502927362,
        "SamplesPerPixel": 1,
        "ScanOptions": "FS",
        "ScanningSequence": "EP",
        "SequenceName": "epfid2d1_104",
        "SequenceVariant": [
          "SK",
          "SS"
        ],
        "SeriesDescription": "func_task-figures1",
        "SeriesNumber": 24,
        "SeriesTime": "111810.986000",
        "SliceLocation": -56.308541318292,
        "SliceThickness": 2.0,
        "SmallestImagePixelValue": 0,
        "SoftwareVersions": "syngo MR E11",
        "SpacingBetweenSlices": 2.0000000377143,
        "SpecificCharacterSet": "ISO_IR 100",
        "StudyID": "1",
        "StudyTime": "094845.434000",
        "TransmitCoilName": "Body",
        "VariableFlipAngleFlag": "N",
        "WindowCenterWidthExplanation": "Algo1",
        "dBdt": 0.0
      },
      "slices": {}
    },
    "modality": "bold",
    "run_id": 2,
    "session_id": "006",
    "subject_id": "06",
    "task_id": "figures01",
    "time": {
      "samples": {
        "AcquisitionNumber": [
          1,
          2,
          3,
          4,
          5,
          6,
          7,
          8,
          9,
          10,
          11,
          12,
          13,
          14,
          15,
          16,
          17,
          18,
          19,
          20,
          21,
          22,
          23,
          24,
          25,
          26,
          27,
          28,
          29,
          30,
          31,
          32,
          33,
          34,
          35,
          36,
          37,
          38,
          39,
          40,
          41,
          42,
          43,
          44,
          45,
          46,
          47,
          48,
          49,
          50,
          51,
          52,
          53,
          54,
          55,
          56,
          57,
          58,
          59,
          60,
          61,
          62,
          63,
          64,
          65,
          66,
          67,
          68,
          69,
          70,
          71,
          72,
          73,
          74,
          75,
          76,
          77,
          78,
          79,
          80,
          81,
          82,
          83,
          84,
          85,
          86,
          87,
          88,
          89,
          90,
          91,
          92,
          93,
          94,
          95,
          96,
          97,
          98,
          99,
          100,
          101,
          102,
          103,
          104,
          105,
          106,
          107,
          108,
          109,
          110,
          111,
          112,
          113,
          114,
          115,
          116,
          117,
          118,
          119,
          120,
          121,
          122,
          123,
          124,
          125,
          126,
          127,
          128,
          129,
          130,
          131,
          132,
          133,
          134,
          135,
          136,
          137,
          138,
          139,
          140,
          141,
          142,
          143,
          144,
          145,
          146,
          147,
          148,
          149,
          150,
          151,
          152,
          153,
          154,
          155,
          156,
          157,
          158,
          159,
          160,
          161,
          162,
          163,
          164,
          165,
          166,
          167,
          168,
          169,
          170,
          171,
          172,
          173,
          174,
          175,
          176,
          177,
          178,
          179,
          180,
          181,
          182,
          183,
          184,
          185,
          186,
          187,
          188,
          189,
          190,
          191,
          192,
          193,
          194,
          195,
          196,
          197,
          198,
          199,
          200,
          201,
          202,
          203,
          204,
          205,
          206,
          207,
          208,
          209,
          210,
          211,
          212,
          213,
          214,
          215,
          216,
          217,
          218,
          219,
          220,
          221,
          222,
          223,
          224,
          225,
          226,
          227,
          228,
          229,
          230,
          231,
          232,
          233,
          234,
          235,
          236,
          237,
          238,
          239,
          240,
          241,
          242,
          243,
          244,
          245,
          246,
          247,
          248,
          249,
          250,
          251,
          252,
          253,
          254,
          255,
          256,
          257,
          258,
          259,
          260,
          261,
          262,
          263,
          264,
          265,
          266,
          267,
          268,
          269,
          270,
          271,
          272,
          273,
          274,
          275,
          276,
          277,
          278,
          279,
          280,
          281,
          282,
          283,
          284,
          285,
          286,
          287,
          288,
          289,
          290,
          291,
          292,
          293,
          294,
          295,
          296,
          297,
          298,
          299,
          300,
          301,
          302,
          303,
          304,
          305,
          306,
          307,
          308,
          309,
          310,
          311,
          312,
          313,
          314,
          315,
          316,
          317,
          318,
          319,
          320,
          321,
          322,
          323,
          324,
          325,
          326,
          327,
          328,
          329,
          330,
          331,
          332,
          333,
          334,
          335,
          336,
          337,
          338,
          339,
          340,
          341,
          342,
          343,
          344,
          345,
          346,
          347,
          348,
          349,
          350,
          351,
          352,
          353,
          354,
          355,
          356,
          357,
          358,
          359,
          360,
          361,
          362,
          363,
          364,
          365,
          366,
          367,
          368,
          369,
          370,
          371,
          372,
          373,
          374,
          375,
          376,
          377,
          378,
          379,
          380,
          381,
          382,
          383,
          384,
          385,
          386,
          387,
          388,
          389,
          390,
          391,
          392,
          393,
          394,
          395,
          396,
          397,
          398,
          399,
          400,
          401,
          402,
          403,
          404
        ],
        "AcquisitionTime": [
          "111644.730000",
          "111646.220000",
          "111647.710000",
          "111649.200000",
          "111650.690000",
          "111652.180000",
          "111653.670000",
          "111655.160000",
          "111656.650000",
          "111658.140000",
          "111659.630000",
          "111701.120000",
          "111702.610000",
          "111704.100000",
          "111705.590000",
          "111707.080000",
          "111708.570000",
          "111710.060000",
          "111711.550000",
          "111713.040000",
          "111714.530000",
          "111716.020000",
          "111717.510000",
          "111719.000000",
          "111720.490000",
          "111721.980000",
          "111723.470000",
          "111724.960000",
          "111726.450000",
          "111727.940000",
          "111729.430000",
          "111730.920000",
          "111732.410000",
          "111733.900000",
          "111735.390000",
          "111736.880000",
          "111738.370000",
          "111739.860000",
          "111741.350000",
          "111742.840000",
          "111744.330000",
          "111745.820000",
          "111747.310000",
          "111748.800000",
          "111750.290000",
          "111751.780000",
          "111753.270000",
          "111754.760000",
          "111756.250000",
          "111757.740000",
          "111759.230000",
          "111800.720000",
          "111802.210000",
          "111803.700000",
          "111805.190000",
          "111806.680000",
          "111808.170000",
          "111809.660000",
          "111811.150000",
          "111812.640000",
          "111814.130000",
          "111815.620000",
          "111817.110000",
          "111818.600000",
          "111820.090000",
          "111821.580000",
          "111823.070000",
          "111824.560000",
          "111826.050000",
          "111827.540000",
          "111829.030000",
          "111830.520000",
          "111832.010000",
          "111833.500000",
          "111834.990000",
          "111836.480000",
          "111837.970000",
          "111839.460000",
          "111840.950000",
          "111842.440000",
          "111843.930000",
          "111845.420000",
          "111846.910000",
          "111848.400000",
          "111849.890000",
          "111851.380000",
          "111852.870000",
          "111854.360000",
          "111855.850000",
          "111857.340000",
          "111858.830000",
          "111900.320000",
          "111901.810000",
          "111903.300000",
          "111904.790000",
          "111906.280000",
          "111907.770000",
          "111909.260000",
          "111910.750000",
          "111912.240000",
          "111913.730000",
          "111915.220000",
          "111916.710000",
          "111918.200000",
          "111919.690000",
          "111921.180000",
          "111922.670000",
          "111924.160000",
          "111925.650000",
          "111927.140000",
          "111928.630000",
          "111930.120000",
          "111931.610000",
          "111933.100000",
          "111934.590000",
          "111936.080000",
          "111937.570000",
          "111939.060000",
          "111940.550000",
          "111942.040000",
          "111943.530000",
          "111945.020000",
          "111946.510000",
          "111948.000000",
          "111949.490000",
          "111950.980000",
          "111952.470000",
          "111953.960000",
          "111955.450000",
          "111956.940000",
          "111958.430000",
          "111959.920000",
          "112001.410000",
          "112002.900000",
          "112004.390000",
          "112005.880000",
          "112007.370000",
          "112008.860000",
          "112010.350000",
          "112011.840000",
          "112013.330000",
          "112014.820000",
          "112016.310000",
          "112017.800000",
          "112019.290000",
          "112020.780000",
          "112022.270000",
          "112023.760000",
          "112025.250000",
          "112026.740000",
          "112028.230000",
          "112029.720000",
          "112031.210000",
          "112032.700000",
          "112034.190000",
          "112035.680000",
          "112037.170000",
          "112038.660000",
          "112040.150000",
          "112041.640000",
          "112043.130000",
          "112044.620000",
          "112046.110000",
          "112047.600000",
          "112049.090000",
          "112050.580000",
          "112052.070000",
          "112053.560000",
          "112055.050000",
          "112056.540000",
          "112058.030000",
          "112059.520000",
          "112101.010000",
          "112102.500000",
          "112103.990000",
          "112105.480000",
          "112106.970000",
          "112108.460000",
          "112109.950000",
          "112111.440000",
          "112112.930000",
          "112114.420000",
          "112115.910000",
          "112117.400000",
          "112118.890000",
          "112120.380000",
          "112121.870000",
          "112123.360000",
          "112124.850000",
          "112126.340000",
          "112127.830000",
          "112129.320000",
          "112130.810000",
          "112132.300000",
          "112133.790000",
          "112135.280000",
          "112136.770000",
          "112138.260000",
          "112139.750000",
          "112141.240000",
          "112142.730000",
          "112144.220000",
          "112145.710000",
          "112147.200000",
          "112148.690000",
          "112150.180000",
          "112151.670000",
          "112153.160000",
          "112154.650000",
          "112156.140000",
          "112157.630000",
          "112159.120000",
          "112200.610000",
          "112202.100000",
          "112203.590000",
          "112205.080000",
          "112206.570000",
          "112208.060000",
          "112209.550000",
          "112211.040000",
          "112212.530000",
          "112214.020000",
          "112215.510000",
          "112217.000000",
          "112218.490000",
          "112219.980000",
          "112221.470000",
          "112222.960000",
          "112224.450000",
          "112225.940000",
          "112227.430000",
          "112228.920000",
          "112230.410000",
          "112231.900000",
          "112233.390000",
          "112234.880000",
          "112236.370000",
          "112237.860000",
          "112239.350000",
          "112240.840000",
          "112242.330000",
          "112243.820000",
          "112245.310000",
          "112246.800000",
          "112248.290000",
          "112249.780000",
          "112251.270000",
          "112252.760000",
          "112254.250000",
          "112255.740000",
          "112257.230000",
          "112258.720000",
          "112300.210000",
          "112301.700000",
          "112303.190000",
          "112304.680000",
          "112306.170000",
          "112307.660000",
          "112309.150000",
          "112310.640000",
          "112312.130000",
          "112313.620000",
          "112315.110000",
          "112316.600000",
          "112318.090000",
          "112319.580000",
          "112321.070000",
          "112322.560000",
          "112324.050000",
          "112325.540000",
          "112327.030000",
          "112328.520000",
          "112330.010000",
          "112331.500000",
          "112332.990000",
          "112334.480000",
          "112335.970000",
          "112337.460000",
          "112338.950000",
          "112340.440000",
          "112341.930000",
          "112343.420000",
          "112344.910000",
          "112346.400000",
          "112347.890000",
          "112349.380000",
          "112350.870000",
          "112352.360000",
          "112353.850000",
          "112355.340000",
          "112356.830000",
          "112358.320000",
          "112359.810000",
          "112401.300000",
          "112402.790000",
          "112404.280000",
          "112405.770000",
          "112407.260000",
          "112408.750000",
          "112410.240000",
          "112411.730000",
          "112413.220000",
          "112414.710000",
          "112416.200000",
          "112417.690000",
          "112419.180000",
          "112420.670000",
          "112422.160000",
          "112423.650000",
          "112425.140000",
          "112426.630000",
          "112428.120000",
          "112429.610000",
          "112431.100000",
          "112432.590000",
          "112434.080000",
          "112435.570000",
          "112437.060000",
          "112438.550000",
          "112440.040000",
          "112441.530000",
          "112443.020000",
          "112444.510000",
          "112446.000000",
          "112447.490000",
          "112448.980000",
          "112450.470000",
          "112451.960000",
          "112453.450000",
          "112454.940000",
          "112456.430000",
          "112457.920000",
          "112459.410000",
          "112500.900000",
          "112502.390000",
          "112503.880000",
          "112505.370000",
          "112506.860000",
          "112508.350000",
          "112509.840000",
          "112511.330000",
          "112512.820000",
          "112514.310000",
          "112515.800000",
          "112517.290000",
          "112518.780000",
          "112520.270000",
          "112521.760000",
          "112523.250000",
          "112524.740000",
          "112526.230000",
          "112527.720000",
          "112529.210000",
          "112530.700000",
          "112532.190000",
          "112533.680000",
          "112535.170000",
          "112536.660000",
          "112538.150000",
          "112539.640000",
          "112541.130000",
          "112542.620000",
          "112544.110000",
          "112545.600000",
          "112547.090000",
          "112548.580000",
          "112550.070000",
          "112551.560000",
          "112553.050000",
          "112554.540000",
          "112556.030000",
          "112557.520000",
          "112559.010000",
          "112600.500000",
          "112601.990000",
          "112603.480000",
          "112604.970000",
          "112606.460000",
          "112607.950000",
          "112609.440000",
          "112610.930000",
          "112612.420000",
          "112613.910000",
          "112615.400000",
          "112616.890000",
          "112618.380000",
          "112619.870000",
          "112621.360000",
          "112622.850000",
          "112624.340000",
          "112625.830000",
          "112627.320000",
          "112628.810000",
          "112630.300000",
          "112631.790000",
          "112633.280000",
          "112634.770000",
          "112636.260000",
          "112637.750000",
          "112639.240000",
          "112640.730000",
          "112642.220000",
          "112643.710000",
          "112645.200000"
        ],
        "ContentTime": [
          "111810.988000",
          "111810.992000",
          "111810.994000",
          "111811.003000",
          "111811.006000",
          "111811.009000",
          "111811.015000",
          "111811.018000",
          "111811.021000",
          "111811.024000",
          "111811.027000",
          "111811.030000",
          "111811.033000",
          "111811.036000",
          "111811.045000",
          "111811.048000",
          "111811.051000",
          "111811.059000",
          "111830.946000",
          "111830.949000",
          "111830.952000",
          "111830.955000",
          "111830.958000",
          "111830.961000",
          "111830.963000",
          "111830.966000",
          "111830.969000",
          "111830.972000",
          "111830.975000",
          "111830.978000",
          "111830.981000",
          "111830.983000",
          "111830.986000",
          "111830.989000",
          "111830.992000",
          "111830.995000",
          "111831.004000",
          "111831.007000",
          "111850.945000",
          "111850.948000",
          "111850.951000",
          "111850.954000",
          "111850.957000",
          "111850.959000",
          "111850.962000",
          "111850.965000",
          "111850.968000",
          "111850.971000",
          "111850.974000",
          "111850.977000",
          "111850.980000",
          "111850.983000",
          "111850.986000",
          "111850.988000",
          "111850.991000",
          "111850.994000",
          "111850.997000",
          "111851.001000",
          "111910.945000",
          "111910.948000",
          "111910.951000",
          "111910.954000",
          "111910.957000",
          "111910.959000",
          "111910.962000",
          "111910.965000",
          "111910.968000",
          "111910.971000",
          "111910.974000",
          "111910.977000",
          "111910.980000",
          "111910.983000",
          "111910.985000",
          "111910.988000",
          "111910.991000",
          "111910.994000",
          "111910.997000",
          "111911.013000",
          "111911.016000",
          "111930.945000",
          "111930.948000",
          "111930.951000",
          "111930.954000",
          "111930.957000",
          "111930.967000",
          "111930.970000",
          "111930.973000",
          "111930.976000",
          "111930.979000",
          "111930.981000",
          "111930.984000",
          "111930.987000",
          "111930.990000",
          "111930.993000",
          "111930.996000",
          "111931.000000",
          "111931.003000",
          "111931.006000",
          "111931.009000",
          "111950.946000",
          "111950.949000",
          "111950.952000",
          "111950.955000",
          "111950.958000",
          "111950.961000",
          "111950.963000",
          "111950.966000",
          "111950.969000",
          "111950.972000",
          "111950.975000",
          "111950.978000",
          "111950.981000",
          "111950.984000",
          "111950.986000",
          "111950.989000",
          "111950.992000",
          "111950.995000",
          "111950.998000",
          "111951.001000",
          "112030.946000",
          "112030.949000",
          "112030.952000",
          "112030.955000",
          "112030.958000",
          "112030.961000",
          "112030.963000",
          "112030.966000",
          "112030.969000",
          "112030.972000",
          "112030.975000",
          "112030.978000",
          "112030.981000",
          "112030.984000",
          "112030.987000",
          "112030.990000",
          "112030.993000",
          "112030.995000",
          "112030.998000",
          "112031.002000",
          "112031.005000",
          "112031.008000",
          "112031.011000",
          "112031.014000",
          "112031.017000",
          "112031.020000",
          "112031.023000",
          "112031.026000",
          "112031.029000",
          "112031.032000",
          "112031.034000",
          "112031.037000",
          "112110.945000",
          "112110.948000",
          "112110.951000",
          "112110.954000",
          "112110.957000",
          "112110.960000",
          "112110.963000",
          "112110.966000",
          "112110.968000",
          "112110.971000",
          "112110.974000",
          "112110.977000",
          "112110.980000",
          "112110.983000",
          "112110.986000",
          "112110.989000",
          "112110.992000",
          "112110.995000",
          "112110.998000",
          "112111.002000",
          "112111.005000",
          "112111.007000",
          "112111.010000",
          "112111.013000",
          "112111.016000",
          "112111.019000",
          "112111.022000",
          "112150.945000",
          "112150.948000",
          "112150.951000",
          "112150.954000",
          "112150.957000",
          "112150.960000",
          "112150.963000",
          "112150.966000",
          "112150.968000",
          "112150.971000",
          "112150.974000",
          "112150.977000",
          "112150.980000",
          "112150.983000",
          "112150.986000",
          "112150.989000",
          "112150.992000",
          "112150.995000",
          "112150.998000",
          "112151.002000",
          "112151.004000",
          "112151.007000",
          "112151.010000",
          "112151.013000",
          "112151.016000",
          "112151.019000",
          "112151.022000",
          "112230.946000",
          "112230.949000",
          "112230.952000",
          "112230.955000",
          "112230.958000",
          "112230.961000",
          "112230.964000",
          "112230.967000",
          "112230.969000",
          "112230.972000",
          "112230.975000",
          "112230.978000",
          "112230.981000",
          "112230.985000",
          "112230.988000",
          "112230.991000",
          "112230.994000",
          "112230.997000",
          "112231.001000",
          "112231.004000",
          "112231.007000",
