{
  "aor": 0.0007857248157248157,
  "aqi": 0.009035032137592137,
  "bids_meta": {
    "AcquisitionMatrixPE": 104,
    "AcquisitionNumber": 1,
    "AcquisitionTime": "11:27:34.187500",
    "BandwidthPerPixelPhaseEncode": 17.17,
    "BaseResolution": 104,
    "BodyPartExamined": "BRAIN",
    "CogAtlasID": "trm_4c898da401420",
    "ConsistencyInfo": "N4_VE11C_LATEST_20160120",
    "ConversionSoftware": "dcm2niix",
    "ConversionSoftwareVersion": "v1.0.20171215 (OpenJPEG build) GCC7.3.0",
    "DerivedVendorReportedEchoSpacing": 0.000560011,
    "DeviceSerialNumber": "167006",
    "DwellTime": 2.1e-06,
    "EchoTime": 0.037,
    "EchoTrainLength": 104,
    "EffectiveEchoSpacing": 0.000560011,
    "FlipAngle": 52,
    "ImageComments": "Unaliased_MB4_PE3_LB",
    "ImageOrientationPatientDICOM": [
      0.999707,
      -0.0110666,
      -0.0215319,
      0.00279177,
      0.936169,
      -0.351539
    ],
    "ImageType": [
      "ORIGINAL",
      "PRIMARY",
      "M",
      "MB",
      "ND",
      "MOSAIC"
    ],
    "InPlanePhaseEncodingDirectionDICOM": "COL",
    "InstitutionAddress": "Chemin_Queen-Mary_4565_Montreal_District_CA_H3W_1W5",
    "InstitutionName": "IUGM",
    "InstitutionalDepartmentName": "Department",
    "MRAcquisitionType": "2D",
    "MagneticFieldStrength": 3,
    "Manufacturer": "Siemens",
    "ManufacturersModelName": "Prisma_fit",
    "Modality": "MR",
    "MultibandAccelerationFactor": 4,
    "PartialFourier": 1,
    "PatientPosition": "HFS",
    "PercentPhaseFOV": 100,
    "PhaseEncodingDirection": "j-",
    "PhaseEncodingSteps": 104,
    "PhaseResolution": 1,
    "PixelBandwidth": 2290,
    "ProcedureStepDescription": "video5_generic",
    "ProtocolName": "func_task-figures2",
    "PulseSequenceDetails": "%CustomerSeq%_cmrr_mbep2d_bold",
    "ReceiveCoilActiveElements": "HC1-7;NC1,2",
    "ReceiveCoilName": "HeadNeck_64",
    "ReconMatrixPE": 104,
    "RepetitionTime": 1.49,
    "SAR": 0.0296147,
    "ScanOptions": "FS",
    "ScanningSequence": "EP",
    "SequenceName": "epfid2d1_104",
    "SequenceVariant": "SK_SS",
    "SeriesDescription": "func_task-figures2",
    "SeriesNumber": 26,
    "ShimSetting": [
      621,
      -7231,
      -8887,
      594,
      0,
      -215,
      -129,
      -13
    ],
    "SliceThickness": 2,
    "SliceTiming": [
      0,
      0.785,
      0.1,
      0.8825,
      0.1975,
      0.98,
      0.295,
      1.08,
      0.3925,
      1.1775,
      0.49,
      1.275,
      0.59,
      1.3725,
      0.6875,
      0,
      0.785,
      0.1,
      0.8825,
      0.1975,
      0.98,
      0.295,
      1.08,
      0.3925,
      1.1775,
      0.49,
      1.275,
      0.59,
      1.3725,
      0.6875,
      0,
      0.785,
      0.1,
      0.8825,
      0.1975,
      0.98,
      0.295,
      1.08,
      0.3925,
      1.1775,
      0.49,
      1.275,
      0.59,
      1.3725,
      0.6875,
      0,
      0.785,
      0.1,
      0.8825,
      0.1975,
      0.98,
      0.295,
      1.08,
      0.3925,
      1.1775,
      0.49,
      1.275,
      0.59,
      1.3725,
      0.6875
    ],
    "SoftwareVersions": "syngo_MR_E11",
    "SpacingBetweenSlices": 2,
    "StationName": "MRC35049",
    "TaskName": "figures02",
    "TotalReadoutTime": 0.0576811,
    "TxRefAmp": 222.941,
    "dataset": "<unset>",
    "dcmmeta_affine": [
      [
        -1.9994138479232788,
        0.005583545658737421,
        -0.0480957068502903,
        105.86429595947266
      ],
      [
        0.022133292630314827,
        1.8723382949829102,
        -0.7027513980865479,
        -70.24591064453125
      ],
      [
        -0.04306379333138466,
        0.7030776739120483,
        1.8718513250350952,
        -83.81588745117188
      ],
      [
        0.0,
        0.0,
        0.0,
        1.0
      ]
    ],
    "dcmmeta_reorient_transform": [
      [
        0.0,
        -1.0,
        0.0,
        103.0
      ],
      [
        1.0,
        0.0,
        0.0,
        0.0
      ],
      [
        0.0,
        0.0,
        1.0,
        0.0
      ],
      [
        0.0,
        0.0,
        0.0,
        1.0
      ]
    ],
    "dcmmeta_shape": [
      104,
      104,
      60,
      409
    ],
    "dcmmeta_slice_dim": 2,
    "dcmmeta_version": 0.6,
    "global": {
      "const": {
        "AcquisitionMatrix": [
          104,
          0,
          0,
          104
        ],
        "AngioFlag": "N",
        "BitsAllocated": 16,
        "BitsStored": 16,
        "BodyPartExamined": "BRAIN",
        "Columns": 832,
        "EchoNumbers": 1,
        "EchoTime": 37.0,
        "EchoTrainLength": 104,
        "FlipAngle": 52.0,
        "HighBit": 15,
        "ImageOrientationPatient": [
          0.99970691042948,
          -0.0110666465292,
          -0.0215318966686,
          0.00279177290123,
          0.93616913135794,
          -0.3515388506219
        ],
        "ImagePositionPatient": [
          -836.25844158903,
          -796.07953922807,
          260.19661955827
        ],
        "ImageType": [
          "ORIGINAL",
          "PRIMARY",
          "M",
          "MB",
          "ND",
          "MOSAIC"
        ],
        "ImagedNucleus": "1H",
        "ImagingFrequency": 123.259472,
        "InPlanePhaseEncodingDirection": "COL",
        "MRAcquisitionType": "2D",
        "MagneticFieldStrength": 3.0,
        "Manufacturer": "SIEMENS",
        "ManufacturerModelName": "Prisma_fit",
        "Modality": "MR",
        "NumberOfAverages": 1.0,
        "NumberOfPhaseEncodingSteps": 104,
        "PercentPhaseFieldOfView": 100.0,
        "PercentSampling": 100.0,
        "PerformedProcedureStepStartTime": "094845.519000",
        "PhotometricInterpretation": "MONOCHROME2",
        "PixelBandwidth": 2290.0,
        "PixelRepresentation": 0,
        "PixelSpacing": [
          2.0,
          2.0
        ],
        "ProtocolName": "func_task-figures2",
        "RepetitionTime": 1490.0,
        "Rows": 832,
        "SAR": 0.02961468258756,
        "SamplesPerPixel": 1,
        "ScanOptions": "FS",
        "ScanningSequence": "EP",
        "SequenceName": "epfid2d1_104",
        "SequenceVariant": [
          "SK",
          "SS"
        ],
        "SeriesDescription": "func_task-figures2",
        "SeriesNumber": 26,
        "SeriesTime": "112830.910000",
        "SliceLocation": -56.308541318292,
        "SliceThickness": 2.0,
        "SmallestImagePixelValue": 0,
        "SoftwareVersions": "syngo MR E11",
        "SpacingBetweenSlices": 2.0000000377143,
        "SpecificCharacterSet": "ISO_IR 100",
        "StudyID": "1",
        "StudyTime": "094845.434000",
        "TransmitCoilName": "Body",
        "VariableFlipAngleFlag": "N",
        "WindowCenterWidthExplanation": "Algo1",
        "dBdt": 0.0
      },
      "slices": {}
    },
    "modality": "bold",
    "run_id": 2,
    "session_id": "006",
    "subject_id": "06",
    "task_id": "figures02",
    "time": {
      "samples": {
        "AcquisitionNumber": [
          1,
          2,
          3,
          4,
          5,
          6,
          7,
          8,
          9,
          10,
          11,
          12,
          13,
          14,
          15,
          16,
          17,
          18,
          19,
          20,
          21,
          22,
          23,
          24,
          25,
          26,
          27,
          28,
          29,
          30,
          31,
          32,
          33,
          34,
          35,
          36,
          37,
          38,
          39,
          40,
          41,
          42,
          43,
          44,
          45,
          46,
          47,
          48,
          49,
          50,
          51,
          52,
          53,
          54,
          55,
          56,
          57,
          58,
          59,
          60,
          61,
          62,
          63,
          64,
          65,
          66,
          67,
          68,
          69,
          70,
          71,
          72,
          73,
          74,
          75,
          76,
          77,
          78,
          79,
          80,
          81,
          82,
          83,
          84,
          85,
          86,
          87,
          88,
          89,
          90,
          91,
          92,
          93,
          94,
          95,
          96,
          97,
          98,
          99,
          100,
          101,
          102,
          103,
          104,
          105,
          106,
          107,
          108,
          109,
          110,
          111,
          112,
          113,
          114,
          115,
          116,
          117,
          118,
          119,
          120,
          121,
          122,
          123,
          124,
          125,
          126,
          127,
          128,
          129,
          130,
          131,
          132,
          133,
          134,
          135,
          136,
          137,
          138,
          139,
          140,
          141,
          142,
          143,
          144,
          145,
          146,
          147,
          148,
          149,
          150,
          151,
          152,
          153,
          154,
          155,
          156,
          157,
          158,
          159,
          160,
          161,
          162,
          163,
          164,
          165,
          166,
          167,
          168,
          169,
          170,
          171,
          172,
          173,
          174,
          175,
          176,
          177,
          178,
          179,
          180,
          181,
          182,
          183,
          184,
          185,
          186,
          187,
          188,
          189,
          190,
          191,
          192,
          193,
          194,
          195,
          196,
          197,
          198,
          199,
          200,
          201,
          202,
          203,
          204,
          205,
          206,
          207,
          208,
          209,
          210,
          211,
          212,
          213,
          214,
          215,
          216,
          217,
          218,
          219,
          220,
          221,
          222,
          223,
          224,
          225,
          226,
          227,
          228,
          229,
          230,
          231,
          232,
          233,
          234,
          235,
          236,
          237,
          238,
          239,
          240,
          241,
          242,
          243,
          244,
          245,
          246,
          247,
          248,
          249,
          250,
          251,
          252,
          253,
          254,
          255,
          256,
          257,
          258,
          259,
          260,
          261,
          262,
          263,
          264,
          265,
          266,
          267,
          268,
          269,
          270,
          271,
          272,
          273,
          274,
          275,
          276,
          277,
          278,
          279,
          280,
          281,
          282,
          283,
          284,
          285,
          286,
          287,
          288,
          289,
          290,
          291,
          292,
          293,
          294,
          295,
          296,
          297,
          298,
          299,
          300,
          301,
          302,
          303,
          304,
          305,
          306,
          307,
          308,
          309,
          310,
          311,
          312,
          313,
          314,
          315,
          316,
          317,
          318,
          319,
          320,
          321,
          322,
          323,
          324,
          325,
          326,
          327,
          328,
          329,
          330,
          331,
          332,
          333,
          334,
          335,
          336,
          337,
          338,
          339,
          340,
          341,
          342,
          343,
          344,
          345,
          346,
          347,
          348,
          349,
          350,
          351,
          352,
          353,
          354,
          355,
          356,
          357,
          358,
          359,
          360,
          361,
          362,
          363,
          364,
          365,
          366,
          367,
          368,
          369,
          370,
          371,
          372,
          373,
          374,
          375,
          376,
          377,
          378,
          379,
          380,
          381,
          382,
          383,
          384,
          385,
          386,
          387,
          388,
          389,
          390,
          391,
          392,
          393,
          394,
          395,
          396,
          397,
          398,
          399,
          400,
          401,
          402,
          403,
          404,
          405,
          406,
          407,
          408,
          409
        ],
        "AcquisitionTime": [
          "112734.187500",
          "112735.677500",
          "112737.167500",
          "112738.657500",
          "112740.147500",
          "112741.637500",
          "112743.127500",
          "112744.617500",
          "112746.107500",
          "112747.597500",
          "112749.087500",
          "112750.577500",
          "112752.067500",
          "112753.557500",
          "112755.047500",
          "112756.537500",
          "112758.027500",
          "112759.517500",
          "112801.007500",
          "112802.497500",
          "112803.987500",
          "112805.477500",
          "112806.967500",
          "112808.457500",
          "112809.947500",
          "112811.437500",
          "112812.927500",
          "112814.417500",
          "112815.907500",
          "112817.397500",
          "112818.887500",
          "112820.377500",
          "112821.867500",
          "112823.357500",
          "112824.847500",
          "112826.337500",
          "112827.827500",
          "112829.317500",
          "112830.807500",
          "112832.297500",
          "112833.787500",
          "112835.277500",
          "112836.767500",
          "112838.257500",
          "112839.747500",
          "112841.237500",
          "112842.727500",
          "112844.217500",
          "112845.707500",
          "112847.197500",
          "112848.687500",
          "112850.177500",
          "112851.667500",
          "112853.157500",
          "112854.647500",
          "112856.137500",
          "112857.627500",
          "112859.117500",
          "112900.607500",
          "112902.097500",
          "112903.587500",
          "112905.077500",
          "112906.567500",
          "112908.057500",
          "112909.547500",
          "112911.037500",
          "112912.527500",
          "112914.017500",
          "112915.507500",
          "112916.997500",
          "112918.487500",
          "112919.977500",
          "112921.467500",
          "112922.957500",
          "112924.447500",
          "112925.937500",
          "112927.427500",
          "112928.917500",
          "112930.407500",
          "112931.897500",
          "112933.387500",
          "112934.877500",
          "112936.367500",
          "112937.857500",
          "112939.347500",
          "112940.837500",
          "112942.327500",
          "112943.817500",
          "112945.307500",
          "112946.797500",
          "112948.287500",
          "112949.777500",
          "112951.267500",
          "112952.757500",
          "112954.247500",
          "112955.737500",
          "112957.227500",
          "112958.717500",
          "113000.207500",
          "113001.697500",
          "113003.187500",
          "113004.677500",
          "113006.167500",
          "113007.657500",
          "113009.147500",
          "113010.637500",
          "113012.127500",
          "113013.617500",
          "113015.107500",
          "113016.597500",
          "113018.087500",
          "113019.577500",
          "113021.067500",
          "113022.557500",
          "113024.047500",
          "113025.537500",
          "113027.027500",
          "113028.517500",
          "113030.007500",
          "113031.497500",
          "113032.987500",
          "113034.477500",
          "113035.967500",
          "113037.457500",
          "113038.947500",
          "113040.437500",
          "113041.927500",
          "113043.417500",
          "113044.907500",
          "113046.397500",
          "113047.887500",
          "113049.377500",
          "113050.867500",
          "113052.357500",
          "113053.847500",
          "113055.337500",
          "113056.827500",
          "113058.317500",
          "113059.807500",
          "113101.297500",
          "113102.787500",
          "113104.277500",
          "113105.767500",
          "113107.257500",
          "113108.747500",
          "113110.237500",
          "113111.727500",
          "113113.217500",
          "113114.707500",
          "113116.197500",
          "113117.687500",
          "113119.177500",
          "113120.667500",
          "113122.157500",
          "113123.647500",
          "113125.137500",
          "113126.627500",
          "113128.117500",
          "113129.607500",
          "113131.097500",
          "113132.587500",
          "113134.077500",
          "113135.567500",
          "113137.057500",
          "113138.547500",
          "113140.037500",
          "113141.527500",
          "113143.017500",
          "113144.507500",
          "113145.997500",
          "113147.487500",
          "113148.977500",
          "113150.467500",
          "113151.957500",
          "113153.447500",
          "113154.937500",
          "113156.427500",
          "113157.917500",
          "113159.407500",
          "113200.897500",
          "113202.387500",
          "113203.877500",
          "113205.367500",
          "113206.857500",
          "113208.347500",
          "113209.837500",
          "113211.327500",
          "113212.817500",
          "113214.307500",
          "113215.797500",
          "113217.287500",
          "113218.777500",
          "113220.267500",
          "113221.757500",
          "113223.247500",
          "113224.737500",
          "113226.227500",
          "113227.717500",
          "113229.207500",
          "113230.697500",
          "113232.187500",
          "113233.677500",
          "113235.167500",
          "113236.657500",
          "113238.147500",
          "113239.637500",
          "113241.127500",
          "113242.617500",
          "113244.107500",
          "113245.597500",
          "113247.087500",
          "113248.577500",
          "113250.067500",
          "113251.557500",
          "113253.047500",
          "113254.537500",
          "113256.027500",
          "113257.517500",
          "113259.007500",
          "113300.497500",
          "113301.987500",
          "113303.477500",
          "113304.967500",
          "113306.457500",
          "113307.947500",
          "113309.437500",
          "113310.927500",
          "113312.417500",
          "113313.907500",
          "113315.397500",
          "113316.887500",
          "113318.377500",
          "113319.867500",
          "113321.357500",
          "113322.847500",
          "113324.337500",
          "113325.827500",
          "113327.317500",
          "113328.807500",
          "113330.297500",
          "113331.787500",
          "113333.277500",
          "113334.767500",
          "113336.257500",
          "113337.747500",
          "113339.237500",
          "113340.727500",
          "113342.217500",
          "113343.707500",
          "113345.197500",
          "113346.687500",
          "113348.177500",
          "113349.667500",
          "113351.157500",
          "113352.647500",
          "113354.137500",
          "113355.627500",
          "113357.117500",
          "113358.607500",
          "113400.097500",
          "113401.587500",
          "113403.077500",
          "113404.567500",
          "113406.057500",
          "113407.547500",
          "113409.037500",
          "113410.527500",
          "113412.017500",
          "113413.507500",
          "113414.997500",
          "113416.487500",
          "113417.977500",
          "113419.467500",
          "113420.957500",
          "113422.447500",
          "113423.937500",
          "113425.427500",
          "113426.917500",
          "113428.407500",
          "113429.897500",
          "113431.387500",
          "113432.877500",
          "113434.367500",
          "113435.857500",
          "113437.347500",
          "113438.837500",
          "113440.327500",
          "113441.817500",
          "113443.307500",
          "113444.797500",
          "113446.287500",
          "113447.777500",
          "113449.267500",
          "113450.757500",
          "113452.247500",
          "113453.737500",
          "113455.227500",
          "113456.717500",
          "113458.207500",
          "113459.697500",
          "113501.187500",
          "113502.677500",
          "113504.167500",
          "113505.657500",
          "113507.147500",
          "113508.637500",
          "113510.127500",
          "113511.617500",
          "113513.107500",
          "113514.597500",
          "113516.087500",
          "113517.577500",
          "113519.067500",
          "113520.557500",
          "113522.047500",
          "113523.537500",
          "113525.027500",
          "113526.517500",
          "113528.007500",
          "113529.497500",
          "113530.987500",
          "113532.477500",
          "113533.967500",
          "113535.457500",
          "113536.947500",
          "113538.437500",
          "113539.927500",
          "113541.417500",
          "113542.907500",
          "113544.397500",
          "113545.887500",
          "113547.377500",
          "113548.867500",
          "113550.357500",
          "113551.847500",
          "113553.337500",
          "113554.827500",
          "113556.317500",
          "113557.807500",
          "113559.297500",
          "113600.787500",
          "113602.277500",
          "113603.767500",
          "113605.257500",
          "113606.747500",
          "113608.237500",
          "113609.727500",
          "113611.217500",
          "113612.707500",
          "113614.197500",
          "113615.687500",
          "113617.177500",
          "113618.667500",
          "113620.157500",
          "113621.647500",
          "113623.137500",
          "113624.627500",
          "113626.117500",
          "113627.607500",
          "113629.097500",
          "113630.587500",
          "113632.077500",
          "113633.567500",
          "113635.057500",
          "113636.547500",
          "113638.037500",
          "113639.527500",
          "113641.017500",
          "113642.507500",
          "113643.997500",
          "113645.487500",
          "113646.977500",
          "113648.467500",
          "113649.957500",
          "113651.447500",
          "113652.937500",
          "113654.427500",
          "113655.917500",
          "113657.407500",
          "113658.897500",
          "113700.387500",
          "113701.877500",
          "113703.367500",
          "113704.857500",
          "113706.347500",
          "113707.837500",
          "113709.327500",
          "113710.817500",
          "113712.307500",
          "113713.797500",
          "113715.287500",
          "113716.777500",
          "113718.267500",
          "113719.757500",
          "113721.247500",
          "113722.737500",
          "113724.227500",
          "113725.717500",
          "113727.207500",
          "113728.697500",
          "113730.187500",
          "113731.677500",
          "113733.167500",
          "113734.657500",
          "113736.147500",
          "113737.637500",
          "113739.127500",
          "113740.617500",
          "113742.107500"
        ],
        "ContentTime": [
          "112830.912000",
          "112830.916000",
          "112850.876000",
          "112850.892000",
          "112850.896000",
          "112850.899000",
          "112850.902000",
          "112850.905000",
          "112850.908000",
          "112850.911000",
          "112850.914000",
          "112850.917000",
          "112850.926000",
          "112850.929000",
          "112850.932000",
          "112850.935000",
          "112850.943000",
          "112850.945000",
          "112850.948000",
          "112850.951000",
          "112850.954000",
          "112850.957000",
          "112910.877000",
          "112910.880000",
          "112910.883000",
          "112910.886000",
          "112910.895000",
          "112910.898000",
          "112910.901000",
          "112910.904000",
          "112910.907000",
          "112910.910000",
          "112910.913000",
          "112910.916000",
          "112910.919000",
          "112910.922000",
          "112910.924000",
          "112910.930000",
          "112910.933000",
          "112910.936000",
          "112910.938000",
          "112910.941000",
          "112910.944000",
          "112930.877000",
          "112930.882000",
          "112930.885000",
          "112930.888000",
          "112930.891000",
          "112930.894000",
          "112930.896000",
          "112930.899000",
          "112930.911000",
          "112930.914000",
          "112930.917000",
          "112930.920000",
          "112930.923000",
          "112930.926000",
          "112930.929000",
          "112930.937000",
          "112930.940000",
          "112930.942000",
          "112930.945000",
          "112930.948000",
          "112950.877000",
          "112950.880000",
          "112950.883000",
          "112950.886000",
          "112950.889000",
          "112950.892000",
          "112950.894000",
          "112950.905000",
          "112950.908000",
          "112950.911000",
          "112950.914000",
          "112950.917000",
          "112950.920000",
          "112950.923000",
          "112950.926000",
          "112950.929000",
          "112950.932000",
          "112950.935000",
          "112950.938000",
          "112950.941000",
          "113010.877000",
          "113010.880000",
          "113010.883000",
          "113010.886000",
          "113010.889000",
          "113010.892000",
          "113010.895000",
          "113010.898000",
          "113010.901000",
          "113010.904000",
          "113010.906000",
          "113010.910000",
          "113010.912000",
          "113010.915000",
          "113010.918000",
          "113010.921000",
          "113010.924000",
          "113010.927000",
          "113010.930000",
          "113010.933000",
          "113050.876000",
          "113050.879000",
          "113050.882000",
          "113050.885000",
          "113050.888000",
          "113050.891000",
          "113050.894000",
          "113050.897000",
          "113050.909000",
          "113050.912000",
          "113050.915000",
          "113050.918000",
          "113050.921000",
          "113050.924000",
          "113050.927000",
          "113050.930000",
          "113050.933000",
          "113050.935000",
          "113050.938000",
          "113050.941000",
          "113050.944000",
          "113050.947000",
          "113050.950000",
          "113050.956000",
          "113050.959000",
          "113050.962000",
          "113050.965000",
          "113050.968000",
          "113130.877000",
          "113130.880000",
          "113130.883000",
          "113130.886000",
          "113130.889000",
          "113130.892000",
          "113130.895000",
          "113130.897000",
          "113130.900000",
          "113130.903000",
          "113130.906000",
          "113130.909000",
          "113130.912000",
          "113130.915000",
          "113130.918000",
          "113130.921000",
          "113130.924000",
          "113130.927000",
          "113130.930000",
          "113130.932000",
          "113130.935000",
          "113130.938000",
          "113130.941000",
          "113130.944000",
          "113130.947000",
          "113130.950000",
          "113130.953000",
          "113210.877000",
          "113210.880000",
          "113210.883000",
          "113210.886000",
          "113210.889000",
          "113210.892000",
          "113210.895000",
          "113210.897000",
          "113210.900000",
          "113210.903000",
          "113210.906000",
          "113210.909000",
          "113210.912000",
          "113210.915000",
          "113210.918000",
          "113210.921000",
          "113210.924000",
          "113210.927000",
          "113210.930000",
          "113210.933000",
          "113210.936000",
          "113210.938000",
          "113210.941000",
          "113210.944000",
          "113210.947000",
          "113210.950000",
          "113210.953000",
          "113250.876000",
          "113250.879000",
          "113250.882000",
          "113250.885000",
          "113250.888000",
          "113250.891000",
          "113250.894000",
          "113250.897000",
          "113250.900000",
          "113250.903000",
          "113250.906000",
          "113250.909000",
          "113250.911000",
          "113250.914000",
          "113250.917000",
          "113250.920000",
          "113250.923000",
          "113250.926000",
          "113250.929000",
          "113250.932000",
          "113250.935000",
          "113250.938000",
          "113250.949000",
          "113250.952000",
          "113250.955000",
          "113250.958000",
          "113250.961000",
          "113330.876000",
          "113330.879000",
          "113330.882000",
          "113330.885000",
          "113330.888000",
          "113330.891000",
