{
  "aor": 0.0023452109181141437,
  "aqi": 0.007521144714640198,
  "bids_meta": {
    "AcquisitionMatrixPE": 104,
    "AcquisitionNumber": 1,
    "AcquisitionTime": "10:29:33.110000",
    "BandwidthPerPixelPhaseEncode": 17.17,
    "BaseResolution": 104,
    "BodyPartExamined": "BRAIN",
    "CogAtlasID": "trm_4c898da401420",
    "ConsistencyInfo": "N4_VE11C_LATEST_20160120",
    "ConversionSoftware": "dcm2niix",
    "ConversionSoftwareVersion": "v1.0.20171215 (OpenJPEG build) GCC7.3.0",
    "DerivedVendorReportedEchoSpacing": 0.000560011,
    "DeviceSerialNumber": "167006",
    "DwellTime": 2.1e-06,
    "EchoTime": 0.037,
    "EchoTrainLength": 104,
    "EffectiveEchoSpacing": 0.000560011,
    "FlipAngle": 52,
    "ImageComments": "Unaliased_MB4_PE3_LB",
    "ImageOrientationPatientDICOM": [
      0.998419,
      -0.0558917,
      -0.00596252,
      0.0484815,
      0.909979,
      -0.411811
    ],
    "ImageType": [
      "ORIGINAL",
      "PRIMARY",
      "M",
      "MB",
      "ND",
      "MOSAIC"
    ],
    "InPlanePhaseEncodingDirectionDICOM": "COL",
    "InstitutionAddress": "Chemin_Queen-Mary_4565_Montreal_District_CA_H3W_1W5",
    "InstitutionName": "IUGM",
    "InstitutionalDepartmentName": "Department",
    "MRAcquisitionType": "2D",
    "MagneticFieldStrength": 3,
    "Manufacturer": "Siemens",
    "ManufacturersModelName": "Prisma_fit",
    "Modality": "MR",
    "MultibandAccelerationFactor": 4,
    "PartialFourier": 1,
    "PatientPosition": "HFS",
    "PercentPhaseFOV": 100,
    "PhaseEncodingDirection": "j",
    "PhaseEncodingSteps": 104,
    "PhaseResolution": 1,
    "PixelBandwidth": 2290,
    "ProcedureStepDescription": "video5_generic",
    "ProtocolName": "func_task-bourne8",
    "PulseSequenceDetails": "%CustomerSeq%_cmrr_mbep2d_bold",
    "ReceiveCoilActiveElements": "HC1-7;NC1,2",
    "ReceiveCoilName": "HeadNeck_64",
    "ReconMatrixPE": 104,
    "RepetitionTime": 1.49,
    "SAR": 0.0285826,
    "ScanOptions": "FS",
    "ScanningSequence": "EP",
    "SequenceName": "epfid2d1_104",
    "SequenceVariant": "SK_SS",
    "SeriesDescription": "func_task-bourne8",
    "SeriesNumber": 12,
    "ShimSetting": [
      633,
      -7239,
      -8903,
      560,
      31,
      -274,
      -131,
      -13
    ],
    "SliceThickness": 2,
    "SliceTiming": [
      0,
      0.7825,
      0.0975,
      0.88,
      0.195,
      0.9775,
      0.2925,
      1.0775,
      0.39,
      1.175,
      0.4875,
      1.2725,
      0.5875,
      1.37,
      0.685,
      0,
      0.7825,
      0.0975,
      0.88,
      0.195,
      0.9775,
      0.2925,
      1.0775,
      0.39,
      1.175,
      0.4875,
      1.2725,
      0.5875,
      1.37,
      0.685,
      0,
      0.7825,
      0.0975,
      0.88,
      0.195,
      0.9775,
      0.2925,
      1.0775,
      0.39,
      1.175,
      0.4875,
      1.2725,
      0.5875,
      1.37,
      0.685,
      0,
      0.7825,
      0.0975,
      0.88,
      0.195,
      0.9775,
      0.2925,
      1.0775,
      0.39,
      1.175,
      0.4875,
      1.2725,
      0.5875,
      1.37,
      0.685
    ],
    "SoftwareVersions": "syngo_MR_E11",
    "SpacingBetweenSlices": 2,
    "StationName": "MRC35049",
    "TaskName": "bourne08",
    "TotalReadoutTime": 0.0576811,
    "TxRefAmp": 222.463,
    "dataset": "<unset>",
    "dcmmeta_affine": [
      [
        -1.996838092803955,
        0.09696297347545624,
        -0.056885186582803726,
        98.0257568359375
      ],
      [
        0.11178342998027802,
        1.8199573755264282,
        -0.8217417001724243,
        -73.731689453125
      ],
      [
        -0.011925047263503075,
        0.8236219882965088,
        1.8224995136260986,
        -94.06820678710938
      ],
      [
        0.0,
        0.0,
        0.0,
        1.0
      ]
    ],
    "dcmmeta_reorient_transform": [
      [
        0.0,
        -1.0,
        0.0,
        103.0
      ],
      [
        1.0,
        0.0,
        0.0,
        0.0
      ],
      [
        0.0,
        0.0,
        1.0,
        0.0
      ],
      [
        0.0,
        0.0,
        0.0,
        1.0
      ]
    ],
    "dcmmeta_shape": [
      104,
      104,
      60,
      405
    ],
    "dcmmeta_slice_dim": 2,
    "dcmmeta_version": 0.6,
    "global": {
      "const": {
        "AcquisitionMatrix": [
          104,
          0,
          0,
          104
        ],
        "AngioFlag": "N",
        "BitsAllocated": 16,
        "BitsStored": 16,
        "BodyPartExamined": "BRAIN",
        "Columns": 832,
        "EchoNumbers": 1,
        "EchoTime": 37.0,
        "EchoTrainLength": 104,
        "FlipAngle": 52.0,
        "HighBit": 15,
        "ImageOrientationPatient": [
          0.99841903244102,
          -0.0558917164741,
          -0.0059625237211,
          0.04848148701553,
          0.90997871153973,
          -0.4118109881502
        ],
        "ImagePositionPatient": [
          -870.15652292977,
          -735.49925608483,
          294.90397575635
        ],
        "ImageType": [
          "ORIGINAL",
          "PRIMARY",
          "M",
          "MB",
          "ND",
          "MOSAIC"
        ],
        "ImagedNucleus": "1H",
        "ImagingFrequency": 123.259467,
        "InPlanePhaseEncodingDirection": "COL",
        "MRAcquisitionType": "2D",
        "MagneticFieldStrength": 3.0,
        "Manufacturer": "SIEMENS",
        "ManufacturerModelName": "Prisma_fit",
        "Modality": "MR",
        "NumberOfAverages": 1.0,
        "NumberOfPhaseEncodingSteps": 104,
        "PercentPhaseFieldOfView": 100.0,
        "PercentSampling": 100.0,
        "PerformedProcedureStepStartTime": "094845.519000",
        "PhotometricInterpretation": "MONOCHROME2",
        "PixelBandwidth": 2290.0,
        "PixelRepresentation": 0,
        "PixelSpacing": [
          2.0,
          2.0
        ],
        "ProtocolName": "func_task-bourne8",
        "RepetitionTime": 1490.0,
        "Rows": 832,
        "SAR": 0.02858259632551,
        "SamplesPerPixel": 1,
        "ScanOptions": "FS",
        "ScanningSequence": "EP",
        "SequenceName": "epfid2d1_104",
        "SequenceVariant": [
          "SK",
          "SS"
        ],
        "SeriesDescription": "func_task-bourne8",
        "SeriesNumber": 12,
        "SeriesTime": "103050.911000",
        "SliceLocation": -58.21353417801,
        "SliceThickness": 2.0,
        "SmallestImagePixelValue": 0,
        "SoftwareVersions": "syngo MR E11",
        "SpacingBetweenSlices": 2.0000000097885,
        "SpecificCharacterSet": "ISO_IR 100",
        "StudyID": "1",
        "StudyTime": "094845.434000",
        "TransmitCoilName": "Body",
        "VariableFlipAngleFlag": "N",
        "WindowCenterWidthExplanation": "Algo1",
        "dBdt": 0.0
      },
      "slices": {}
    },
    "modality": "bold",
    "session_id": "006",
    "subject_id": "06",
    "task_id": "bourne08",
    "time": {
      "samples": {
        "AcquisitionNumber": [
          1,
          2,
          3,
          4,
          5,
          6,
          7,
          8,
          9,
          10,
          11,
          12,
          13,
          14,
          15,
          16,
          17,
          18,
          19,
          20,
          21,
          22,
          23,
          24,
          25,
          26,
          27,
          28,
          29,
          30,
          31,
          32,
          33,
          34,
          35,
          36,
          37,
          38,
          39,
          40,
          41,
          42,
          43,
          44,
          45,
          46,
          47,
          48,
          49,
          50,
          51,
          52,
          53,
          54,
          55,
          56,
          57,
          58,
          59,
          60,
          61,
          62,
          63,
          64,
          65,
          66,
          67,
          68,
          69,
          70,
          71,
          72,
          73,
          74,
          75,
          76,
          77,
          78,
          79,
          80,
          81,
          82,
          83,
          84,
          85,
          86,
          87,
          88,
          89,
          90,
          91,
          92,
          93,
          94,
          95,
          96,
          97,
          98,
          99,
          100,
          101,
          102,
          103,
          104,
          105,
          106,
          107,
          108,
          109,
          110,
          111,
          112,
          113,
          114,
          115,
          116,
          117,
          118,
          119,
          120,
          121,
          122,
          123,
          124,
          125,
          126,
          127,
          128,
          129,
          130,
          131,
          132,
          133,
          134,
          135,
          136,
          137,
          138,
          139,
          140,
          141,
          142,
          143,
          144,
          145,
          146,
          147,
          148,
          149,
          150,
          151,
          152,
          153,
          154,
          155,
          156,
          157,
          158,
          159,
          160,
          161,
          162,
          163,
          164,
          165,
          166,
          167,
          168,
          169,
          170,
          171,
          172,
          173,
          174,
          175,
          176,
          177,
          178,
          179,
          180,
          181,
          182,
          183,
          184,
          185,
          186,
          187,
          188,
          189,
          190,
          191,
          192,
          193,
          194,
          195,
          196,
          197,
          198,
          199,
          200,
          201,
          202,
          203,
          204,
          205,
          206,
          207,
          208,
          209,
          210,
          211,
          212,
          213,
          214,
          215,
          216,
          217,
          218,
          219,
          220,
          221,
          222,
          223,
          224,
          225,
          226,
          227,
          228,
          229,
          230,
          231,
          232,
          233,
          234,
          235,
          236,
          237,
          238,
          239,
          240,
          241,
          242,
          243,
          244,
          245,
          246,
          247,
          248,
          249,
          250,
          251,
          252,
          253,
          254,
          255,
          256,
          257,
          258,
          259,
          260,
          261,
          262,
          263,
          264,
          265,
          266,
          267,
          268,
          269,
          270,
          271,
          272,
          273,
          274,
          275,
          276,
          277,
          278,
          279,
          280,
          281,
          282,
          283,
          284,
          285,
          286,
          287,
          288,
          289,
          290,
          291,
          292,
          293,
          294,
          295,
          296,
          297,
          298,
          299,
          300,
          301,
          302,
          303,
          304,
          305,
          306,
          307,
          308,
          309,
          310,
          311,
          312,
          313,
          314,
          315,
          316,
          317,
          318,
          319,
          320,
          321,
          322,
          323,
          324,
          325,
          326,
          327,
          328,
          329,
          330,
          331,
          332,
          333,
          334,
          335,
          336,
          337,
          338,
          339,
          340,
          341,
          342,
          343,
          344,
          345,
          346,
          347,
          348,
          349,
          350,
          351,
          352,
          353,
          354,
          355,
          356,
          357,
          358,
          359,
          360,
          361,
          362,
          363,
          364,
          365,
          366,
          367,
          368,
          369,
          370,
          371,
          372,
          373,
          374,
          375,
          376,
          377,
          378,
          379,
          380,
          381,
          382,
          383,
          384,
          385,
          386,
          387,
          388,
          389,
          390,
          391,
          392,
          393,
          394,
          395,
          396,
          397,
          398,
          399,
          400,
          401,
          402,
          403,
          404,
          405
        ],
        "AcquisitionTime": [
          "102933.110000",
          "102934.600000",
          "102936.090000",
          "102937.580000",
          "102939.070000",
          "102940.560000",
          "102942.050000",
          "102943.540000",
          "102945.030000",
          "102946.520000",
          "102948.010000",
          "102949.500000",
          "102950.990000",
          "102952.480000",
          "102953.970000",
          "102955.460000",
          "102956.950000",
          "102958.440000",
          "102959.930000",
          "103001.420000",
          "103002.910000",
          "103004.400000",
          "103005.890000",
          "103007.380000",
          "103008.870000",
          "103010.360000",
          "103011.850000",
          "103013.340000",
          "103014.830000",
          "103016.320000",
          "103017.810000",
          "103019.300000",
          "103020.790000",
          "103022.280000",
          "103023.770000",
          "103025.260000",
          "103026.750000",
          "103028.240000",
          "103029.730000",
          "103031.220000",
          "103032.710000",
          "103034.200000",
          "103035.690000",
          "103037.180000",
          "103038.670000",
          "103040.160000",
          "103041.650000",
          "103043.140000",
          "103044.630000",
          "103046.120000",
          "103047.610000",
          "103049.100000",
          "103050.590000",
          "103052.080000",
          "103053.570000",
          "103055.060000",
          "103056.550000",
          "103058.040000",
          "103059.530000",
          "103101.020000",
          "103102.510000",
          "103104.000000",
          "103105.490000",
          "103106.980000",
          "103108.470000",
          "103109.960000",
          "103111.450000",
          "103112.940000",
          "103114.430000",
          "103115.920000",
          "103117.410000",
          "103118.900000",
          "103120.390000",
          "103121.880000",
          "103123.370000",
          "103124.860000",
          "103126.350000",
          "103127.840000",
          "103129.330000",
          "103130.820000",
          "103132.310000",
          "103133.800000",
          "103135.290000",
          "103136.780000",
          "103138.270000",
          "103139.760000",
          "103141.250000",
          "103142.740000",
          "103144.230000",
          "103145.720000",
          "103147.210000",
          "103148.700000",
          "103150.190000",
          "103151.680000",
          "103153.170000",
          "103154.660000",
          "103156.150000",
          "103157.640000",
          "103159.130000",
          "103200.620000",
          "103202.110000",
          "103203.600000",
          "103205.090000",
          "103206.580000",
          "103208.070000",
          "103209.560000",
          "103211.050000",
          "103212.540000",
          "103214.030000",
          "103215.520000",
          "103217.010000",
          "103218.500000",
          "103219.990000",
          "103221.480000",
          "103222.970000",
          "103224.460000",
          "103225.950000",
          "103227.440000",
          "103228.930000",
          "103230.420000",
          "103231.910000",
          "103233.400000",
          "103234.890000",
          "103236.380000",
          "103237.870000",
          "103239.360000",
          "103240.850000",
          "103242.340000",
          "103243.830000",
          "103245.320000",
          "103246.810000",
          "103248.300000",
          "103249.790000",
          "103251.280000",
          "103252.770000",
          "103254.260000",
          "103255.750000",
          "103257.240000",
          "103258.730000",
          "103300.220000",
          "103301.710000",
          "103303.200000",
          "103304.690000",
          "103306.180000",
          "103307.670000",
          "103309.160000",
          "103310.650000",
          "103312.140000",
          "103313.630000",
          "103315.120000",
          "103316.610000",
          "103318.100000",
          "103319.590000",
          "103321.080000",
          "103322.570000",
          "103324.060000",
          "103325.550000",
          "103327.040000",
          "103328.530000",
          "103330.020000",
          "103331.510000",
          "103333.000000",
          "103334.490000",
          "103335.980000",
          "103337.470000",
          "103338.960000",
          "103340.450000",
          "103341.940000",
          "103343.430000",
          "103344.920000",
          "103346.410000",
          "103347.900000",
          "103349.390000",
          "103350.880000",
          "103352.370000",
          "103353.860000",
          "103355.350000",
          "103356.840000",
          "103358.330000",
          "103359.820000",
          "103401.310000",
          "103402.800000",
          "103404.290000",
          "103405.780000",
          "103407.270000",
          "103408.760000",
          "103410.250000",
          "103411.740000",
          "103413.230000",
          "103414.720000",
          "103416.210000",
          "103417.700000",
          "103419.190000",
          "103420.680000",
          "103422.170000",
          "103423.660000",
          "103425.150000",
          "103426.640000",
          "103428.130000",
          "103429.620000",
          "103431.110000",
          "103432.600000",
          "103434.090000",
          "103435.580000",
          "103437.070000",
          "103438.560000",
          "103440.050000",
          "103441.540000",
          "103443.030000",
          "103444.520000",
          "103446.010000",
          "103447.500000",
          "103448.990000",
          "103450.480000",
          "103451.970000",
          "103453.460000",
          "103454.950000",
          "103456.440000",
          "103457.930000",
          "103459.420000",
          "103500.910000",
          "103502.400000",
          "103503.890000",
          "103505.380000",
          "103506.870000",
          "103508.360000",
          "103509.850000",
          "103511.340000",
          "103512.830000",
          "103514.320000",
          "103515.810000",
          "103517.300000",
          "103518.790000",
          "103520.280000",
          "103521.770000",
          "103523.260000",
          "103524.750000",
          "103526.240000",
          "103527.730000",
          "103529.220000",
          "103530.710000",
          "103532.200000",
          "103533.690000",
          "103535.180000",
          "103536.670000",
          "103538.160000",
          "103539.650000",
          "103541.140000",
          "103542.630000",
          "103544.120000",
          "103545.610000",
          "103547.100000",
          "103548.590000",
          "103550.080000",
          "103551.570000",
          "103553.060000",
          "103554.550000",
          "103556.040000",
          "103557.530000",
          "103559.020000",
          "103600.510000",
          "103602.000000",
          "103603.490000",
          "103604.980000",
          "103606.470000",
          "103607.960000",
          "103609.450000",
          "103610.940000",
          "103612.430000",
          "103613.920000",
          "103615.410000",
          "103616.900000",
          "103618.390000",
          "103619.880000",
          "103621.370000",
          "103622.860000",
          "103624.350000",
          "103625.840000",
          "103627.330000",
          "103628.820000",
          "103630.310000",
          "103631.800000",
          "103633.290000",
          "103634.780000",
          "103636.270000",
          "103637.760000",
          "103639.250000",
          "103640.740000",
          "103642.230000",
          "103643.720000",
          "103645.210000",
          "103646.700000",
          "103648.190000",
          "103649.680000",
          "103651.170000",
          "103652.660000",
          "103654.150000",
          "103655.640000",
          "103657.130000",
          "103658.620000",
          "103700.110000",
          "103701.600000",
          "103703.090000",
          "103704.580000",
          "103706.070000",
          "103707.560000",
          "103709.050000",
          "103710.540000",
          "103712.030000",
          "103713.520000",
          "103715.010000",
          "103716.500000",
          "103717.990000",
          "103719.480000",
          "103720.970000",
          "103722.460000",
          "103723.950000",
          "103725.440000",
          "103726.930000",
          "103728.420000",
          "103729.910000",
          "103731.400000",
          "103732.890000",
          "103734.380000",
          "103735.870000",
          "103737.360000",
          "103738.850000",
          "103740.340000",
          "103741.830000",
          "103743.320000",
          "103744.810000",
          "103746.300000",
          "103747.790000",
          "103749.280000",
          "103750.770000",
          "103752.260000",
          "103753.750000",
          "103755.240000",
          "103756.730000",
          "103758.220000",
          "103759.710000",
          "103801.200000",
          "103802.690000",
          "103804.180000",
          "103805.670000",
          "103807.160000",
          "103808.650000",
          "103810.140000",
          "103811.630000",
          "103813.120000",
          "103814.610000",
          "103816.100000",
          "103817.590000",
          "103819.080000",
          "103820.570000",
          "103822.060000",
          "103823.550000",
          "103825.040000",
          "103826.530000",
          "103828.020000",
          "103829.510000",
          "103831.000000",
          "103832.490000",
          "103833.980000",
          "103835.470000",
          "103836.960000",
          "103838.450000",
          "103839.940000",
          "103841.430000",
          "103842.920000",
          "103844.410000",
          "103845.900000",
          "103847.390000",
          "103848.880000",
          "103850.370000",
          "103851.860000",
          "103853.350000",
          "103854.840000",
          "103856.330000",
          "103857.820000",
          "103859.310000",
          "103900.800000",
          "103902.290000",
          "103903.780000",
          "103905.270000",
          "103906.760000",
          "103908.250000",
          "103909.740000",
          "103911.230000",
          "103912.720000",
          "103914.210000",
          "103915.700000",
          "103917.190000",
          "103918.680000",
          "103920.170000",
          "103921.660000",
          "103923.150000",
          "103924.640000",
          "103926.130000",
          "103927.620000",
          "103929.110000",
          "103930.600000",
          "103932.090000",
          "103933.580000",
          "103935.070000"
        ],
        "ContentTime": [
          "103050.913000",
          "103050.917000",
          "103050.920000",
          "103050.923000",
          "103050.926000",
          "103050.929000",
          "103050.931000",
          "103050.935000",
          "103050.937000",
          "103050.940000",
          "103050.943000",
          "103050.946000",
          "103050.949000",
          "103050.952000",
          "103050.955000",
          "103050.962000",
          "103050.965000",
          "103050.968000",
          "103050.975000",
          "103050.978000",
          "103050.981000",
          "103050.983000",
          "103050.986000",
          "103110.876000",
          "103110.879000",
          "103110.882000",
          "103110.885000",
          "103110.888000",
          "103110.890000",
          "103110.893000",
          "103110.896000",
          "103110.899000",
          "103110.902000",
          "103110.905000",
          "103110.908000",
          "103110.910000",
          "103110.913000",
          "103110.916000",
          "103110.919000",
          "103110.922000",
          "103110.925000",
          "103110.928000",
          "103110.931000",
          "103110.933000",
          "103130.877000",
          "103130.880000",
          "103130.883000",
          "103130.886000",
          "103130.889000",
          "103130.892000",
          "103130.895000",
          "103130.898000",
          "103130.901000",
          "103130.903000",
          "103130.906000",
          "103130.909000",
          "103130.912000",
          "103130.918000",
          "103130.921000",
          "103130.924000",
          "103130.927000",
          "103130.930000",
          "103130.932000",
          "103130.935000",
          "103150.877000",
          "103150.880000",
          "103150.883000",
          "103150.886000",
          "103150.889000",
          "103150.891000",
          "103150.894000",
          "103150.897000",
          "103150.900000",
          "103150.903000",
          "103150.906000",
          "103150.909000",
          "103150.912000",
          "103150.924000",
          "103150.927000",
          "103150.930000",
          "103150.943000",
          "103150.946000",
          "103150.949000",
          "103150.952000",
          "103210.877000",
          "103210.880000",
          "103210.883000",
          "103210.886000",
          "103210.889000",
          "103210.891000",
          "103210.894000",
          "103210.897000",
          "103210.900000",
          "103210.903000",
          "103210.906000",
          "103210.909000",
          "103210.912000",
          "103210.915000",
          "103210.919000",
          "103210.922000",
          "103210.925000",
          "103210.928000",
          "103210.931000",
          "103210.933000",
          "103250.876000",
          "103250.879000",
          "103250.882000",
          "103250.885000",
          "103250.888000",
          "103250.891000",
          "103250.894000",
          "103250.897000",
          "103250.900000",
          "103250.902000",
          "103250.905000",
          "103250.908000",
          "103250.919000",
          "103250.922000",
          "103250.925000",
          "103250.928000",
          "103250.930000",
          "103250.933000",
          "103250.936000",
          "103250.939000",
          "103250.942000",
          "103250.945000",
          "103250.948000",
          "103250.951000",
          "103250.954000",
          "103250.957000",
          "103250.960000",
          "103250.963000",
          "103330.877000",
          "103330.880000",
          "103330.883000",
          "103330.886000",
          "103330.889000",
          "103330.892000",
          "103330.895000",
          "103330.898000",
          "103330.901000",
          "103330.904000",
          "103330.907000",
          "103330.910000",
          "103330.913000",
          "103330.915000",
          "103330.918000",
          "103330.921000",
          "103330.924000",
          "103330.927000",
          "103330.930000",
          "103330.933000",
          "103330.936000",
          "103330.938000",
          "103330.941000",
          "103330.944000",
          "103330.947000",
          "103330.950000",
          "103330.953000",
          "103410.877000",
          "103410.880000",
          "103410.883000",
          "103410.886000",
          "103410.889000",
          "103410.892000",
          "103410.895000",
          "103410.898000",
          "103410.901000",
          "103410.905000",
          "103410.908000",
          "103410.911000",
          "103410.914000",
          "103410.917000",
          "103410.920000",
          "103410.923000",
          "103410.925000",
          "103410.928000",
          "103410.931000",
          "103410.934000",
          "103410.937000",
          "103410.940000",
          "103410.943000",
          "103410.946000",
          "103410.949000",
          "103410.951000",
          "103450.876000",
          "103450.879000",
          "103450.882000",
          "103450.885000",
          "103450.888000",
          "103450.891000",
          "103450.893000",
          "103450.896000",
          "103450.899000",
          "103450.902000",
          "103450.905000",
          "103450.908000",
          "103450.911000",
          "103450.914000",
          "103450.917000",
          "103450.927000",
          "103450.930000",
          "103450.933000",
          "103450.935000",
          "103450.938000",
          "103450.941000",
          "103450.944000",
          "103450.947000",
          "103450.950000",
          "103450.953000",
          "103450.956000",
          "103450.959000",
          "103530.876000",
          "103530.879000",
          "103530.882000",
          "103530.885000",
          "103530.888000",
          "103530.891000",
          "103530.894000",
          "103530.897000",
          "103530.900000",
          "103530.903000",
          "103530.906000",
          "103530.909000",
          "103530.912000",
