{
  "aor": 0.0007523095823095822,
  "aqi": 0.012089160049140048,
  "bids_meta": {
    "AcquisitionMatrixPE": 104,
    "AcquisitionNumber": 1,
    "AcquisitionTime": "10:56:1.190000",
    "BandwidthPerPixelPhaseEncode": 17.17,
    "BaseResolution": 104,
    "BodyPartExamined": "BRAIN",
    "CogAtlasID": "trm_4c898da401420",
    "ConsistencyInfo": "N4_VE11C_LATEST_20160120",
    "ConversionSoftware": "dcm2niix",
    "ConversionSoftwareVersion": "v1.0.20171215 (OpenJPEG build) GCC7.3.0",
    "DerivedVendorReportedEchoSpacing": 0.000560011,
    "DeviceSerialNumber": "167006",
    "DwellTime": 2.1e-06,
    "EchoTime": 0.037,
    "EchoTrainLength": 104,
    "EffectiveEchoSpacing": 0.000560011,
    "FlipAngle": 52,
    "ImageComments": "Unaliased_MB4_PE3_LB",
    "ImageOrientationPatientDICOM": [
      0.999608,
      -0.00376157,
      -0.0277364,
      -0.00505949,
      0.950323,
      -0.311223
    ],
    "ImageType": [
      "ORIGINAL",
      "PRIMARY",
      "M",
      "MB",
      "ND",
      "MOSAIC"
    ],
    "InPlanePhaseEncodingDirectionDICOM": "COL",
    "InstitutionAddress": "Chemin_Queen-Mary_4565_Montreal_District_CA_H3W_1W5",
    "InstitutionName": "IUGM",
    "InstitutionalDepartmentName": "Department",
    "MRAcquisitionType": "2D",
    "MagneticFieldStrength": 3,
    "Manufacturer": "Siemens",
    "ManufacturersModelName": "Prisma_fit",
    "Modality": "MR",
    "MultibandAccelerationFactor": 4,
    "PartialFourier": 1,
    "PatientPosition": "HFS",
    "PercentPhaseFOV": 100,
    "PhaseEncodingDirection": "j-",
    "PhaseEncodingSteps": 104,
    "PhaseResolution": 1,
    "PixelBandwidth": 2290,
    "ProcedureStepDescription": "video5_generic",
    "ProtocolName": "func_task-life4",
    "PulseSequenceDetails": "%CustomerSeq%_cmrr_mbep2d_bold",
    "ReceiveCoilActiveElements": "HC1-7;NC1,2",
    "ReceiveCoilName": "HeadNeck_64",
    "ReconMatrixPE": 104,
    "RepetitionTime": 1.49,
    "SAR": 0.0284758,
    "ScanOptions": "FS",
    "ScanningSequence": "EP",
    "SequenceName": "epfid2d1_104",
    "SequenceVariant": "SK_SS",
    "SeriesDescription": "func_task-life4",
    "SeriesNumber": 14,
    "ShimSetting": [
      634,
      -7258,
      -8865,
      547,
      53,
      -264,
      -113,
      2
    ],
    "SliceThickness": 2,
    "SliceTiming": [
      0,
      0.7825,
      0.0975,
      0.8825,
      0.195,
      0.98,
      0.2925,
      1.0775,
      0.3925,
      1.175,
      0.49,
      1.2725,
      0.5875,
      1.3725,
      0.685,
      0,
      0.7825,
      0.0975,
      0.8825,
      0.195,
      0.98,
      0.2925,
      1.0775,
      0.3925,
      1.175,
      0.49,
      1.2725,
      0.5875,
      1.3725,
      0.685,
      0,
      0.7825,
      0.0975,
      0.8825,
      0.195,
      0.98,
      0.2925,
      1.0775,
      0.3925,
      1.175,
      0.49,
      1.2725,
      0.5875,
      1.3725,
      0.685,
      0,
      0.7825,
      0.0975,
      0.8825,
      0.195,
      0.98,
      0.2925,
      1.0775,
      0.3925,
      1.175,
      0.49,
      1.2725,
      0.5875,
      1.3725,
      0.685
    ],
    "SoftwareVersions": "syngo_MR_E11",
    "SpacingBetweenSlices": 2,
    "StationName": "MRC35049",
    "TaskName": "life04",
    "TotalReadoutTime": 0.0576811,
    "TxRefAmp": 220.432,
    "dataset": "<unset>",
    "dcmmeta_affine": [
      [
        -1.9992164373397827,
        -0.010118980892002583,
        -0.05505852773785591,
        106.43954467773438
      ],
      [
        0.007523144129663706,
        1.9006468057632446,
        -0.6224830150604248,
        -61.643821716308594
      ],
      [
        -0.055472854524850845,
        0.6224462389945984,
        1.8998639583587646,
        -71.99560546875
      ],
      [
        0.0,
        0.0,
        0.0,
        1.0
      ]
    ],
    "dcmmeta_reorient_transform": [
      [
        0.0,
        -1.0,
        0.0,
        103.0
      ],
      [
        1.0,
        0.0,
        0.0,
        0.0
      ],
      [
        0.0,
        0.0,
        1.0,
        0.0
      ],
      [
        0.0,
        0.0,
        0.0,
        1.0
      ]
    ],
    "dcmmeta_shape": [
      104,
      104,
      60,
      410
    ],
    "dcmmeta_slice_dim": 2,
    "dcmmeta_version": 0.6,
    "global": {
      "const": {
        "AcquisitionMatrix": [
          104,
          0,
          0,
          104
        ],
        "AngioFlag": "N",
        "BitsAllocated": 16,
        "BitsStored": 16,
        "BodyPartExamined": "BRAIN",
        "Columns": 832,
        "EchoNumbers": 1,
        "EchoTime": 37.0,
        "EchoTrainLength": 104,
        "FlipAngle": 52.0,
        "HighBit": 15,
        "ImageOrientationPatient": [
          0.99960819381742,
          -0.0037615719632,
          -0.0277364278422,
          -0.0050594902632,
          0.95032340137249,
          -0.3112231263292
        ],
        "ImagePositionPatient": [
          -829.42874343064,
          -823.21981239933,
          238.87891587355
        ],
        "ImageType": [
          "ORIGINAL",
          "PRIMARY",
          "M",
          "MB",
          "ND",
          "MOSAIC"
        ],
        "ImagedNucleus": "1H",
        "ImagingFrequency": 123.259507,
        "InPlanePhaseEncodingDirection": "COL",
        "MRAcquisitionType": "2D",
        "MagneticFieldStrength": 3.0,
        "Manufacturer": "SIEMENS",
        "ManufacturerModelName": "Prisma_fit",
        "Modality": "MR",
        "NumberOfAverages": 1.0,
        "NumberOfPhaseEncodingSteps": 104,
        "PercentPhaseFieldOfView": 100.0,
        "PercentSampling": 100.0,
        "PerformedProcedureStepStartTime": "095906.968000",
        "PhotometricInterpretation": "MONOCHROME2",
        "PixelBandwidth": 2290.0,
        "PixelRepresentation": 0,
        "PixelSpacing": [
          2.0,
          2.0
        ],
        "ProtocolName": "func_task-life4",
        "RepetitionTime": 1490.0,
        "Rows": 832,
        "SAR": 0.02847583777847,
        "SamplesPerPixel": 1,
        "ScanOptions": "FS",
        "ScanningSequence": "EP",
        "SequenceName": "epfid2d1_104",
        "SequenceVariant": [
          "SK",
          "SS"
        ],
        "SeriesDescription": "func_task-life4",
        "SeriesNumber": 14,
        "SeriesTime": "105727.347000",
        "SliceLocation": -52.135015761648,
        "SliceThickness": 2.0,
        "SmallestImagePixelValue": 0,
        "SoftwareVersions": "syngo MR E11",
        "SpacingBetweenSlices": 1.9999999495002,
        "SpecificCharacterSet": "ISO_IR 100",
        "StudyID": "1",
        "StudyTime": "095906.911000",
        "TransmitCoilName": "Body",
        "VariableFlipAngleFlag": "N",
        "WindowCenterWidthExplanation": "Algo1",
        "dBdt": 0.0
      },
      "slices": {}
    },
    "modality": "bold",
    "run_id": 1,
    "session_id": "001",
    "subject_id": "06",
    "task_id": "life04",
    "time": {
      "samples": {
        "AcquisitionNumber": [
          1,
          2,
          3,
          4,
          5,
          6,
          7,
          8,
          9,
          10,
          11,
          12,
          13,
          14,
          15,
          16,
          17,
          18,
          19,
          20,
          21,
          22,
          23,
          24,
          25,
          26,
          27,
          28,
          29,
          30,
          31,
          32,
          33,
          34,
          35,
          36,
          37,
          38,
          39,
          40,
          41,
          42,
          43,
          44,
          45,
          46,
          47,
          48,
          49,
          50,
          51,
          52,
          53,
          54,
          55,
          56,
          57,
          58,
          59,
          60,
          61,
          62,
          63,
          64,
          65,
          66,
          67,
          68,
          69,
          70,
          71,
          72,
          73,
          74,
          75,
          76,
          77,
          78,
          79,
          80,
          81,
          82,
          83,
          84,
          85,
          86,
          87,
          88,
          89,
          90,
          91,
          92,
          93,
          94,
          95,
          96,
          97,
          98,
          99,
          100,
          101,
          102,
          103,
          104,
          105,
          106,
          107,
          108,
          109,
          110,
          111,
          112,
          113,
          114,
          115,
          116,
          117,
          118,
          119,
          120,
          121,
          122,
          123,
          124,
          125,
          126,
          127,
          128,
          129,
          130,
          131,
          132,
          133,
          134,
          135,
          136,
          137,
          138,
          139,
          140,
          141,
          142,
          143,
          144,
          145,
          146,
          147,
          148,
          149,
          150,
          151,
          152,
          153,
          154,
          155,
          156,
          157,
          158,
          159,
          160,
          161,
          162,
          163,
          164,
          165,
          166,
          167,
          168,
          169,
          170,
          171,
          172,
          173,
          174,
          175,
          176,
          177,
          178,
          179,
          180,
          181,
          182,
          183,
          184,
          185,
          186,
          187,
          188,
          189,
          190,
          191,
          192,
          193,
          194,
          195,
          196,
          197,
          198,
          199,
          200,
          201,
          202,
          203,
          204,
          205,
          206,
          207,
          208,
          209,
          210,
          211,
          212,
          213,
          214,
          215,
          216,
          217,
          218,
          219,
          220,
          221,
          222,
          223,
          224,
          225,
          226,
          227,
          228,
          229,
          230,
          231,
          232,
          233,
          234,
          235,
          236,
          237,
          238,
          239,
          240,
          241,
          242,
          243,
          244,
          245,
          246,
          247,
          248,
          249,
          250,
          251,
          252,
          253,
          254,
          255,
          256,
          257,
          258,
          259,
          260,
          261,
          262,
          263,
          264,
          265,
          266,
          267,
          268,
          269,
          270,
          271,
          272,
          273,
          274,
          275,
          276,
          277,
          278,
          279,
          280,
          281,
          282,
          283,
          284,
          285,
          286,
          287,
          288,
          289,
          290,
          291,
          292,
          293,
          294,
          295,
          296,
          297,
          298,
          299,
          300,
          301,
          302,
          303,
          304,
          305,
          306,
          307,
          308,
          309,
          310,
          311,
          312,
          313,
          314,
          315,
          316,
          317,
          318,
          319,
          320,
          321,
          322,
          323,
          324,
          325,
          326,
          327,
          328,
          329,
          330,
          331,
          332,
          333,
          334,
          335,
          336,
          337,
          338,
          339,
          340,
          341,
          342,
          343,
          344,
          345,
          346,
          347,
          348,
          349,
          350,
          351,
          352,
          353,
          354,
          355,
          356,
          357,
          358,
          359,
          360,
          361,
          362,
          363,
          364,
          365,
          366,
          367,
          368,
          369,
          370,
          371,
          372,
          373,
          374,
          375,
          376,
          377,
          378,
          379,
          380,
          381,
          382,
          383,
          384,
          385,
          386,
          387,
          388,
          389,
          390,
          391,
          392,
          393,
          394,
          395,
          396,
          397,
          398,
          399,
          400,
          401,
          402,
          403,
          404,
          405,
          406,
          407,
          408,
          409,
          410
        ],
        "AcquisitionTime": [
          "105601.190000",
          "105602.680000",
          "105604.170000",
          "105605.660000",
          "105607.150000",
          "105608.640000",
          "105610.130000",
          "105611.620000",
          "105613.110000",
          "105614.600000",
          "105616.090000",
          "105617.580000",
          "105619.070000",
          "105620.560000",
          "105622.050000",
          "105623.540000",
          "105625.030000",
          "105626.520000",
          "105628.010000",
          "105629.500000",
          "105630.990000",
          "105632.480000",
          "105633.970000",
          "105635.460000",
          "105636.950000",
          "105638.440000",
          "105639.930000",
          "105641.420000",
          "105642.910000",
          "105644.400000",
          "105645.890000",
          "105647.380000",
          "105648.870000",
          "105650.360000",
          "105651.850000",
          "105653.340000",
          "105654.830000",
          "105656.320000",
          "105657.810000",
          "105659.300000",
          "105700.790000",
          "105702.280000",
          "105703.770000",
          "105705.260000",
          "105706.750000",
          "105708.240000",
          "105709.730000",
          "105711.220000",
          "105712.710000",
          "105714.200000",
          "105715.690000",
          "105717.180000",
          "105718.670000",
          "105720.160000",
          "105721.650000",
          "105723.140000",
          "105724.630000",
          "105726.120000",
          "105727.610000",
          "105729.100000",
          "105730.590000",
          "105732.080000",
          "105733.570000",
          "105735.060000",
          "105736.550000",
          "105738.040000",
          "105739.530000",
          "105741.020000",
          "105742.510000",
          "105744.000000",
          "105745.490000",
          "105746.980000",
          "105748.470000",
          "105749.960000",
          "105751.450000",
          "105752.940000",
          "105754.430000",
          "105755.920000",
          "105757.410000",
          "105758.900000",
          "105800.390000",
          "105801.880000",
          "105803.370000",
          "105804.860000",
          "105806.350000",
          "105807.840000",
          "105809.330000",
          "105810.820000",
          "105812.310000",
          "105813.800000",
          "105815.290000",
          "105816.780000",
          "105818.270000",
          "105819.760000",
          "105821.250000",
          "105822.740000",
          "105824.230000",
          "105825.720000",
          "105827.210000",
          "105828.700000",
          "105830.190000",
          "105831.680000",
          "105833.170000",
          "105834.660000",
          "105836.150000",
          "105837.640000",
          "105839.130000",
          "105840.620000",
          "105842.110000",
          "105843.600000",
          "105845.090000",
          "105846.580000",
          "105848.070000",
          "105849.560000",
          "105851.050000",
          "105852.540000",
          "105854.030000",
          "105855.520000",
          "105857.010000",
          "105858.500000",
          "105859.990000",
          "105901.480000",
          "105902.970000",
          "105904.460000",
          "105905.950000",
          "105907.440000",
          "105908.930000",
          "105910.420000",
          "105911.910000",
          "105913.400000",
          "105914.890000",
          "105916.380000",
          "105917.870000",
          "105919.360000",
          "105920.850000",
          "105922.340000",
          "105923.830000",
          "105925.320000",
          "105926.810000",
          "105928.300000",
          "105929.790000",
          "105931.280000",
          "105932.770000",
          "105934.260000",
          "105935.750000",
          "105937.240000",
          "105938.730000",
          "105940.220000",
          "105941.710000",
          "105943.200000",
          "105944.690000",
          "105946.180000",
          "105947.670000",
          "105949.160000",
          "105950.650000",
          "105952.140000",
          "105953.630000",
          "105955.120000",
          "105956.610000",
          "105958.100000",
          "105959.590000",
          "110001.080000",
          "110002.570000",
          "110004.060000",
          "110005.550000",
          "110007.040000",
          "110008.530000",
          "110010.020000",
          "110011.510000",
          "110013.000000",
          "110014.490000",
          "110015.980000",
          "110017.470000",
          "110018.960000",
          "110020.450000",
          "110021.940000",
          "110023.430000",
          "110024.920000",
          "110026.410000",
          "110027.900000",
          "110029.390000",
          "110030.880000",
          "110032.370000",
          "110033.860000",
          "110035.350000",
          "110036.840000",
          "110038.330000",
          "110039.820000",
          "110041.310000",
          "110042.800000",
          "110044.290000",
          "110045.780000",
          "110047.270000",
          "110048.760000",
          "110050.250000",
          "110051.740000",
          "110053.230000",
          "110054.720000",
          "110056.210000",
          "110057.700000",
          "110059.190000",
          "110100.680000",
          "110102.170000",
          "110103.660000",
          "110105.150000",
          "110106.640000",
          "110108.130000",
          "110109.620000",
          "110111.110000",
          "110112.600000",
          "110114.090000",
          "110115.580000",
          "110117.070000",
          "110118.560000",
          "110120.050000",
          "110121.540000",
          "110123.030000",
          "110124.520000",
          "110126.010000",
          "110127.500000",
          "110128.990000",
          "110130.480000",
          "110131.970000",
          "110133.460000",
          "110134.950000",
          "110136.440000",
          "110137.930000",
          "110139.420000",
          "110140.910000",
          "110142.400000",
          "110143.890000",
          "110145.380000",
          "110146.870000",
          "110148.360000",
          "110149.850000",
          "110151.340000",
          "110152.830000",
          "110154.320000",
          "110155.810000",
          "110157.300000",
          "110158.790000",
          "110200.280000",
          "110201.770000",
          "110203.260000",
          "110204.750000",
          "110206.240000",
          "110207.730000",
          "110209.220000",
          "110210.710000",
          "110212.200000",
          "110213.690000",
          "110215.180000",
          "110216.670000",
          "110218.160000",
          "110219.650000",
          "110221.140000",
          "110222.630000",
          "110224.120000",
          "110225.610000",
          "110227.100000",
          "110228.590000",
          "110230.080000",
          "110231.570000",
          "110233.060000",
          "110234.550000",
          "110236.040000",
          "110237.530000",
          "110239.020000",
          "110240.510000",
          "110242.000000",
          "110243.490000",
          "110244.980000",
          "110246.470000",
          "110247.960000",
          "110249.450000",
          "110250.940000",
          "110252.430000",
          "110253.920000",
          "110255.410000",
          "110256.900000",
          "110258.390000",
          "110259.880000",
          "110301.370000",
          "110302.860000",
          "110304.350000",
          "110305.840000",
          "110307.330000",
          "110308.820000",
          "110310.310000",
          "110311.800000",
          "110313.290000",
          "110314.780000",
          "110316.270000",
          "110317.760000",
          "110319.250000",
          "110320.740000",
          "110322.230000",
          "110323.720000",
          "110325.210000",
          "110326.700000",
          "110328.190000",
          "110329.680000",
          "110331.170000",
          "110332.660000",
          "110334.150000",
          "110335.640000",
          "110337.130000",
          "110338.620000",
          "110340.110000",
          "110341.600000",
          "110343.090000",
          "110344.580000",
          "110346.070000",
          "110347.560000",
          "110349.050000",
          "110350.540000",
          "110352.030000",
          "110353.520000",
          "110355.010000",
          "110356.500000",
          "110357.990000",
          "110359.480000",
          "110400.970000",
          "110402.460000",
          "110403.950000",
          "110405.440000",
          "110406.930000",
          "110408.420000",
          "110409.910000",
          "110411.400000",
          "110412.890000",
          "110414.380000",
          "110415.870000",
          "110417.360000",
          "110418.850000",
          "110420.340000",
          "110421.830000",
          "110423.320000",
          "110424.810000",
          "110426.300000",
          "110427.790000",
          "110429.280000",
          "110430.770000",
          "110432.260000",
          "110433.750000",
          "110435.240000",
          "110436.730000",
          "110438.220000",
          "110439.710000",
          "110441.200000",
          "110442.690000",
          "110444.180000",
          "110445.670000",
          "110447.160000",
          "110448.650000",
          "110450.140000",
          "110451.630000",
          "110453.120000",
          "110454.610000",
          "110456.100000",
          "110457.590000",
          "110459.080000",
          "110500.570000",
          "110502.060000",
          "110503.550000",
          "110505.040000",
          "110506.530000",
          "110508.020000",
          "110509.510000",
          "110511.000000",
          "110512.490000",
          "110513.980000",
          "110515.470000",
          "110516.960000",
          "110518.450000",
          "110519.940000",
          "110521.430000",
          "110522.920000",
          "110524.410000",
          "110525.900000",
          "110527.390000",
          "110528.880000",
          "110530.370000",
          "110531.860000",
          "110533.350000",
          "110534.840000",
          "110536.330000",
          "110537.820000",
          "110539.310000",
          "110540.800000",
          "110542.290000",
          "110543.780000",
          "110545.270000",
          "110546.760000",
          "110548.250000",
          "110549.740000",
          "110551.230000",
          "110552.720000",
          "110554.210000",
          "110555.700000",
          "110557.190000",
          "110558.680000",
          "110600.170000",
          "110601.660000",
          "110603.150000",
          "110604.640000",
          "110606.130000",
          "110607.620000",
          "110609.110000",
          "110610.600000"
        ],
        "ContentTime": [
          "105727.350000",
          "105727.353000",
          "105727.356000",
          "105727.359000",
          "105727.362000",
          "105727.365000",
          "105727.367000",
          "105727.370000",
          "105727.373000",
          "105727.376000",
          "105727.379000",
          "105727.382000",
          "105727.385000",
          "105727.387000",
          "105727.390000",
          "105727.393000",
          "105727.396000",
          "105727.399000",
          "105727.401000",
          "105727.404000",
          "105727.407000",
          "105727.415000",
          "105727.418000",
          "105727.421000",
          "105727.423000",
          "105727.426000",
          "105727.429000",
          "105727.432000",
          "105727.435000",
          "105727.438000",
          "105727.441000",
          "105727.444000",
          "105747.312000",
          "105747.315000",
          "105747.318000",
          "105747.321000",
          "105747.323000",
          "105747.326000",
          "105747.335000",
          "105747.338000",
          "105747.341000",
          "105747.343000",
          "105747.346000",
          "105747.349000",
          "105747.352000",
          "105747.355000",
          "105747.358000",
          "105747.361000",
          "105747.364000",
          "105747.367000",
          "105747.370000",
          "105747.373000",
          "105807.312000",
          "105807.315000",
          "105807.318000",
          "105807.321000",
          "105807.323000",
          "105807.326000",
          "105807.329000",
          "105807.332000",
          "105807.335000",
          "105807.338000",
          "105807.341000",
          "105807.343000",
          "105807.346000",
          "105807.349000",
          "105807.352000",
          "105807.355000",
          "105807.358000",
          "105807.361000",
          "105807.364000",
          "105807.366000",
          "105807.369000",
          "105827.311000",
          "105827.314000",
          "105827.317000",
          "105827.320000",
          "105827.322000",
          "105827.325000",
          "105827.328000",
          "105827.337000",
          "105827.340000",
          "105827.343000",
          "105827.345000",
          "105827.348000",
          "105827.351000",
          "105827.354000",
          "105827.357000",
          "105827.360000",
          "105827.363000",
          "105827.365000",
          "105827.368000",
          "105827.371000",
          "105907.311000",
          "105907.314000",
          "105907.317000",
          "105907.320000",
          "105907.322000",
          "105907.325000",
          "105907.328000",
          "105907.331000",
          "105907.334000",
          "105907.337000",
          "105907.339000",
          "105907.342000",
          "105907.345000",
          "105907.348000",
          "105907.351000",
          "105907.354000",
          "105907.357000",
          "105907.360000",
          "105907.363000",
          "105907.366000",
          "105907.368000",
          "105907.371000",
          "105907.374000",
          "105907.377000",
          "105907.380000",
          "105907.383000",
          "105907.386000",
          "105907.388000",
          "105907.391000",
          "105907.394000",
          "105907.397000",
          "105947.312000",
          "105947.315000",
          "105947.318000",
          "105947.321000",
          "105947.324000",
          "105947.327000",
          "105947.329000",
          "105947.332000",
          "105947.335000",
          "105947.338000",
          "105947.341000",
          "105947.344000",
          "105947.346000",
          "105947.349000",
          "105947.352000",
          "105947.355000",
          "105947.358000",
          "105947.361000",
          "105947.364000",
          "105947.367000",
          "105947.370000",
          "105947.372000",
          "105947.375000",
          "105947.378000",
          "105947.381000",
          "105947.384000",
          "105947.387000",
          "110027.312000",
          "110027.315000",
          "110027.318000",
          "110027.321000",
          "110027.323000",
          "110027.326000",
          "110027.329000",
          "110027.332000",
          "110027.335000",
          "110027.338000",
          "110027.341000",
          "110027.344000",
          "110027.346000",
          "110027.349000",
          "110027.352000",
          "110027.355000",
          "110027.358000",
          "110027.361000",
          "110027.364000",
          "110027.367000",
          "110027.370000",
          "110027.372000",
          "110027.393000",
          "110027.396000",
          "110027.398000",
          "110027.401000",
          "110027.404000",
          "110107.311000",
          "110107.314000",
          "110107.317000",
          "110107.320000",
          "110107.323000",
          "110107.326000",
          "110107.329000",
          "110107.331000",
          "110107.334000",
          "110107.337000",
          "110107.340000",
          "110107.343000",
          "110107.346000",
          "110107.349000",
          "110107.352000",
          "110107.355000",
          "110107.357000",
          "110107.360000",
          "110107.363000",
          "110107.366000",
          "110107.369000",
          "110107.372000",
          "110107.375000",
          "110107.379000",
          "110107.382000",
          "110107.385000",
          "110147.312000",
          "110147.315000",
          "110147.318000",
          "110147.321000",
          "110147.324000",
          "110147.327000",
          "110147.330000",
          "110147.333000",
          "110147.335000",
          "110147.338000",
          "110147.341000",
          "110147.344000",
