{
  "aor": 0.000584278728606357,
  "aqi": 0.007865584841075794,
  "bids_meta": {
    "AcquisitionMatrixPE": 104,
    "AcquisitionNumber": 1,
    "AcquisitionTime": "10:23:47.492500",
    "BandwidthPerPixelPhaseEncode": 17.17,
    "BaseResolution": 104,
    "BodyPartExamined": "BRAIN",
    "CogAtlasID": "trm_4c898da401420",
    "ConsistencyInfo": "N4_VE11C_LATEST_20160120",
    "ConversionSoftware": "dcm2niix",
    "ConversionSoftwareVersion": "v1.0.20171215 (OpenJPEG build) GCC7.3.0",
    "DerivedVendorReportedEchoSpacing": 0.000560011,
    "DeviceSerialNumber": "167006",
    "DwellTime": 2.1e-06,
    "EchoTime": 0.037,
    "EchoTrainLength": 104,
    "EffectiveEchoSpacing": 0.000560011,
    "FlipAngle": 52,
    "ImageComments": "Unaliased_MB4_PE3_LB",
    "ImageOrientationPatientDICOM": [
      0.999608,
      -0.00376157,
      -0.0277364,
      -0.00505949,
      0.950323,
      -0.311223
    ],
    "ImageType": [
      "ORIGINAL",
      "PRIMARY",
      "M",
      "MB",
      "ND",
      "MOSAIC"
    ],
    "InPlanePhaseEncodingDirectionDICOM": "COL",
    "InstitutionAddress": "Chemin_Queen-Mary_4565_Montreal_District_CA_H3W_1W5",
    "InstitutionName": "IUGM",
    "InstitutionalDepartmentName": "Department",
    "MRAcquisitionType": "2D",
    "MagneticFieldStrength": 3,
    "Manufacturer": "Siemens",
    "ManufacturersModelName": "Prisma_fit",
    "Modality": "MR",
    "MultibandAccelerationFactor": 4,
    "PartialFourier": 1,
    "PatientPosition": "HFS",
    "PercentPhaseFOV": 100,
    "PhaseEncodingDirection": "j-",
    "PhaseEncodingSteps": 104,
    "PhaseResolution": 1,
    "PixelBandwidth": 2290,
    "ProcedureStepDescription": "video5_generic",
    "ProtocolName": "func_task-life1",
    "PulseSequenceDetails": "%CustomerSeq%_cmrr_mbep2d_bold",
    "ReceiveCoilActiveElements": "HC1-7;NC1,2",
    "ReceiveCoilName": "HeadNeck_64",
    "ReconMatrixPE": 104,
    "RepetitionTime": 1.49,
    "SAR": 0.0284758,
    "ScanOptions": "FS",
    "ScanningSequence": "EP",
    "SequenceName": "epfid2d1_104",
    "SequenceVariant": "SK_SS",
    "SeriesDescription": "func_task-life1",
    "SeriesNumber": 7,
    "ShimSetting": [
      634,
      -7258,
      -8865,
      547,
      53,
      -264,
      -113,
      2
    ],
    "SliceThickness": 2,
    "SliceTiming": [
      0,
      0.7825,
      0.0975,
      0.8825,
      0.195,
      0.98,
      0.295,
      1.0775,
      0.3925,
      1.175,
      0.49,
      1.2725,
      0.5875,
      1.3725,
      0.685,
      0,
      0.7825,
      0.0975,
      0.8825,
      0.195,
      0.98,
      0.295,
      1.0775,
      0.3925,
      1.175,
      0.49,
      1.2725,
      0.5875,
      1.3725,
      0.685,
      0,
      0.7825,
      0.0975,
      0.8825,
      0.195,
      0.98,
      0.295,
      1.0775,
      0.3925,
      1.175,
      0.49,
      1.2725,
      0.5875,
      1.3725,
      0.685,
      0,
      0.7825,
      0.0975,
      0.8825,
      0.195,
      0.98,
      0.295,
      1.0775,
      0.3925,
      1.175,
      0.49,
      1.2725,
      0.5875,
      1.3725,
      0.685
    ],
    "SoftwareVersions": "syngo_MR_E11",
    "SpacingBetweenSlices": 2,
    "StationName": "MRC35049",
    "TaskName": "life01",
    "TotalReadoutTime": 0.0576811,
    "TxRefAmp": 220.432,
    "dataset": "<unset>",
    "dcmmeta_affine": [
      [
        -1.9992164373397827,
        -0.010118980892002583,
        -0.05505852773785591,
        106.43954467773438
      ],
      [
        0.007523144129663706,
        1.9006468057632446,
        -0.6224830150604248,
        -61.643821716308594
      ],
      [
        -0.055472854524850845,
        0.6224462389945984,
        1.8998639583587646,
        -71.99560546875
      ],
      [
        0.0,
        0.0,
        0.0,
        1.0
      ]
    ],
    "dcmmeta_reorient_transform": [
      [
        0.0,
        -1.0,
        0.0,
        103.0
      ],
      [
        1.0,
        0.0,
        0.0,
        0.0
      ],
      [
        0.0,
        0.0,
        1.0,
        0.0
      ],
      [
        0.0,
        0.0,
        0.0,
        1.0
      ]
    ],
    "dcmmeta_shape": [
      104,
      104,
      60,
      410
    ],
    "dcmmeta_slice_dim": 2,
    "dcmmeta_version": 0.6,
    "global": {
      "const": {
        "AcquisitionMatrix": [
          104,
          0,
          0,
          104
        ],
        "AngioFlag": "N",
        "BitsAllocated": 16,
        "BitsStored": 16,
        "BodyPartExamined": "BRAIN",
        "Columns": 832,
        "EchoNumbers": 1,
        "EchoTime": 37.0,
        "EchoTrainLength": 104,
        "FlipAngle": 52.0,
        "HighBit": 15,
        "ImageOrientationPatient": [
          0.99960819381742,
          -0.0037615719632,
          -0.0277364278422,
          -0.0050594902632,
          0.95032340137249,
          -0.3112231263292
        ],
        "ImagePositionPatient": [
          -829.42874343064,
          -823.21981239933,
          238.87891587355
        ],
        "ImageType": [
          "ORIGINAL",
          "PRIMARY",
          "M",
          "MB",
          "ND",
          "MOSAIC"
        ],
        "ImagedNucleus": "1H",
        "ImagingFrequency": 123.25949,
        "InPlanePhaseEncodingDirection": "COL",
        "MRAcquisitionType": "2D",
        "MagneticFieldStrength": 3.0,
        "Manufacturer": "SIEMENS",
        "ManufacturerModelName": "Prisma_fit",
        "Modality": "MR",
        "NumberOfAverages": 1.0,
        "NumberOfPhaseEncodingSteps": 104,
        "PercentPhaseFieldOfView": 100.0,
        "PercentSampling": 100.0,
        "PerformedProcedureStepStartTime": "095906.968000",
        "PhotometricInterpretation": "MONOCHROME2",
        "PixelBandwidth": 2290.0,
        "PixelRepresentation": 0,
        "PixelSpacing": [
          2.0,
          2.0
        ],
        "ProtocolName": "func_task-life1",
        "RepetitionTime": 1490.0,
        "Rows": 832,
        "SAR": 0.02847583777847,
        "SamplesPerPixel": 1,
        "ScanOptions": "FS",
        "ScanningSequence": "EP",
        "SequenceName": "epfid2d1_104",
        "SequenceVariant": [
          "SK",
          "SS"
        ],
        "SeriesDescription": "func_task-life1",
        "SeriesNumber": 7,
        "SeriesTime": "102507.344000",
        "SliceLocation": -52.135015761648,
        "SliceThickness": 2.0,
        "SmallestImagePixelValue": 0,
        "SoftwareVersions": "syngo MR E11",
        "SpacingBetweenSlices": 1.9999999495002,
        "SpecificCharacterSet": "ISO_IR 100",
        "StudyID": "1",
        "StudyTime": "095906.911000",
        "TransmitCoilName": "Body",
        "VariableFlipAngleFlag": "N",
        "WindowCenterWidthExplanation": "Algo1",
        "dBdt": 0.0
      },
      "slices": {}
    },
    "modality": "bold",
    "run_id": 1,
    "session_id": "001",
    "subject_id": "06",
    "task_id": "life01",
    "time": {
      "samples": {
        "AcquisitionNumber": [
          1,
          2,
          3,
          4,
          5,
          6,
          7,
          8,
          9,
          10,
          11,
          12,
          13,
          14,
          15,
          16,
          17,
          18,
          19,
          20,
          21,
          22,
          23,
          24,
          25,
          26,
          27,
          28,
          29,
          30,
          31,
          32,
          33,
          34,
          35,
          36,
          37,
          38,
          39,
          40,
          41,
          42,
          43,
          44,
          45,
          46,
          47,
          48,
          49,
          50,
          51,
          52,
          53,
          54,
          55,
          56,
          57,
          58,
          59,
          60,
          61,
          62,
          63,
          64,
          65,
          66,
          67,
          68,
          69,
          70,
          71,
          72,
          73,
          74,
          75,
          76,
          77,
          78,
          79,
          80,
          81,
          82,
          83,
          84,
          85,
          86,
          87,
          88,
          89,
          90,
          91,
          92,
          93,
          94,
          95,
          96,
          97,
          98,
          99,
          100,
          101,
          102,
          103,
          104,
          105,
          106,
          107,
          108,
          109,
          110,
          111,
          112,
          113,
          114,
          115,
          116,
          117,
          118,
          119,
          120,
          121,
          122,
          123,
          124,
          125,
          126,
          127,
          128,
          129,
          130,
          131,
          132,
          133,
          134,
          135,
          136,
          137,
          138,
          139,
          140,
          141,
          142,
          143,
          144,
          145,
          146,
          147,
          148,
          149,
          150,
          151,
          152,
          153,
          154,
          155,
          156,
          157,
          158,
          159,
          160,
          161,
          162,
          163,
          164,
          165,
          166,
          167,
          168,
          169,
          170,
          171,
          172,
          173,
          174,
          175,
          176,
          177,
          178,
          179,
          180,
          181,
          182,
          183,
          184,
          185,
          186,
          187,
          188,
          189,
          190,
          191,
          192,
          193,
          194,
          195,
          196,
          197,
          198,
          199,
          200,
          201,
          202,
          203,
          204,
          205,
          206,
          207,
          208,
          209,
          210,
          211,
          212,
          213,
          214,
          215,
          216,
          217,
          218,
          219,
          220,
          221,
          222,
          223,
          224,
          225,
          226,
          227,
          228,
          229,
          230,
          231,
          232,
          233,
          234,
          235,
          236,
          237,
          238,
          239,
          240,
          241,
          242,
          243,
          244,
          245,
          246,
          247,
          248,
          249,
          250,
          251,
          252,
          253,
          254,
          255,
          256,
          257,
          258,
          259,
          260,
          261,
          262,
          263,
          264,
          265,
          266,
          267,
          268,
          269,
          270,
          271,
          272,
          273,
          274,
          275,
          276,
          277,
          278,
          279,
          280,
          281,
          282,
          283,
          284,
          285,
          286,
          287,
          288,
          289,
          290,
          291,
          292,
          293,
          294,
          295,
          296,
          297,
          298,
          299,
          300,
          301,
          302,
          303,
          304,
          305,
          306,
          307,
          308,
          309,
          310,
          311,
          312,
          313,
          314,
          315,
          316,
          317,
          318,
          319,
          320,
          321,
          322,
          323,
          324,
          325,
          326,
          327,
          328,
          329,
          330,
          331,
          332,
          333,
          334,
          335,
          336,
          337,
          338,
          339,
          340,
          341,
          342,
          343,
          344,
          345,
          346,
          347,
          348,
          349,
          350,
          351,
          352,
          353,
          354,
          355,
          356,
          357,
          358,
          359,
          360,
          361,
          362,
          363,
          364,
          365,
          366,
          367,
          368,
          369,
          370,
          371,
          372,
          373,
          374,
          375,
          376,
          377,
          378,
          379,
          380,
          381,
          382,
          383,
          384,
          385,
          386,
          387,
          388,
          389,
          390,
          391,
          392,
          393,
          394,
          395,
          396,
          397,
          398,
          399,
          400,
          401,
          402,
          403,
          404,
          405,
          406,
          407,
          408,
          409,
          410
        ],
        "AcquisitionTime": [
          "102347.492500",
          "102348.982500",
          "102350.472500",
          "102351.962500",
          "102353.452500",
          "102354.942500",
          "102356.432500",
          "102357.922500",
          "102359.412500",
          "102400.902500",
          "102402.392500",
          "102403.882500",
          "102405.372500",
          "102406.862500",
          "102408.352500",
          "102409.842500",
          "102411.332500",
          "102412.822500",
          "102414.312500",
          "102415.802500",
          "102417.292500",
          "102418.782500",
          "102420.272500",
          "102421.762500",
          "102423.252500",
          "102424.742500",
          "102426.232500",
          "102427.722500",
          "102429.212500",
          "102430.702500",
          "102432.192500",
          "102433.682500",
          "102435.172500",
          "102436.662500",
          "102438.152500",
          "102439.642500",
          "102441.132500",
          "102442.622500",
          "102444.112500",
          "102445.602500",
          "102447.092500",
          "102448.582500",
          "102450.072500",
          "102451.562500",
          "102453.052500",
          "102454.542500",
          "102456.032500",
          "102457.522500",
          "102459.012500",
          "102500.502500",
          "102501.992500",
          "102503.482500",
          "102504.972500",
          "102506.462500",
          "102507.952500",
          "102509.442500",
          "102510.932500",
          "102512.422500",
          "102513.912500",
          "102515.402500",
          "102516.892500",
          "102518.382500",
          "102519.872500",
          "102521.362500",
          "102522.852500",
          "102524.342500",
          "102525.832500",
          "102527.322500",
          "102528.812500",
          "102530.302500",
          "102531.792500",
          "102533.282500",
          "102534.772500",
          "102536.262500",
          "102537.752500",
          "102539.242500",
          "102540.732500",
          "102542.222500",
          "102543.712500",
          "102545.202500",
          "102546.692500",
          "102548.182500",
          "102549.672500",
          "102551.162500",
          "102552.652500",
          "102554.142500",
          "102555.632500",
          "102557.122500",
          "102558.612500",
          "102600.102500",
          "102601.592500",
          "102603.082500",
          "102604.572500",
          "102606.062500",
          "102607.552500",
          "102609.042500",
          "102610.532500",
          "102612.022500",
          "102613.512500",
          "102615.002500",
          "102616.492500",
          "102617.982500",
          "102619.472500",
          "102620.962500",
          "102622.452500",
          "102623.942500",
          "102625.432500",
          "102626.922500",
          "102628.412500",
          "102629.902500",
          "102631.392500",
          "102632.882500",
          "102634.372500",
          "102635.862500",
          "102637.352500",
          "102638.842500",
          "102640.332500",
          "102641.822500",
          "102643.312500",
          "102644.802500",
          "102646.292500",
          "102647.782500",
          "102649.272500",
          "102650.762500",
          "102652.252500",
          "102653.742500",
          "102655.232500",
          "102656.722500",
          "102658.212500",
          "102659.702500",
          "102701.192500",
          "102702.682500",
          "102704.172500",
          "102705.662500",
          "102707.152500",
          "102708.642500",
          "102710.132500",
          "102711.622500",
          "102713.112500",
          "102714.602500",
          "102716.092500",
          "102717.582500",
          "102719.072500",
          "102720.562500",
          "102722.052500",
          "102723.542500",
          "102725.032500",
          "102726.522500",
          "102728.012500",
          "102729.502500",
          "102730.992500",
          "102732.482500",
          "102733.972500",
          "102735.462500",
          "102736.952500",
          "102738.442500",
          "102739.932500",
          "102741.422500",
          "102742.912500",
          "102744.402500",
          "102745.892500",
          "102747.382500",
          "102748.872500",
          "102750.362500",
          "102751.852500",
          "102753.342500",
          "102754.832500",
          "102756.322500",
          "102757.812500",
          "102759.302500",
          "102800.792500",
          "102802.282500",
          "102803.772500",
          "102805.262500",
          "102806.752500",
          "102808.242500",
          "102809.732500",
          "102811.222500",
          "102812.712500",
          "102814.202500",
          "102815.692500",
          "102817.182500",
          "102818.672500",
          "102820.162500",
          "102821.652500",
          "102823.142500",
          "102824.632500",
          "102826.122500",
          "102827.612500",
          "102829.102500",
          "102830.592500",
          "102832.082500",
          "102833.572500",
          "102835.062500",
          "102836.552500",
          "102838.042500",
          "102839.532500",
          "102841.022500",
          "102842.512500",
          "102844.002500",
          "102845.492500",
          "102846.982500",
          "102848.472500",
          "102849.962500",
          "102851.452500",
          "102852.942500",
          "102854.432500",
          "102855.922500",
          "102857.412500",
          "102858.902500",
          "102900.392500",
          "102901.882500",
          "102903.372500",
          "102904.862500",
          "102906.352500",
          "102907.842500",
          "102909.332500",
          "102910.822500",
          "102912.312500",
          "102913.802500",
          "102915.292500",
          "102916.782500",
          "102918.272500",
          "102919.762500",
          "102921.252500",
          "102922.742500",
          "102924.232500",
          "102925.722500",
          "102927.212500",
          "102928.702500",
          "102930.192500",
          "102931.682500",
          "102933.172500",
          "102934.662500",
          "102936.152500",
          "102937.642500",
          "102939.132500",
          "102940.622500",
          "102942.112500",
          "102943.602500",
          "102945.092500",
          "102946.582500",
          "102948.072500",
          "102949.562500",
          "102951.052500",
          "102952.542500",
          "102954.032500",
          "102955.522500",
          "102957.012500",
          "102958.502500",
          "102959.992500",
          "103001.482500",
          "103002.972500",
          "103004.462500",
          "103005.952500",
          "103007.442500",
          "103008.932500",
          "103010.422500",
          "103011.912500",
          "103013.402500",
          "103014.892500",
          "103016.382500",
          "103017.872500",
          "103019.362500",
          "103020.852500",
          "103022.342500",
          "103023.832500",
          "103025.322500",
          "103026.812500",
          "103028.302500",
          "103029.792500",
          "103031.282500",
          "103032.772500",
          "103034.262500",
          "103035.752500",
          "103037.242500",
          "103038.732500",
          "103040.222500",
          "103041.712500",
          "103043.202500",
          "103044.692500",
          "103046.182500",
          "103047.672500",
          "103049.162500",
          "103050.652500",
          "103052.142500",
          "103053.632500",
          "103055.122500",
          "103056.612500",
          "103058.102500",
          "103059.592500",
          "103101.082500",
          "103102.572500",
          "103104.062500",
          "103105.552500",
          "103107.042500",
          "103108.532500",
          "103110.022500",
          "103111.512500",
          "103113.002500",
          "103114.492500",
          "103115.982500",
          "103117.472500",
          "103118.962500",
          "103120.452500",
          "103121.942500",
          "103123.432500",
          "103124.922500",
          "103126.412500",
          "103127.902500",
          "103129.392500",
          "103130.882500",
          "103132.372500",
          "103133.862500",
          "103135.352500",
          "103136.842500",
          "103138.332500",
          "103139.822500",
          "103141.312500",
          "103142.802500",
          "103144.292500",
          "103145.782500",
          "103147.272500",
          "103148.762500",
          "103150.252500",
          "103151.742500",
          "103153.232500",
          "103154.722500",
          "103156.212500",
          "103157.702500",
          "103159.192500",
          "103200.682500",
          "103202.172500",
          "103203.662500",
          "103205.152500",
          "103206.642500",
          "103208.132500",
          "103209.622500",
          "103211.112500",
          "103212.602500",
          "103214.092500",
          "103215.582500",
          "103217.072500",
          "103218.562500",
          "103220.052500",
          "103221.542500",
          "103223.032500",
          "103224.522500",
          "103226.012500",
          "103227.502500",
          "103228.992500",
          "103230.482500",
          "103231.972500",
          "103233.462500",
          "103234.952500",
          "103236.442500",
          "103237.932500",
          "103239.422500",
          "103240.912500",
          "103242.402500",
          "103243.892500",
          "103245.382500",
          "103246.872500",
          "103248.362500",
          "103249.852500",
          "103251.342500",
          "103252.832500",
          "103254.322500",
          "103255.812500",
          "103257.302500",
          "103258.792500",
          "103300.282500",
          "103301.772500",
          "103303.262500",
          "103304.752500",
          "103306.242500",
          "103307.732500",
          "103309.222500",
          "103310.712500",
          "103312.202500",
          "103313.692500",
          "103315.182500",
          "103316.672500",
          "103318.162500",
          "103319.652500",
          "103321.142500",
          "103322.632500",
          "103324.122500",
          "103325.612500",
          "103327.102500",
          "103328.592500",
          "103330.082500",
          "103331.572500",
          "103333.062500",
          "103334.552500",
          "103336.042500",
          "103337.532500",
          "103339.022500",
          "103340.512500",
          "103342.002500",
          "103343.492500",
          "103344.982500",
          "103346.472500",
          "103347.962500",
          "103349.452500",
          "103350.942500",
          "103352.432500",
          "103353.922500",
          "103355.412500",
          "103356.902500"
        ],
        "ContentTime": [
          "102507.347000",
          "102507.351000",
          "102507.355000",
          "102507.358000",
          "102507.361000",
          "102507.364000",
          "102507.367000",
          "102507.370000",
          "102507.373000",
          "102507.376000",
          "102507.386000",
          "102507.389000",
          "102507.393000",
          "102507.396000",
          "102507.405000",
          "102507.407000",
          "102507.410000",
          "102507.414000",
          "102507.417000",
          "102507.420000",
          "102507.423000",
          "102507.426000",
          "102507.429000",
          "102507.432000",
          "102527.312000",
          "102527.315000",
          "102527.318000",
          "102527.321000",
          "102527.324000",
          "102527.327000",
          "102527.330000",
          "102527.333000",
          "102527.336000",
          "102527.339000",
          "102527.341000",
          "102527.344000",
          "102527.347000",
          "102527.350000",
          "102527.353000",
          "102527.356000",
          "102527.359000",
          "102527.362000",
          "102527.365000",
          "102527.368000",
          "102547.312000",
          "102547.315000",
          "102547.318000",
          "102547.321000",
          "102547.324000",
          "102547.326000",
          "102547.329000",
          "102547.332000",
          "102547.335000",
          "102547.338000",
          "102547.341000",
          "102547.344000",
          "102547.347000",
          "102547.349000",
          "102547.352000",
          "102547.355000",
          "102547.363000",
          "102547.366000",
          "102547.369000",
          "102547.372000",
          "102607.311000",
          "102607.314000",
          "102607.317000",
          "102607.320000",
          "102607.323000",
          "102607.326000",
          "102607.329000",
          "102607.331000",
          "102607.334000",
          "102607.337000",
          "102607.340000",
          "102607.343000",
          "102607.346000",
          "102607.349000",
          "102607.351000",
          "102607.354000",
          "102607.357000",
          "102607.360000",
          "102607.363000",
          "102607.366000",
          "102627.311000",
          "102627.314000",
          "102627.317000",
          "102627.320000",
          "102627.322000",
          "102627.325000",
          "102627.328000",
          "102627.331000",
          "102627.334000",
          "102627.337000",
          "102627.340000",
          "102627.343000",
          "102627.346000",
          "102627.348000",
          "102627.352000",
          "102627.354000",
          "102627.357000",
          "102627.360000",
          "102627.363000",
          "102627.366000",
          "102707.312000",
          "102707.315000",
          "102707.318000",
          "102707.321000",
          "102707.323000",
          "102707.326000",
          "102707.329000",
          "102707.332000",
          "102707.335000",
          "102707.338000",
          "102707.341000",
          "102707.343000",
          "102707.346000",
          "102707.349000",
          "102707.352000",
          "102707.355000",
          "102707.358000",
          "102707.361000",
          "102707.364000",
          "102707.367000",
          "102707.370000",
          "102707.372000",
          "102707.375000",
          "102707.378000",
          "102707.381000",
          "102707.384000",
          "102707.387000",
          "102707.390000",
          "102707.393000",
          "102747.312000",
          "102747.315000",
          "102747.318000",
          "102747.321000",
          "102747.324000",
          "102747.327000",
          "102747.330000",
          "102747.333000",
          "102747.336000",
          "102747.339000",
          "102747.342000",
          "102747.345000",
          "102747.347000",
          "102747.350000",
          "102747.353000",
          "102747.356000",
          "102747.359000",
          "102747.362000",
          "102747.364000",
          "102747.367000",
          "102747.370000",
          "102747.373000",
          "102747.376000",
          "102747.379000",
          "102747.382000",
          "102747.385000",
          "102747.388000",
          "102827.311000",
          "102827.314000",
          "102827.317000",
          "102827.320000",
          "102827.323000",
          "102827.326000",
          "102827.328000",
          "102827.331000",
          "102827.334000",
          "102827.337000",
          "102827.340000",
          "102827.343000",
          "102827.346000",
          "102827.349000",
          "102827.352000",
          "102827.355000",
          "102827.357000",
          "102827.360000",
          "102827.363000",
          "102827.366000",
          "102827.369000",
          "102827.372000",
          "102827.386000",
          "102827.389000",
          "102827.392000",
          "102827.396000",
          "102827.399000",
          "102907.312000",
          "102907.315000",
          "102907.318000",
          "102907.321000",
          "102907.324000",
          "102907.327000",
          "102907.330000",
          "102907.332000",
          "102907.335000",
          "102907.338000",
          "102907.341000",
          "102907.344000",
          "102907.347000",
          "102907.350000",
          "102907.353000",
          "102907.355000",
          "102907.358000",
          "102907.361000",
          "102907.364000",
          "102907.367000",
          "102907.370000",
          "102907.373000",
          "102907.376000",
          "102907.379000",
          "102907.381000",
          "102907.384000",
          "102907.387000",
          "102947.312000",
          "102947.315000",
          "102947.318000",
