{
  "aor": 0.0009581662591687041,
  "aqi": 0.013312655476772614,
  "bids_meta": {
    "AcquisitionMatrixPE": 104,
    "AcquisitionNumber": 1,
    "AcquisitionTime": "10:45:16.347500",
    "BandwidthPerPixelPhaseEncode": 17.17,
    "BaseResolution": 104,
    "BodyPartExamined": "BRAIN",
    "CogAtlasID": "trm_4c898da401420",
    "ConsistencyInfo": "N4_VE11C_LATEST_20160120",
    "ConversionSoftware": "dcm2niix",
    "ConversionSoftwareVersion": "v1.0.20171215 (OpenJPEG build) GCC7.3.0",
    "DerivedVendorReportedEchoSpacing": 0.000560011,
    "DeviceSerialNumber": "167006",
    "DwellTime": 2.1e-06,
    "EchoTime": 0.037,
    "EchoTrainLength": 104,
    "EffectiveEchoSpacing": 0.000560011,
    "FlipAngle": 52,
    "ImageComments": "Unaliased_MB4_PE3_LB",
    "ImageOrientationPatientDICOM": [
      0.999608,
      -0.00376157,
      -0.0277364,
      -0.00505949,
      0.950323,
      -0.311223
    ],
    "ImageType": [
      "ORIGINAL",
      "PRIMARY",
      "M",
      "MB",
      "ND",
      "MOSAIC"
    ],
    "InPlanePhaseEncodingDirectionDICOM": "COL",
    "InstitutionAddress": "Chemin_Queen-Mary_4565_Montreal_District_CA_H3W_1W5",
    "InstitutionName": "IUGM",
    "InstitutionalDepartmentName": "Department",
    "MRAcquisitionType": "2D",
    "MagneticFieldStrength": 3,
    "Manufacturer": "Siemens",
    "ManufacturersModelName": "Prisma_fit",
    "Modality": "MR",
    "MultibandAccelerationFactor": 4,
    "PartialFourier": 1,
    "PatientPosition": "HFS",
    "PercentPhaseFOV": 100,
    "PhaseEncodingDirection": "j-",
    "PhaseEncodingSteps": 104,
    "PhaseResolution": 1,
    "PixelBandwidth": 2290,
    "ProcedureStepDescription": "video5_generic",
    "ProtocolName": "func_task-life3",
    "PulseSequenceDetails": "%CustomerSeq%_cmrr_mbep2d_bold",
    "ReceiveCoilActiveElements": "HC1-7;NC1,2",
    "ReceiveCoilName": "HeadNeck_64",
    "ReconMatrixPE": 104,
    "RepetitionTime": 1.49,
    "SAR": 0.0284758,
    "ScanOptions": "FS",
    "ScanningSequence": "EP",
    "SequenceName": "epfid2d1_104",
    "SequenceVariant": "SK_SS",
    "SeriesDescription": "func_task-life3",
    "SeriesNumber": 11,
    "ShimSetting": [
      634,
      -7258,
      -8865,
      547,
      53,
      -264,
      -113,
      2
    ],
    "SliceThickness": 2,
    "SliceTiming": [
      0,
      0.785,
      0.0975,
      0.8825,
      0.1975,
      0.98,
      0.295,
      1.0775,
      0.3925,
      1.1775,
      0.49,
      1.275,
      0.5875,
      1.3725,
      0.6875,
      0,
      0.785,
      0.0975,
      0.8825,
      0.1975,
      0.98,
      0.295,
      1.0775,
      0.3925,
      1.1775,
      0.49,
      1.275,
      0.5875,
      1.3725,
      0.6875,
      0,
      0.785,
      0.0975,
      0.8825,
      0.1975,
      0.98,
      0.295,
      1.0775,
      0.3925,
      1.1775,
      0.49,
      1.275,
      0.5875,
      1.3725,
      0.6875,
      0,
      0.785,
      0.0975,
      0.8825,
      0.1975,
      0.98,
      0.295,
      1.0775,
      0.3925,
      1.1775,
      0.49,
      1.275,
      0.5875,
      1.3725,
      0.6875
    ],
    "SoftwareVersions": "syngo_MR_E11",
    "SpacingBetweenSlices": 2,
    "StationName": "MRC35049",
    "TaskName": "life03",
    "TotalReadoutTime": 0.0576811,
    "TxRefAmp": 220.432,
    "dataset": "<unset>",
    "dcmmeta_affine": [
      [
        -1.9992164373397827,
        -0.010118980892002583,
        -0.05505852773785591,
        106.43954467773438
      ],
      [
        0.007523144129663706,
        1.9006468057632446,
        -0.6224830150604248,
        -61.643821716308594
      ],
      [
        -0.055472854524850845,
        0.6224462389945984,
        1.8998639583587646,
        -71.99560546875
      ],
      [
        0.0,
        0.0,
        0.0,
        1.0
      ]
    ],
    "dcmmeta_reorient_transform": [
      [
        0.0,
        -1.0,
        0.0,
        103.0
      ],
      [
        1.0,
        0.0,
        0.0,
        0.0
      ],
      [
        0.0,
        0.0,
        1.0,
        0.0
      ],
      [
        0.0,
        0.0,
        0.0,
        1.0
      ]
    ],
    "dcmmeta_shape": [
      104,
      104,
      60,
      410
    ],
    "dcmmeta_slice_dim": 2,
    "dcmmeta_version": 0.6,
    "global": {
      "const": {
        "AcquisitionMatrix": [
          104,
          0,
          0,
          104
        ],
        "AngioFlag": "N",
        "BitsAllocated": 16,
        "BitsStored": 16,
        "BodyPartExamined": "BRAIN",
        "Columns": 832,
        "EchoNumbers": 1,
        "EchoTime": 37.0,
        "EchoTrainLength": 104,
        "FlipAngle": 52.0,
        "HighBit": 15,
        "ImageOrientationPatient": [
          0.99960819381742,
          -0.0037615719632,
          -0.0277364278422,
          -0.0050594902632,
          0.95032340137249,
          -0.3112231263292
        ],
        "ImagePositionPatient": [
          -829.42874343064,
          -823.21981239933,
          238.87891587355
        ],
        "ImageType": [
          "ORIGINAL",
          "PRIMARY",
          "M",
          "MB",
          "ND",
          "MOSAIC"
        ],
        "ImagedNucleus": "1H",
        "ImagingFrequency": 123.259502,
        "InPlanePhaseEncodingDirection": "COL",
        "MRAcquisitionType": "2D",
        "MagneticFieldStrength": 3.0,
        "Manufacturer": "SIEMENS",
        "ManufacturerModelName": "Prisma_fit",
        "Modality": "MR",
        "NumberOfAverages": 1.0,
        "NumberOfPhaseEncodingSteps": 104,
        "PercentPhaseFieldOfView": 100.0,
        "PercentSampling": 100.0,
        "PerformedProcedureStepStartTime": "095906.968000",
        "PhotometricInterpretation": "MONOCHROME2",
        "PixelBandwidth": 2290.0,
        "PixelRepresentation": 0,
        "PixelSpacing": [
          2.0,
          2.0
        ],
        "ProtocolName": "func_task-life3",
        "RepetitionTime": 1490.0,
        "Rows": 832,
        "SAR": 0.02847583777847,
        "SamplesPerPixel": 1,
        "ScanOptions": "FS",
        "ScanningSequence": "EP",
        "SequenceName": "epfid2d1_104",
        "SequenceVariant": [
          "SK",
          "SS"
        ],
        "SeriesDescription": "func_task-life3",
        "SeriesNumber": 11,
        "SeriesTime": "104645.462000",
        "SliceLocation": -52.135015761648,
        "SliceThickness": 2.0,
        "SmallestImagePixelValue": 0,
        "SoftwareVersions": "syngo MR E11",
        "SpacingBetweenSlices": 1.9999999495002,
        "SpecificCharacterSet": "ISO_IR 100",
        "StudyID": "1",
        "StudyTime": "095906.911000",
        "TransmitCoilName": "Body",
        "VariableFlipAngleFlag": "N",
        "WindowCenterWidthExplanation": "Algo1",
        "dBdt": 0.0
      },
      "slices": {}
    },
    "modality": "bold",
    "run_id": 1,
    "session_id": "001",
    "subject_id": "06",
    "task_id": "life03",
    "time": {
      "samples": {
        "AcquisitionNumber": [
          1,
          2,
          3,
          4,
          5,
          6,
          7,
          8,
          9,
          10,
          11,
          12,
          13,
          14,
          15,
          16,
          17,
          18,
          19,
          20,
          21,
          22,
          23,
          24,
          25,
          26,
          27,
          28,
          29,
          30,
          31,
          32,
          33,
          34,
          35,
          36,
          37,
          38,
          39,
          40,
          41,
          42,
          43,
          44,
          45,
          46,
          47,
          48,
          49,
          50,
          51,
          52,
          53,
          54,
          55,
          56,
          57,
          58,
          59,
          60,
          61,
          62,
          63,
          64,
          65,
          66,
          67,
          68,
          69,
          70,
          71,
          72,
          73,
          74,
          75,
          76,
          77,
          78,
          79,
          80,
          81,
          82,
          83,
          84,
          85,
          86,
          87,
          88,
          89,
          90,
          91,
          92,
          93,
          94,
          95,
          96,
          97,
          98,
          99,
          100,
          101,
          102,
          103,
          104,
          105,
          106,
          107,
          108,
          109,
          110,
          111,
          112,
          113,
          114,
          115,
          116,
          117,
          118,
          119,
          120,
          121,
          122,
          123,
          124,
          125,
          126,
          127,
          128,
          129,
          130,
          131,
          132,
          133,
          134,
          135,
          136,
          137,
          138,
          139,
          140,
          141,
          142,
          143,
          144,
          145,
          146,
          147,
          148,
          149,
          150,
          151,
          152,
          153,
          154,
          155,
          156,
          157,
          158,
          159,
          160,
          161,
          162,
          163,
          164,
          165,
          166,
          167,
          168,
          169,
          170,
          171,
          172,
          173,
          174,
          175,
          176,
          177,
          178,
          179,
          180,
          181,
          182,
          183,
          184,
          185,
          186,
          187,
          188,
          189,
          190,
          191,
          192,
          193,
          194,
          195,
          196,
          197,
          198,
          199,
          200,
          201,
          202,
          203,
          204,
          205,
          206,
          207,
          208,
          209,
          210,
          211,
          212,
          213,
          214,
          215,
          216,
          217,
          218,
          219,
          220,
          221,
          222,
          223,
          224,
          225,
          226,
          227,
          228,
          229,
          230,
          231,
          232,
          233,
          234,
          235,
          236,
          237,
          238,
          239,
          240,
          241,
          242,
          243,
          244,
          245,
          246,
          247,
          248,
          249,
          250,
          251,
          252,
          253,
          254,
          255,
          256,
          257,
          258,
          259,
          260,
          261,
          262,
          263,
          264,
          265,
          266,
          267,
          268,
          269,
          270,
          271,
          272,
          273,
          274,
          275,
          276,
          277,
          278,
          279,
          280,
          281,
          282,
          283,
          284,
          285,
          286,
          287,
          288,
          289,
          290,
          291,
          292,
          293,
          294,
          295,
          296,
          297,
          298,
          299,
          300,
          301,
          302,
          303,
          304,
          305,
          306,
          307,
          308,
          309,
          310,
          311,
          312,
          313,
          314,
          315,
          316,
          317,
          318,
          319,
          320,
          321,
          322,
          323,
          324,
          325,
          326,
          327,
          328,
          329,
          330,
          331,
          332,
          333,
          334,
          335,
          336,
          337,
          338,
          339,
          340,
          341,
          342,
          343,
          344,
          345,
          346,
          347,
          348,
          349,
          350,
          351,
          352,
          353,
          354,
          355,
          356,
          357,
          358,
          359,
          360,
          361,
          362,
          363,
          364,
          365,
          366,
          367,
          368,
          369,
          370,
          371,
          372,
          373,
          374,
          375,
          376,
          377,
          378,
          379,
          380,
          381,
          382,
          383,
          384,
          385,
          386,
          387,
          388,
          389,
          390,
          391,
          392,
          393,
          394,
          395,
          396,
          397,
          398,
          399,
          400,
          401,
          402,
          403,
          404,
          405,
          406,
          407,
          408,
          409,
          410
        ],
        "AcquisitionTime": [
          "104516.347500",
          "104517.837500",
          "104519.327500",
          "104520.817500",
          "104522.307500",
          "104523.797500",
          "104525.287500",
          "104526.777500",
          "104528.267500",
          "104529.757500",
          "104531.247500",
          "104532.737500",
          "104534.227500",
          "104535.717500",
          "104537.207500",
          "104538.697500",
          "104540.187500",
          "104541.677500",
          "104543.167500",
          "104544.657500",
          "104546.147500",
          "104547.637500",
          "104549.127500",
          "104550.617500",
          "104552.107500",
          "104553.597500",
          "104555.087500",
          "104556.577500",
          "104558.067500",
          "104559.557500",
          "104601.047500",
          "104602.537500",
          "104604.027500",
          "104605.517500",
          "104607.007500",
          "104608.497500",
          "104609.987500",
          "104611.477500",
          "104612.967500",
          "104614.457500",
          "104615.947500",
          "104617.437500",
          "104618.927500",
          "104620.417500",
          "104621.907500",
          "104623.397500",
          "104624.887500",
          "104626.377500",
          "104627.867500",
          "104629.357500",
          "104630.847500",
          "104632.337500",
          "104633.827500",
          "104635.317500",
          "104636.807500",
          "104638.297500",
          "104639.787500",
          "104641.277500",
          "104642.767500",
          "104644.257500",
          "104645.747500",
          "104647.237500",
          "104648.727500",
          "104650.217500",
          "104651.707500",
          "104653.197500",
          "104654.687500",
          "104656.177500",
          "104657.667500",
          "104659.157500",
          "104700.647500",
          "104702.137500",
          "104703.627500",
          "104705.117500",
          "104706.607500",
          "104708.097500",
          "104709.587500",
          "104711.077500",
          "104712.567500",
          "104714.057500",
          "104715.547500",
          "104717.037500",
          "104718.527500",
          "104720.017500",
          "104721.507500",
          "104722.997500",
          "104724.487500",
          "104725.977500",
          "104727.467500",
          "104728.957500",
          "104730.447500",
          "104731.937500",
          "104733.427500",
          "104734.917500",
          "104736.407500",
          "104737.897500",
          "104739.387500",
          "104740.877500",
          "104742.367500",
          "104743.857500",
          "104745.347500",
          "104746.837500",
          "104748.327500",
          "104749.817500",
          "104751.307500",
          "104752.797500",
          "104754.287500",
          "104755.777500",
          "104757.267500",
          "104758.757500",
          "104800.247500",
          "104801.737500",
          "104803.227500",
          "104804.717500",
          "104806.207500",
          "104807.697500",
          "104809.187500",
          "104810.677500",
          "104812.167500",
          "104813.657500",
          "104815.147500",
          "104816.637500",
          "104818.127500",
          "104819.617500",
          "104821.107500",
          "104822.597500",
          "104824.087500",
          "104825.577500",
          "104827.067500",
          "104828.557500",
          "104830.047500",
          "104831.537500",
          "104833.027500",
          "104834.517500",
          "104836.007500",
          "104837.497500",
          "104838.987500",
          "104840.477500",
          "104841.967500",
          "104843.457500",
          "104844.947500",
          "104846.437500",
          "104847.927500",
          "104849.417500",
          "104850.907500",
          "104852.397500",
          "104853.887500",
          "104855.377500",
          "104856.867500",
          "104858.357500",
          "104859.847500",
          "104901.337500",
          "104902.827500",
          "104904.317500",
          "104905.807500",
          "104907.297500",
          "104908.787500",
          "104910.277500",
          "104911.767500",
          "104913.257500",
          "104914.747500",
          "104916.237500",
          "104917.727500",
          "104919.217500",
          "104920.707500",
          "104922.197500",
          "104923.687500",
          "104925.177500",
          "104926.667500",
          "104928.157500",
          "104929.647500",
          "104931.137500",
          "104932.627500",
          "104934.117500",
          "104935.607500",
          "104937.097500",
          "104938.587500",
          "104940.077500",
          "104941.567500",
          "104943.057500",
          "104944.547500",
          "104946.037500",
          "104947.527500",
          "104949.017500",
          "104950.507500",
          "104951.997500",
          "104953.487500",
          "104954.977500",
          "104956.467500",
          "104957.957500",
          "104959.447500",
          "105000.937500",
          "105002.427500",
          "105003.917500",
          "105005.407500",
          "105006.897500",
          "105008.387500",
          "105009.877500",
          "105011.367500",
          "105012.857500",
          "105014.347500",
          "105015.837500",
          "105017.327500",
          "105018.817500",
          "105020.307500",
          "105021.797500",
          "105023.287500",
          "105024.777500",
          "105026.267500",
          "105027.757500",
          "105029.247500",
          "105030.737500",
          "105032.227500",
          "105033.717500",
          "105035.207500",
          "105036.697500",
          "105038.187500",
          "105039.677500",
          "105041.167500",
          "105042.657500",
          "105044.147500",
          "105045.637500",
          "105047.127500",
          "105048.617500",
          "105050.107500",
          "105051.597500",
          "105053.087500",
          "105054.577500",
          "105056.067500",
          "105057.557500",
          "105059.047500",
          "105100.537500",
          "105102.027500",
          "105103.517500",
          "105105.007500",
          "105106.497500",
          "105107.987500",
          "105109.477500",
          "105110.967500",
          "105112.457500",
          "105113.947500",
          "105115.437500",
          "105116.927500",
          "105118.417500",
          "105119.907500",
          "105121.397500",
          "105122.887500",
          "105124.377500",
          "105125.867500",
          "105127.357500",
          "105128.847500",
          "105130.337500",
          "105131.827500",
          "105133.317500",
          "105134.807500",
          "105136.297500",
          "105137.787500",
          "105139.277500",
          "105140.767500",
          "105142.257500",
          "105143.747500",
          "105145.237500",
          "105146.727500",
          "105148.217500",
          "105149.707500",
          "105151.197500",
          "105152.687500",
          "105154.177500",
          "105155.667500",
          "105157.157500",
          "105158.647500",
          "105200.137500",
          "105201.627500",
          "105203.117500",
          "105204.607500",
          "105206.097500",
          "105207.587500",
          "105209.077500",
          "105210.567500",
          "105212.057500",
          "105213.547500",
          "105215.037500",
          "105216.527500",
          "105218.017500",
          "105219.507500",
          "105220.997500",
          "105222.487500",
          "105223.977500",
          "105225.467500",
          "105226.957500",
          "105228.447500",
          "105229.937500",
          "105231.427500",
          "105232.917500",
          "105234.407500",
          "105235.897500",
          "105237.387500",
          "105238.877500",
          "105240.367500",
          "105241.857500",
          "105243.347500",
          "105244.837500",
          "105246.327500",
          "105247.817500",
          "105249.307500",
          "105250.797500",
          "105252.287500",
          "105253.777500",
          "105255.267500",
          "105256.757500",
          "105258.247500",
          "105259.737500",
          "105301.227500",
          "105302.717500",
          "105304.207500",
          "105305.697500",
          "105307.187500",
          "105308.677500",
          "105310.167500",
          "105311.657500",
          "105313.147500",
          "105314.637500",
          "105316.127500",
          "105317.617500",
          "105319.107500",
          "105320.597500",
          "105322.087500",
          "105323.577500",
          "105325.067500",
          "105326.557500",
          "105328.047500",
          "105329.537500",
          "105331.027500",
          "105332.517500",
          "105334.007500",
          "105335.497500",
          "105336.987500",
          "105338.477500",
          "105339.967500",
          "105341.457500",
          "105342.947500",
          "105344.437500",
          "105345.927500",
          "105347.417500",
          "105348.907500",
          "105350.397500",
          "105351.887500",
          "105353.377500",
          "105354.867500",
          "105356.357500",
          "105357.847500",
          "105359.337500",
          "105400.827500",
          "105402.317500",
          "105403.807500",
          "105405.297500",
          "105406.787500",
          "105408.277500",
          "105409.767500",
          "105411.257500",
          "105412.747500",
          "105414.237500",
          "105415.727500",
          "105417.217500",
          "105418.707500",
          "105420.197500",
          "105421.687500",
          "105423.177500",
          "105424.667500",
          "105426.157500",
          "105427.647500",
          "105429.137500",
          "105430.627500",
          "105432.117500",
          "105433.607500",
          "105435.097500",
          "105436.587500",
          "105438.077500",
          "105439.567500",
          "105441.057500",
          "105442.547500",
          "105444.037500",
          "105445.527500",
          "105447.017500",
          "105448.507500",
          "105449.997500",
          "105451.487500",
          "105452.977500",
          "105454.467500",
          "105455.957500",
          "105457.447500",
          "105458.937500",
          "105500.427500",
          "105501.917500",
          "105503.407500",
          "105504.897500",
          "105506.387500",
          "105507.877500",
          "105509.367500",
          "105510.857500",
          "105512.347500",
          "105513.837500",
          "105515.327500",
          "105516.817500",
          "105518.307500",
          "105519.797500",
          "105521.287500",
          "105522.777500",
          "105524.267500",
          "105525.757500"
        ],
        "ContentTime": [
          "104645.465000",
          "104645.468000",
          "104645.471000",
          "104645.474000",
          "104645.483000",
          "104645.486000",
          "104645.489000",
          "104645.492000",
          "104645.495000",
          "104645.498000",
          "104645.500000",
          "104645.503000",
          "104645.506000",
          "104645.509000",
          "104645.512000",
          "104645.515000",
          "104645.517000",
          "104645.520000",
          "104645.524000",
          "104645.527000",
          "104645.530000",
          "104645.533000",
          "104645.536000",
          "104645.539000",
          "104645.542000",
          "104645.545000",
          "104645.548000",
          "104645.551000",
          "104645.554000",
          "104645.565000",
          "104645.567000",
          "104645.570000",
          "104645.573000",
          "104705.437000",
          "104705.440000",
          "104705.444000",
          "104705.447000",
          "104705.450000",
          "104705.453000",
          "104705.457000",
          "104705.460000",
          "104705.463000",
          "104705.466000",
          "104705.469000",
          "104705.471000",
          "104705.474000",
          "104705.477000",
          "104705.480000",
          "104705.483000",
          "104705.486000",
          "104705.489000",
          "104705.491000",
          "104705.494000",
          "104725.437000",
          "104725.440000",
          "104725.443000",
          "104725.446000",
          "104725.448000",
          "104725.451000",
          "104725.454000",
          "104725.457000",
          "104725.460000",
          "104725.463000",
          "104725.465000",
          "104725.468000",
          "104725.471000",
          "104725.474000",
          "104725.477000",
          "104725.480000",
          "104725.483000",
          "104725.486000",
          "104725.489000",
          "104725.492000",
          "104725.495000",
          "104745.437000",
          "104745.440000",
          "104745.444000",
          "104745.447000",
          "104745.450000",
          "104745.469000",
          "104745.473000",
          "104745.476000",
          "104745.478000",
          "104745.481000",
          "104745.484000",
          "104745.487000",
          "104745.490000",
          "104745.492000",
          "104745.496000",
          "104745.499000",
          "104745.502000",
          "104745.505000",
          "104745.507000",
          "104745.510000",
          "104825.438000",
          "104825.441000",
          "104825.444000",
          "104825.447000",
          "104825.450000",
          "104825.452000",
          "104825.455000",
          "104825.458000",
          "104825.461000",
          "104825.476000",
          "104825.479000",
          "104825.482000",
          "104825.485000",
          "104825.487000",
          "104825.490000",
          "104825.493000",
          "104825.496000",
          "104825.499000",
          "104825.502000",
          "104825.505000",
          "104825.507000",
          "104825.510000",
          "104825.513000",
          "104825.516000",
          "104825.519000",
          "104825.521000",
          "104825.524000",
          "104825.527000",
          "104825.530000",
          "104825.533000",
          "104825.536000",
          "104825.538000",
          "104905.438000",
          "104905.441000",
          "104905.444000",
          "104905.447000",
          "104905.450000",
          "104905.452000",
          "104905.455000",
          "104905.458000",
          "104905.461000",
          "104905.464000",
          "104905.467000",
          "104905.470000",
          "104905.472000",
          "104905.475000",
          "104905.478000",
          "104905.481000",
          "104905.484000",
          "104905.487000",
          "104905.490000",
          "104905.493000",
          "104905.496000",
          "104905.499000",
          "104905.501000",
          "104905.504000",
          "104905.507000",
          "104905.510000",
          "104905.513000",
          "104945.437000",
          "104945.440000",
          "104945.443000",
          "104945.446000",
          "104945.449000",
          "104945.452000",
          "104945.455000",
          "104945.458000",
          "104945.460000",
          "104945.463000",
          "104945.473000",
          "104945.476000",
          "104945.479000",
          "104945.482000",
          "104945.485000",
          "104945.488000",
          "104945.491000",
          "104945.494000",
          "104945.496000",
          "104945.499000",
          "104945.502000",
          "104945.505000",
          "104945.508000",
          "104945.511000",
          "104945.514000",
          "104945.517000",
          "104945.520000",
          "105025.438000",
          "105025.441000",
          "105025.444000",
          "105025.447000",
          "105025.450000",
          "105025.452000",
          "105025.455000",
          "105025.458000",
          "105025.461000",
          "105025.464000",
          "105025.467000",
          "105025.470000",
          "105025.472000",
          "105025.475000",
          "105025.478000",
          "105025.481000",
          "105025.484000",
          "105025.487000",
          "105025.490000",
          "105025.492000",
          "105025.495000",
          "105025.498000",
          "105025.501000",
          "105025.504000",
          "105025.507000",
          "105025.510000",
          "105025.512000",
          "105105.438000",
          "105105.441000",
          "105105.444000",
          "105105.447000",
          "105105.450000",
          "105105.453000",
          "105105.456000",
          "105105.459000",
          "105105.462000",
