{
  "aor": 0.0008903422982885086,
  "aqi": 0.008656182127139365,
  "bids_meta": {
    "AcquisitionMatrixPE": 104,
    "AcquisitionNumber": 1,
    "AcquisitionTime": "10:34:32.617500",
    "BandwidthPerPixelPhaseEncode": 17.17,
    "BaseResolution": 104,
    "BodyPartExamined": "BRAIN",
    "CogAtlasID": "trm_4c898da401420",
    "ConsistencyInfo": "N4_VE11C_LATEST_20160120",
    "ConversionSoftware": "dcm2niix",
    "ConversionSoftwareVersion": "v1.0.20171215 (OpenJPEG build) GCC7.3.0",
    "DerivedVendorReportedEchoSpacing": 0.000560011,
    "DeviceSerialNumber": "167006",
    "DwellTime": 2.1e-06,
    "EchoTime": 0.037,
    "EchoTrainLength": 104,
    "EffectiveEchoSpacing": 0.000560011,
    "FlipAngle": 52,
    "ImageComments": "Unaliased_MB4_PE3_LB",
    "ImageOrientationPatientDICOM": [
      0.999608,
      -0.00376157,
      -0.0277364,
      -0.00505949,
      0.950323,
      -0.311223
    ],
    "ImageType": [
      "ORIGINAL",
      "PRIMARY",
      "M",
      "MB",
      "ND",
      "MOSAIC"
    ],
    "InPlanePhaseEncodingDirectionDICOM": "COL",
    "InstitutionAddress": "Chemin_Queen-Mary_4565_Montreal_District_CA_H3W_1W5",
    "InstitutionName": "IUGM",
    "InstitutionalDepartmentName": "Department",
    "MRAcquisitionType": "2D",
    "MagneticFieldStrength": 3,
    "Manufacturer": "Siemens",
    "ManufacturersModelName": "Prisma_fit",
    "Modality": "MR",
    "MultibandAccelerationFactor": 4,
    "PartialFourier": 1,
    "PatientPosition": "HFS",
    "PercentPhaseFOV": 100,
    "PhaseEncodingDirection": "j-",
    "PhaseEncodingSteps": 104,
    "PhaseResolution": 1,
    "PixelBandwidth": 2290,
    "ProcedureStepDescription": "video5_generic",
    "ProtocolName": "func_task-life2",
    "PulseSequenceDetails": "%CustomerSeq%_cmrr_mbep2d_bold",
    "ReceiveCoilActiveElements": "HC1-7;NC1,2",
    "ReceiveCoilName": "HeadNeck_64",
    "ReconMatrixPE": 104,
    "RepetitionTime": 1.49,
    "SAR": 0.0284758,
    "ScanOptions": "FS",
    "ScanningSequence": "EP",
    "SequenceName": "epfid2d1_104",
    "SequenceVariant": "SK_SS",
    "SeriesDescription": "func_task-life2",
    "SeriesNumber": 9,
    "ShimSetting": [
      634,
      -7258,
      -8865,
      547,
      53,
      -264,
      -113,
      2
    ],
    "SliceThickness": 2,
    "SliceTiming": [
      0,
      0.785,
      0.1,
      0.8825,
      0.1975,
      0.98,
      0.295,
      1.08,
      0.3925,
      1.1775,
      0.49,
      1.275,
      0.59,
      1.3725,
      0.6875,
      0,
      0.785,
      0.1,
      0.8825,
      0.1975,
      0.98,
      0.295,
      1.08,
      0.3925,
      1.1775,
      0.49,
      1.275,
      0.59,
      1.3725,
      0.6875,
      0,
      0.785,
      0.1,
      0.8825,
      0.1975,
      0.98,
      0.295,
      1.08,
      0.3925,
      1.1775,
      0.49,
      1.275,
      0.59,
      1.3725,
      0.6875,
      0,
      0.785,
      0.1,
      0.8825,
      0.1975,
      0.98,
      0.295,
      1.08,
      0.3925,
      1.1775,
      0.49,
      1.275,
      0.59,
      1.3725,
      0.6875
    ],
    "SoftwareVersions": "syngo_MR_E11",
    "SpacingBetweenSlices": 2,
    "StationName": "MRC35049",
    "TaskName": "life02",
    "TotalReadoutTime": 0.0576811,
    "TxRefAmp": 220.432,
    "dataset": "<unset>",
    "dcmmeta_affine": [
      [
        -1.9992164373397827,
        -0.010118980892002583,
        -0.05505852773785591,
        106.43954467773438
      ],
      [
        0.007523144129663706,
        1.9006468057632446,
        -0.6224830150604248,
        -61.643821716308594
      ],
      [
        -0.055472854524850845,
        0.6224462389945984,
        1.8998639583587646,
        -71.99560546875
      ],
      [
        0.0,
        0.0,
        0.0,
        1.0
      ]
    ],
    "dcmmeta_reorient_transform": [
      [
        0.0,
        -1.0,
        0.0,
        103.0
      ],
      [
        1.0,
        0.0,
        0.0,
        0.0
      ],
      [
        0.0,
        0.0,
        1.0,
        0.0
      ],
      [
        0.0,
        0.0,
        0.0,
        1.0
      ]
    ],
    "dcmmeta_shape": [
      104,
      104,
      60,
      410
    ],
    "dcmmeta_slice_dim": 2,
    "dcmmeta_version": 0.6,
    "global": {
      "const": {
        "AcquisitionMatrix": [
          104,
          0,
          0,
          104
        ],
        "AngioFlag": "N",
        "BitsAllocated": 16,
        "BitsStored": 16,
        "BodyPartExamined": "BRAIN",
        "Columns": 832,
        "EchoNumbers": 1,
        "EchoTime": 37.0,
        "EchoTrainLength": 104,
        "FlipAngle": 52.0,
        "HighBit": 15,
        "ImageOrientationPatient": [
          0.99960819381742,
          -0.0037615719632,
          -0.0277364278422,
          -0.0050594902632,
          0.95032340137249,
          -0.3112231263292
        ],
        "ImagePositionPatient": [
          -829.42874343064,
          -823.21981239933,
          238.87891587355
        ],
        "ImageType": [
          "ORIGINAL",
          "PRIMARY",
          "M",
          "MB",
          "ND",
          "MOSAIC"
        ],
        "ImagedNucleus": "1H",
        "ImagingFrequency": 123.259496,
        "InPlanePhaseEncodingDirection": "COL",
        "MRAcquisitionType": "2D",
        "MagneticFieldStrength": 3.0,
        "Manufacturer": "SIEMENS",
        "ManufacturerModelName": "Prisma_fit",
        "Modality": "MR",
        "NumberOfAverages": 1.0,
        "NumberOfPhaseEncodingSteps": 104,
        "PercentPhaseFieldOfView": 100.0,
        "PercentSampling": 100.0,
        "PerformedProcedureStepStartTime": "095906.968000",
        "PhotometricInterpretation": "MONOCHROME2",
        "PixelBandwidth": 2290.0,
        "PixelRepresentation": 0,
        "PixelSpacing": [
          2.0,
          2.0
        ],
        "ProtocolName": "func_task-life2",
        "RepetitionTime": 1490.0,
        "Rows": 832,
        "SAR": 0.02847583777847,
        "SamplesPerPixel": 1,
        "ScanOptions": "FS",
        "ScanningSequence": "EP",
        "SequenceName": "epfid2d1_104",
        "SequenceVariant": [
          "SK",
          "SS"
        ],
        "SeriesDescription": "func_task-life2",
        "SeriesNumber": 9,
        "SeriesTime": "103603.384000",
        "SliceLocation": -52.135015761648,
        "SliceThickness": 2.0,
        "SmallestImagePixelValue": 0,
        "SoftwareVersions": "syngo MR E11",
        "SpacingBetweenSlices": 1.9999999495002,
        "SpecificCharacterSet": "ISO_IR 100",
        "StudyID": "1",
        "StudyTime": "095906.911000",
        "TransmitCoilName": "Body",
        "VariableFlipAngleFlag": "N",
        "WindowCenterWidthExplanation": "Algo1",
        "dBdt": 0.0
      },
      "slices": {}
    },
    "modality": "bold",
    "run_id": 1,
    "session_id": "001",
    "subject_id": "06",
    "task_id": "life02",
    "time": {
      "samples": {
        "AcquisitionNumber": [
          1,
          2,
          3,
          4,
          5,
          6,
          7,
          8,
          9,
          10,
          11,
          12,
          13,
          14,
          15,
          16,
          17,
          18,
          19,
          20,
          21,
          22,
          23,
          24,
          25,
          26,
          27,
          28,
          29,
          30,
          31,
          32,
          33,
          34,
          35,
          36,
          37,
          38,
          39,
          40,
          41,
          42,
          43,
          44,
          45,
          46,
          47,
          48,
          49,
          50,
          51,
          52,
          53,
          54,
          55,
          56,
          57,
          58,
          59,
          60,
          61,
          62,
          63,
          64,
          65,
          66,
          67,
          68,
          69,
          70,
          71,
          72,
          73,
          74,
          75,
          76,
          77,
          78,
          79,
          80,
          81,
          82,
          83,
          84,
          85,
          86,
          87,
          88,
          89,
          90,
          91,
          92,
          93,
          94,
          95,
          96,
          97,
          98,
          99,
          100,
          101,
          102,
          103,
          104,
          105,
          106,
          107,
          108,
          109,
          110,
          111,
          112,
          113,
          114,
          115,
          116,
          117,
          118,
          119,
          120,
          121,
          122,
          123,
          124,
          125,
          126,
          127,
          128,
          129,
          130,
          131,
          132,
          133,
          134,
          135,
          136,
          137,
          138,
          139,
          140,
          141,
          142,
          143,
          144,
          145,
          146,
          147,
          148,
          149,
          150,
          151,
          152,
          153,
          154,
          155,
          156,
          157,
          158,
          159,
          160,
          161,
          162,
          163,
          164,
          165,
          166,
          167,
          168,
          169,
          170,
          171,
          172,
          173,
          174,
          175,
          176,
          177,
          178,
          179,
          180,
          181,
          182,
          183,
          184,
          185,
          186,
          187,
          188,
          189,
          190,
          191,
          192,
          193,
          194,
          195,
          196,
          197,
          198,
          199,
          200,
          201,
          202,
          203,
          204,
          205,
          206,
          207,
          208,
          209,
          210,
          211,
          212,
          213,
          214,
          215,
          216,
          217,
          218,
          219,
          220,
          221,
          222,
          223,
          224,
          225,
          226,
          227,
          228,
          229,
          230,
          231,
          232,
          233,
          234,
          235,
          236,
          237,
          238,
          239,
          240,
          241,
          242,
          243,
          244,
          245,
          246,
          247,
          248,
          249,
          250,
          251,
          252,
          253,
          254,
          255,
          256,
          257,
          258,
          259,
          260,
          261,
          262,
          263,
          264,
          265,
          266,
          267,
          268,
          269,
          270,
          271,
          272,
          273,
          274,
          275,
          276,
          277,
          278,
          279,
          280,
          281,
          282,
          283,
          284,
          285,
          286,
          287,
          288,
          289,
          290,
          291,
          292,
          293,
          294,
          295,
          296,
          297,
          298,
          299,
          300,
          301,
          302,
          303,
          304,
          305,
          306,
          307,
          308,
          309,
          310,
          311,
          312,
          313,
          314,
          315,
          316,
          317,
          318,
          319,
          320,
          321,
          322,
          323,
          324,
          325,
          326,
          327,
          328,
          329,
          330,
          331,
          332,
          333,
          334,
          335,
          336,
          337,
          338,
          339,
          340,
          341,
          342,
          343,
          344,
          345,
          346,
          347,
          348,
          349,
          350,
          351,
          352,
          353,
          354,
          355,
          356,
          357,
          358,
          359,
          360,
          361,
          362,
          363,
          364,
          365,
          366,
          367,
          368,
          369,
          370,
          371,
          372,
          373,
          374,
          375,
          376,
          377,
          378,
          379,
          380,
          381,
          382,
          383,
          384,
          385,
          386,
          387,
          388,
          389,
          390,
          391,
          392,
          393,
          394,
          395,
          396,
          397,
          398,
          399,
          400,
          401,
          402,
          403,
          404,
          405,
          406,
          407,
          408,
          409,
          410
        ],
        "AcquisitionTime": [
          "103432.617500",
          "103434.107500",
          "103435.597500",
          "103437.087500",
          "103438.577500",
          "103440.067500",
          "103441.557500",
          "103443.047500",
          "103444.537500",
          "103446.027500",
          "103447.517500",
          "103449.007500",
          "103450.497500",
          "103451.987500",
          "103453.477500",
          "103454.967500",
          "103456.457500",
          "103457.947500",
          "103459.437500",
          "103500.927500",
          "103502.417500",
          "103503.907500",
          "103505.397500",
          "103506.887500",
          "103508.377500",
          "103509.867500",
          "103511.357500",
          "103512.847500",
          "103514.337500",
          "103515.827500",
          "103517.317500",
          "103518.807500",
          "103520.297500",
          "103521.787500",
          "103523.277500",
          "103524.767500",
          "103526.257500",
          "103527.747500",
          "103529.237500",
          "103530.727500",
          "103532.217500",
          "103533.707500",
          "103535.197500",
          "103536.687500",
          "103538.177500",
          "103539.667500",
          "103541.157500",
          "103542.647500",
          "103544.137500",
          "103545.627500",
          "103547.117500",
          "103548.607500",
          "103550.097500",
          "103551.587500",
          "103553.077500",
          "103554.567500",
          "103556.057500",
          "103557.547500",
          "103559.037500",
          "103600.527500",
          "103602.017500",
          "103603.507500",
          "103604.997500",
          "103606.487500",
          "103607.977500",
          "103609.467500",
          "103610.957500",
          "103612.447500",
          "103613.937500",
          "103615.427500",
          "103616.917500",
          "103618.407500",
          "103619.897500",
          "103621.387500",
          "103622.877500",
          "103624.367500",
          "103625.857500",
          "103627.347500",
          "103628.837500",
          "103630.327500",
          "103631.817500",
          "103633.307500",
          "103634.797500",
          "103636.287500",
          "103637.777500",
          "103639.267500",
          "103640.757500",
          "103642.247500",
          "103643.737500",
          "103645.227500",
          "103646.717500",
          "103648.207500",
          "103649.697500",
          "103651.187500",
          "103652.677500",
          "103654.167500",
          "103655.657500",
          "103657.147500",
          "103658.637500",
          "103700.127500",
          "103701.617500",
          "103703.107500",
          "103704.597500",
          "103706.087500",
          "103707.577500",
          "103709.067500",
          "103710.557500",
          "103712.047500",
          "103713.537500",
          "103715.027500",
          "103716.517500",
          "103718.007500",
          "103719.497500",
          "103720.987500",
          "103722.477500",
          "103723.967500",
          "103725.457500",
          "103726.947500",
          "103728.437500",
          "103729.927500",
          "103731.417500",
          "103732.907500",
          "103734.397500",
          "103735.887500",
          "103737.377500",
          "103738.867500",
          "103740.357500",
          "103741.847500",
          "103743.337500",
          "103744.827500",
          "103746.317500",
          "103747.807500",
          "103749.297500",
          "103750.787500",
          "103752.277500",
          "103753.767500",
          "103755.257500",
          "103756.747500",
          "103758.237500",
          "103759.727500",
          "103801.217500",
          "103802.707500",
          "103804.197500",
          "103805.687500",
          "103807.177500",
          "103808.667500",
          "103810.157500",
          "103811.647500",
          "103813.137500",
          "103814.627500",
          "103816.117500",
          "103817.607500",
          "103819.097500",
          "103820.587500",
          "103822.077500",
          "103823.567500",
          "103825.057500",
          "103826.547500",
          "103828.037500",
          "103829.527500",
          "103831.017500",
          "103832.507500",
          "103833.997500",
          "103835.487500",
          "103836.977500",
          "103838.467500",
          "103839.957500",
          "103841.447500",
          "103842.937500",
          "103844.427500",
          "103845.917500",
          "103847.407500",
          "103848.897500",
          "103850.387500",
          "103851.877500",
          "103853.367500",
          "103854.857500",
          "103856.347500",
          "103857.837500",
          "103859.327500",
          "103900.817500",
          "103902.307500",
          "103903.797500",
          "103905.287500",
          "103906.777500",
          "103908.267500",
          "103909.757500",
          "103911.247500",
          "103912.737500",
          "103914.227500",
          "103915.717500",
          "103917.207500",
          "103918.697500",
          "103920.187500",
          "103921.677500",
          "103923.167500",
          "103924.657500",
          "103926.147500",
          "103927.637500",
          "103929.127500",
          "103930.617500",
          "103932.107500",
          "103933.597500",
          "103935.087500",
          "103936.577500",
          "103938.067500",
          "103939.557500",
          "103941.047500",
          "103942.537500",
          "103944.027500",
          "103945.517500",
          "103947.007500",
          "103948.497500",
          "103949.987500",
          "103951.477500",
          "103952.967500",
          "103954.457500",
          "103955.947500",
          "103957.437500",
          "103958.927500",
          "104000.417500",
          "104001.907500",
          "104003.397500",
          "104004.887500",
          "104006.377500",
          "104007.867500",
          "104009.357500",
          "104010.847500",
          "104012.337500",
          "104013.827500",
          "104015.317500",
          "104016.807500",
          "104018.297500",
          "104019.787500",
          "104021.277500",
          "104022.767500",
          "104024.257500",
          "104025.747500",
          "104027.237500",
          "104028.727500",
          "104030.217500",
          "104031.707500",
          "104033.197500",
          "104034.687500",
          "104036.177500",
          "104037.667500",
          "104039.157500",
          "104040.647500",
          "104042.137500",
          "104043.627500",
          "104045.117500",
          "104046.607500",
          "104048.097500",
          "104049.587500",
          "104051.077500",
          "104052.567500",
          "104054.057500",
          "104055.547500",
          "104057.037500",
          "104058.527500",
          "104100.017500",
          "104101.507500",
          "104102.997500",
          "104104.487500",
          "104105.977500",
          "104107.467500",
          "104108.957500",
          "104110.447500",
          "104111.937500",
          "104113.427500",
          "104114.917500",
          "104116.407500",
          "104117.897500",
          "104119.387500",
          "104120.877500",
          "104122.367500",
          "104123.857500",
          "104125.347500",
          "104126.837500",
          "104128.327500",
          "104129.817500",
          "104131.307500",
          "104132.797500",
          "104134.287500",
          "104135.777500",
          "104137.267500",
          "104138.757500",
          "104140.247500",
          "104141.737500",
          "104143.227500",
          "104144.717500",
          "104146.207500",
          "104147.697500",
          "104149.187500",
          "104150.677500",
          "104152.167500",
          "104153.657500",
          "104155.147500",
          "104156.637500",
          "104158.127500",
          "104159.617500",
          "104201.107500",
          "104202.597500",
          "104204.087500",
          "104205.577500",
          "104207.067500",
          "104208.557500",
          "104210.047500",
          "104211.537500",
          "104213.027500",
          "104214.517500",
          "104216.007500",
          "104217.497500",
          "104218.987500",
          "104220.477500",
          "104221.967500",
          "104223.457500",
          "104224.947500",
          "104226.437500",
          "104227.927500",
          "104229.417500",
          "104230.907500",
          "104232.397500",
          "104233.887500",
          "104235.377500",
          "104236.867500",
          "104238.357500",
          "104239.847500",
          "104241.337500",
          "104242.827500",
          "104244.317500",
          "104245.807500",
          "104247.297500",
          "104248.787500",
          "104250.277500",
          "104251.767500",
          "104253.257500",
          "104254.747500",
          "104256.237500",
          "104257.727500",
          "104259.217500",
          "104300.707500",
          "104302.197500",
          "104303.687500",
          "104305.177500",
          "104306.667500",
          "104308.157500",
          "104309.647500",
          "104311.137500",
          "104312.627500",
          "104314.117500",
          "104315.607500",
          "104317.097500",
          "104318.587500",
          "104320.077500",
          "104321.567500",
          "104323.057500",
          "104324.547500",
          "104326.037500",
          "104327.527500",
          "104329.017500",
          "104330.507500",
          "104331.997500",
          "104333.487500",
          "104334.977500",
          "104336.467500",
          "104337.957500",
          "104339.447500",
          "104340.937500",
          "104342.427500",
          "104343.917500",
          "104345.407500",
          "104346.897500",
          "104348.387500",
          "104349.877500",
          "104351.367500",
          "104352.857500",
          "104354.347500",
          "104355.837500",
          "104357.327500",
          "104358.817500",
          "104400.307500",
          "104401.797500",
          "104403.287500",
          "104404.777500",
          "104406.267500",
          "104407.757500",
          "104409.247500",
          "104410.737500",
          "104412.227500",
          "104413.717500",
          "104415.207500",
          "104416.697500",
          "104418.187500",
          "104419.677500",
          "104421.167500",
          "104422.657500",
          "104424.147500",
          "104425.637500",
          "104427.127500",
          "104428.617500",
          "104430.107500",
          "104431.597500",
          "104433.087500",
          "104434.577500",
          "104436.067500",
          "104437.557500",
          "104439.047500",
          "104440.537500",
          "104442.027500"
        ],
        "ContentTime": [
          "103603.387000",
          "103603.390000",
          "103603.393000",
          "103603.396000",
          "103603.398000",
          "103603.401000",
          "103603.404000",
          "103603.407000",
          "103603.410000",
          "103603.413000",
          "103603.415000",
          "103603.418000",
          "103603.421000",
          "103603.424000",
          "103603.427000",
          "103603.435000",
          "103603.438000",
          "103603.441000",
          "103603.444000",
          "103603.446000",
          "103603.449000",
          "103603.452000",
          "103603.455000",
          "103603.458000",
          "103603.468000",
          "103603.471000",
          "103603.474000",
          "103603.477000",
          "103603.480000",
          "103603.482000",
          "103603.485000",
          "103603.488000",
          "103603.491000",
          "103603.494000",
          "103603.497000",
          "103603.500000",
          "103623.356000",
          "103623.359000",
          "103623.362000",
          "103623.365000",
          "103623.367000",
          "103623.370000",
          "103623.373000",
          "103623.376000",
          "103623.379000",
          "103623.382000",
          "103623.384000",
          "103623.387000",
          "103623.390000",
          "103623.393000",
          "103623.396000",
          "103623.399000",
          "103623.402000",
          "103623.404000",
          "103623.407000",
          "103623.410000",
          "103643.357000",
          "103643.360000",
          "103643.363000",
          "103643.366000",
          "103643.368000",
          "103643.371000",
          "103643.374000",
          "103643.377000",
          "103643.380000",
          "103643.383000",
          "103643.385000",
          "103643.388000",
          "103643.391000",
          "103643.394000",
          "103643.397000",
          "103643.400000",
          "103643.402000",
          "103643.405000",
          "103643.408000",
          "103643.411000",
          "103703.356000",
          "103703.359000",
          "103703.362000",
          "103703.365000",
          "103703.368000",
          "103703.370000",
          "103703.373000",
          "103703.376000",
          "103703.379000",
          "103703.382000",
          "103703.385000",
          "103703.387000",
          "103703.391000",
          "103703.394000",
          "103703.397000",
          "103703.399000",
          "103703.402000",
          "103703.405000",
          "103703.408000",
          "103703.411000",
          "103743.356000",
          "103743.359000",
          "103743.362000",
          "103743.365000",
          "103743.368000",
          "103743.370000",
          "103743.373000",
          "103743.376000",
          "103743.379000",
          "103743.382000",
          "103743.385000",
          "103743.387000",
          "103743.390000",
          "103743.393000",
          "103743.396000",
          "103743.399000",
          "103743.402000",
          "103743.405000",
          "103743.408000",
          "103743.410000",
          "103743.413000",
          "103743.416000",
          "103743.419000",
          "103743.422000",
          "103743.425000",
          "103743.428000",
          "103743.431000",
          "103743.433000",
          "103743.436000",
          "103743.439000",
          "103743.442000",
          "103823.356000",
          "103823.359000",
          "103823.362000",
          "103823.365000",
          "103823.368000",
          "103823.370000",
          "103823.373000",
          "103823.376000",
          "103823.379000",
          "103823.382000",
          "103823.385000",
          "103823.388000",
          "103823.390000",
          "103823.393000",
          "103823.396000",
          "103823.399000",
          "103823.402000",
          "103823.405000",
          "103823.408000",
          "103823.419000",
          "103823.422000",
          "103823.424000",
          "103823.427000",
          "103823.430000",
          "103823.433000",
          "103823.436000",
          "103823.439000",
          "103903.357000",
          "103903.360000",
          "103903.363000",
          "103903.366000",
          "103903.368000",
          "103903.371000",
          "103903.374000",
          "103903.377000",
          "103903.380000",
          "103903.383000",
          "103903.386000",
          "103903.389000",
          "103903.391000",
          "103903.394000",
          "103903.397000",
          "103903.400000",
          "103903.403000",
          "103903.406000",
          "103903.409000",
          "103903.412000",
          "103903.415000",
          "103903.417000",
          "103903.420000",
          "103903.423000",
          "103903.426000",
          "103903.429000",
          "103903.432000",
          "103943.356000",
          "103943.359000",
          "103943.362000",
          "103943.365000",
          "103943.368000",
          "103943.372000",
          "103943.376000",
          "103943.380000",
          "103943.384000",
          "103943.387000",
          "103943.390000",
          "103943.393000",
          "103943.396000",
          "103943.399000",
          "103943.401000",
          "103943.404000",
          "103943.407000",
          "103943.410000",
          "103943.413000",
          "103943.416000",
          "103943.419000",
          "103943.421000",
          "103943.424000",
          "103943.427000",
          "103943.430000",
          "103943.433000",
          "104023.356000",
          "104023.359000",
          "104023.362000",
          "104023.365000",
          "104023.368000",
          "104023.370000",
          "104023.373000",
          "104023.376000",
          "104023.379000",
          "104023.382000",
