{
  "aor": 0.0002571463414634146,
  "aqi": 0.004596387682926829,
  "bids_meta": {
    "AcquisitionMatrixPE": 104,
    "AcquisitionNumber": 1,
    "AcquisitionTime": "13:51:32.987500",
    "BandwidthPerPixelPhaseEncode": 17.17,
    "BaseResolution": 104,
    "BodyPartExamined": "BRAIN",
    "CogAtlasID": "trm_4c898da401420",
    "ConsistencyInfo": "N4_VE11C_LATEST_20160120",
    "ConversionSoftware": "dcm2niix",
    "ConversionSoftwareVersion": "v1.0.20171215 (OpenJPEG build) GCC7.3.0",
    "DerivedVendorReportedEchoSpacing": 0.000560011,
    "DeviceSerialNumber": "167006",
    "DwellTime": 2.1e-06,
    "EchoTime": 0.037,
    "EchoTrainLength": 104,
    "EffectiveEchoSpacing": 0.000560011,
    "FlipAngle": 52,
    "ImageComments": "Unaliased_MB4_PE3_LB",
    "ImageOrientationPatientDICOM": [
      0.999422,
      0.0334867,
      -0.00586506,
      -0.0336781,
      0.951662,
      -0.305294
    ],
    "ImageType": [
      "ORIGINAL",
      "PRIMARY",
      "M",
      "MB",
      "ND",
      "MOSAIC"
    ],
    "InPlanePhaseEncodingDirectionDICOM": "COL",
    "InstitutionAddress": "Chemin_Queen-Mary_4565_Montreal_District_CA_H3W_1W5",
    "InstitutionName": "IUGM",
    "InstitutionalDepartmentName": "Department",
    "MRAcquisitionType": "2D",
    "MagneticFieldStrength": 3,
    "Manufacturer": "Siemens",
    "ManufacturersModelName": "Prisma_fit",
    "Modality": "MR",
    "MultibandAccelerationFactor": 4,
    "PartialFourier": 1,
    "PatientPosition": "HFS",
    "PercentPhaseFOV": 100,
    "PhaseEncodingDirection": "j-",
    "PhaseEncodingSteps": 104,
    "PhaseResolution": 1,
    "PixelBandwidth": 2290,
    "ProcedureStepDescription": "video5_generic",
    "ProtocolName": "func_task-life3",
    "PulseSequenceDetails": "%CustomerSeq%_cmrr_mbep2d_bold",
    "ReceiveCoilActiveElements": "HC1-7;NC1,2",
    "ReceiveCoilName": "HeadNeck_64",
    "ReconMatrixPE": 104,
    "RepetitionTime": 1.49,
    "SAR": 0.029729,
    "ScanOptions": "FS",
    "ScanningSequence": "EP",
    "SequenceName": "epfid2d1_104",
    "SequenceVariant": "SK_SS",
    "SeriesDescription": "func_task-life3",
    "SeriesNumber": 11,
    "ShimSetting": [
      633,
      -7164,
      -8844,
      629,
      33,
      119,
      6,
      -16
    ],
    "SliceThickness": 2,
    "SliceTiming": [
      0,
      0.785,
      0.0975,
      0.8825,
      0.195,
      0.98,
      0.295,
      1.0775,
      0.3925,
      1.175,
      0.49,
      1.275,
      0.5875,
      1.3725,
      0.685,
      0,
      0.785,
      0.0975,
      0.8825,
      0.195,
      0.98,
      0.295,
      1.0775,
      0.3925,
      1.175,
      0.49,
      1.275,
      0.5875,
      1.3725,
      0.685,
      0,
      0.785,
      0.0975,
      0.8825,
      0.195,
      0.98,
      0.295,
      1.0775,
      0.3925,
      1.175,
      0.49,
      1.275,
      0.5875,
      1.3725,
      0.685,
      0,
      0.785,
      0.0975,
      0.8825,
      0.195,
      0.98,
      0.295,
      1.0775,
      0.3925,
      1.175,
      0.49,
      1.275,
      0.5875,
      1.3725,
      0.685
    ],
    "SoftwareVersions": "syngo_MR_E11",
    "SpacingBetweenSlices": 2,
    "StationName": "MRC35049",
    "TaskName": "life03",
    "TotalReadoutTime": 0.0576811,
    "TxRefAmp": 210.531,
    "dataset": "<unset>",
    "dcmmeta_affine": [
      [
        -1.9988439083099365,
        -0.0673561692237854,
        0.009283469058573246,
        110.29739379882812
      ],
      [
        -0.06697343289852142,
        1.9033249616622925,
        -0.6106298565864563,
        -64.86056518554688
      ],
      [
        -0.011730114929378033,
        0.6105877757072449,
        1.904480218887329,
        -73.21753692626953
      ],
      [
        0.0,
        0.0,
        0.0,
        1.0
      ]
    ],
    "dcmmeta_reorient_transform": [
      [
        0.0,
        -1.0,
        0.0,
        103.0
      ],
      [
        1.0,
        0.0,
        0.0,
        0.0
      ],
      [
        0.0,
        0.0,
        1.0,
        0.0
      ],
      [
        0.0,
        0.0,
        0.0,
        1.0
      ]
    ],
    "dcmmeta_shape": [
      104,
      104,
      60,
      410
    ],
    "dcmmeta_slice_dim": 2,
    "dcmmeta_version": 0.6,
    "global": {
      "const": {
        "AcquisitionMatrix": [
          104,
          0,
          0,
          104
        ],
        "AngioFlag": "N",
        "BitsAllocated": 16,
        "BitsStored": 16,
        "BodyPartExamined": "BRAIN",
        "Columns": 832,
        "EchoNumbers": 1,
        "EchoTime": 37.0,
        "EchoTrainLength": 104,
        "FlipAngle": 52.0,
        "HighBit": 15,
        "ImageOrientationPatient": [
          0.99942195341419,
          0.03348671579766,
          -0.005865057447,
          -0.0336780839134,
          0.95166245837191,
          -0.305293878074
        ],
        "ImagePositionPatient": [
          -806.42124697031,
          -848.37049802566,
          216.19670383592
        ],
        "ImageType": [
          "ORIGINAL",
          "PRIMARY",
          "M",
          "MB",
          "ND",
          "MOSAIC"
        ],
        "ImagedNucleus": "1H",
        "ImagingFrequency": 123.259255,
        "InPlanePhaseEncodingDirection": "COL",
        "MRAcquisitionType": "2D",
        "MagneticFieldStrength": 3.0,
        "Manufacturer": "SIEMENS",
        "ManufacturerModelName": "Prisma_fit",
        "Modality": "MR",
        "NumberOfAverages": 1.0,
        "NumberOfPhaseEncodingSteps": 104,
        "PercentPhaseFieldOfView": 100.0,
        "PercentSampling": 100.0,
        "PerformedProcedureStepStartTime": "130542.954000",
        "PhotometricInterpretation": "MONOCHROME2",
        "PixelBandwidth": 2290.0,
        "PixelRepresentation": 0,
        "PixelSpacing": [
          2.0,
          2.0
        ],
        "ProtocolName": "func_task-life3",
        "RepetitionTime": 1490.0,
        "Rows": 832,
        "SAR": 0.02972898848003,
        "SamplesPerPixel": 1,
        "ScanOptions": "FS",
        "ScanningSequence": "EP",
        "SequenceName": "epfid2d1_104",
        "SequenceVariant": [
          "SK",
          "SS"
        ],
        "SeriesDescription": "func_task-life3",
        "SeriesNumber": 11,
        "SeriesTime": "135253.870000",
        "SliceLocation": -49.405808688585,
        "SliceThickness": 2.0,
        "SmallestImagePixelValue": 0,
        "SoftwareVersions": "syngo MR E11",
        "SpacingBetweenSlices": 1.9999999968175,
        "SpecificCharacterSet": "ISO_IR 100",
        "StudyID": "1",
        "StudyTime": "130542.877000",
        "TransmitCoilName": "Body",
        "VariableFlipAngleFlag": "N",
        "WindowCenterWidthExplanation": "Algo1",
        "dBdt": 0.0
      },
      "slices": {}
    },
    "modality": "bold",
    "run_id": 2,
    "session_id": "011",
    "subject_id": "03",
    "task_id": "life03",
    "time": {
      "samples": {
        "AcquisitionNumber": [
          1,
          2,
          3,
          4,
          5,
          6,
          7,
          8,
          9,
          10,
          11,
          12,
          13,
          14,
          15,
          16,
          17,
          18,
          19,
          20,
          21,
          22,
          23,
          24,
          25,
          26,
          27,
          28,
          29,
          30,
          31,
          32,
          33,
          34,
          35,
          36,
          37,
          38,
          39,
          40,
          41,
          42,
          43,
          44,
          45,
          46,
          47,
          48,
          49,
          50,
          51,
          52,
          53,
          54,
          55,
          56,
          57,
          58,
          59,
          60,
          61,
          62,
          63,
          64,
          65,
          66,
          67,
          68,
          69,
          70,
          71,
          72,
          73,
          74,
          75,
          76,
          77,
          78,
          79,
          80,
          81,
          82,
          83,
          84,
          85,
          86,
          87,
          88,
          89,
          90,
          91,
          92,
          93,
          94,
          95,
          96,
          97,
          98,
          99,
          100,
          101,
          102,
          103,
          104,
          105,
          106,
          107,
          108,
          109,
          110,
          111,
          112,
          113,
          114,
          115,
          116,
          117,
          118,
          119,
          120,
          121,
          122,
          123,
          124,
          125,
          126,
          127,
          128,
          129,
          130,
          131,
          132,
          133,
          134,
          135,
          136,
          137,
          138,
          139,
          140,
          141,
          142,
          143,
          144,
          145,
          146,
          147,
          148,
          149,
          150,
          151,
          152,
          153,
          154,
          155,
          156,
          157,
          158,
          159,
          160,
          161,
          162,
          163,
          164,
          165,
          166,
          167,
          168,
          169,
          170,
          171,
          172,
          173,
          174,
          175,
          176,
          177,
          178,
          179,
          180,
          181,
          182,
          183,
          184,
          185,
          186,
          187,
          188,
          189,
          190,
          191,
          192,
          193,
          194,
          195,
          196,
          197,
          198,
          199,
          200,
          201,
          202,
          203,
          204,
          205,
          206,
          207,
          208,
          209,
          210,
          211,
          212,
          213,
          214,
          215,
          216,
          217,
          218,
          219,
          220,
          221,
          222,
          223,
          224,
          225,
          226,
          227,
          228,
          229,
          230,
          231,
          232,
          233,
          234,
          235,
          236,
          237,
          238,
          239,
          240,
          241,
          242,
          243,
          244,
          245,
          246,
          247,
          248,
          249,
          250,
          251,
          252,
          253,
          254,
          255,
          256,
          257,
          258,
          259,
          260,
          261,
          262,
          263,
          264,
          265,
          266,
          267,
          268,
          269,
          270,
          271,
          272,
          273,
          274,
          275,
          276,
          277,
          278,
          279,
          280,
          281,
          282,
          283,
          284,
          285,
          286,
          287,
          288,
          289,
          290,
          291,
          292,
          293,
          294,
          295,
          296,
          297,
          298,
          299,
          300,
          301,
          302,
          303,
          304,
          305,
          306,
          307,
          308,
          309,
          310,
          311,
          312,
          313,
          314,
          315,
          316,
          317,
          318,
          319,
          320,
          321,
          322,
          323,
          324,
          325,
          326,
          327,
          328,
          329,
          330,
          331,
          332,
          333,
          334,
          335,
          336,
          337,
          338,
          339,
          340,
          341,
          342,
          343,
          344,
          345,
          346,
          347,
          348,
          349,
          350,
          351,
          352,
          353,
          354,
          355,
          356,
          357,
          358,
          359,
          360,
          361,
          362,
          363,
          364,
          365,
          366,
          367,
          368,
          369,
          370,
          371,
          372,
          373,
          374,
          375,
          376,
          377,
          378,
          379,
          380,
          381,
          382,
          383,
          384,
          385,
          386,
          387,
          388,
          389,
          390,
          391,
          392,
          393,
          394,
          395,
          396,
          397,
          398,
          399,
          400,
          401,
          402,
          403,
          404,
          405,
          406,
          407,
          408,
          409,
          410
        ],
        "AcquisitionTime": [
          "135132.987500",
          "135134.477500",
          "135135.967500",
          "135137.457500",
          "135138.947500",
          "135140.437500",
          "135141.927500",
          "135143.417500",
          "135144.907500",
          "135146.397500",
          "135147.887500",
          "135149.377500",
          "135150.867500",
          "135152.357500",
          "135153.847500",
          "135155.337500",
          "135156.827500",
          "135158.317500",
          "135159.807500",
          "135201.297500",
          "135202.787500",
          "135204.277500",
          "135205.767500",
          "135207.257500",
          "135208.747500",
          "135210.237500",
          "135211.727500",
          "135213.217500",
          "135214.707500",
          "135216.197500",
          "135217.687500",
          "135219.177500",
          "135220.667500",
          "135222.157500",
          "135223.647500",
          "135225.137500",
          "135226.627500",
          "135228.117500",
          "135229.607500",
          "135231.097500",
          "135232.587500",
          "135234.077500",
          "135235.567500",
          "135237.057500",
          "135238.547500",
          "135240.037500",
          "135241.527500",
          "135243.017500",
          "135244.507500",
          "135245.997500",
          "135247.487500",
          "135248.977500",
          "135250.467500",
          "135251.957500",
          "135253.447500",
          "135254.937500",
          "135256.427500",
          "135257.917500",
          "135259.407500",
          "135300.897500",
          "135302.387500",
          "135303.877500",
          "135305.367500",
          "135306.857500",
          "135308.347500",
          "135309.837500",
          "135311.327500",
          "135312.817500",
          "135314.307500",
          "135315.797500",
          "135317.287500",
          "135318.777500",
          "135320.267500",
          "135321.757500",
          "135323.247500",
          "135324.737500",
          "135326.227500",
          "135327.717500",
          "135329.207500",
          "135330.697500",
          "135332.187500",
          "135333.677500",
          "135335.167500",
          "135336.657500",
          "135338.147500",
          "135339.637500",
          "135341.127500",
          "135342.617500",
          "135344.107500",
          "135345.597500",
          "135347.087500",
          "135348.577500",
          "135350.067500",
          "135351.557500",
          "135353.047500",
          "135354.537500",
          "135356.027500",
          "135357.517500",
          "135359.007500",
          "135400.497500",
          "135401.987500",
          "135403.477500",
          "135404.967500",
          "135406.457500",
          "135407.947500",
          "135409.437500",
          "135410.927500",
          "135412.417500",
          "135413.907500",
          "135415.397500",
          "135416.887500",
          "135418.377500",
          "135419.867500",
          "135421.357500",
          "135422.847500",
          "135424.337500",
          "135425.827500",
          "135427.317500",
          "135428.807500",
          "135430.297500",
          "135431.787500",
          "135433.277500",
          "135434.767500",
          "135436.257500",
          "135437.747500",
          "135439.237500",
          "135440.727500",
          "135442.217500",
          "135443.707500",
          "135445.197500",
          "135446.687500",
          "135448.177500",
          "135449.667500",
          "135451.157500",
          "135452.647500",
          "135454.137500",
          "135455.627500",
          "135457.117500",
          "135458.607500",
          "135500.097500",
          "135501.587500",
          "135503.077500",
          "135504.567500",
          "135506.057500",
          "135507.547500",
          "135509.037500",
          "135510.527500",
          "135512.017500",
          "135513.507500",
          "135514.997500",
          "135516.487500",
          "135517.977500",
          "135519.467500",
          "135520.957500",
          "135522.447500",
          "135523.937500",
          "135525.427500",
          "135526.917500",
          "135528.407500",
          "135529.897500",
          "135531.387500",
          "135532.877500",
          "135534.367500",
          "135535.857500",
          "135537.347500",
          "135538.837500",
          "135540.327500",
          "135541.817500",
          "135543.307500",
          "135544.797500",
          "135546.287500",
          "135547.777500",
          "135549.267500",
          "135550.757500",
          "135552.247500",
          "135553.737500",
          "135555.227500",
          "135556.717500",
          "135558.207500",
          "135559.697500",
          "135601.187500",
          "135602.677500",
          "135604.167500",
          "135605.657500",
          "135607.147500",
          "135608.637500",
          "135610.127500",
          "135611.617500",
          "135613.107500",
          "135614.597500",
          "135616.087500",
          "135617.577500",
          "135619.067500",
          "135620.557500",
          "135622.047500",
          "135623.537500",
          "135625.027500",
          "135626.517500",
          "135628.007500",
          "135629.497500",
          "135630.987500",
          "135632.477500",
          "135633.967500",
          "135635.457500",
          "135636.947500",
          "135638.437500",
          "135639.927500",
          "135641.417500",
          "135642.907500",
          "135644.397500",
          "135645.887500",
          "135647.377500",
          "135648.867500",
          "135650.357500",
          "135651.847500",
          "135653.337500",
          "135654.827500",
          "135656.317500",
          "135657.807500",
          "135659.297500",
          "135700.787500",
          "135702.277500",
          "135703.767500",
          "135705.257500",
          "135706.747500",
          "135708.237500",
          "135709.727500",
          "135711.217500",
          "135712.707500",
          "135714.197500",
          "135715.687500",
          "135717.177500",
          "135718.667500",
          "135720.157500",
          "135721.647500",
          "135723.137500",
          "135724.627500",
          "135726.117500",
          "135727.607500",
          "135729.097500",
          "135730.587500",
          "135732.077500",
          "135733.567500",
          "135735.057500",
          "135736.547500",
          "135738.037500",
          "135739.527500",
          "135741.017500",
          "135742.507500",
          "135743.997500",
          "135745.487500",
          "135746.977500",
          "135748.467500",
          "135749.957500",
          "135751.447500",
          "135752.937500",
          "135754.427500",
          "135755.917500",
          "135757.407500",
          "135758.897500",
          "135800.387500",
          "135801.877500",
          "135803.367500",
          "135804.857500",
          "135806.347500",
          "135807.837500",
          "135809.327500",
          "135810.817500",
          "135812.307500",
          "135813.797500",
          "135815.287500",
          "135816.777500",
          "135818.267500",
          "135819.757500",
          "135821.247500",
          "135822.737500",
          "135824.227500",
          "135825.717500",
          "135827.207500",
          "135828.697500",
          "135830.187500",
          "135831.677500",
          "135833.167500",
          "135834.657500",
          "135836.147500",
          "135837.637500",
          "135839.127500",
          "135840.617500",
          "135842.107500",
          "135843.597500",
          "135845.087500",
          "135846.577500",
          "135848.067500",
          "135849.557500",
          "135851.047500",
          "135852.537500",
          "135854.027500",
          "135855.517500",
          "135857.007500",
          "135858.497500",
          "135859.987500",
          "135901.477500",
          "135902.967500",
          "135904.457500",
          "135905.947500",
          "135907.437500",
          "135908.927500",
          "135910.417500",
          "135911.907500",
          "135913.397500",
          "135914.887500",
          "135916.377500",
          "135917.867500",
          "135919.357500",
          "135920.847500",
          "135922.337500",
          "135923.827500",
          "135925.317500",
          "135926.807500",
          "135928.297500",
          "135929.787500",
          "135931.277500",
          "135932.767500",
          "135934.257500",
          "135935.747500",
          "135937.237500",
          "135938.727500",
          "135940.217500",
          "135941.707500",
          "135943.197500",
          "135944.687500",
          "135946.177500",
          "135947.667500",
          "135949.157500",
          "135950.647500",
          "135952.137500",
          "135953.627500",
          "135955.117500",
          "135956.607500",
          "135958.097500",
          "135959.587500",
          "140001.077500",
          "140002.567500",
          "140004.057500",
          "140005.547500",
          "140007.037500",
          "140008.527500",
          "140010.017500",
          "140011.507500",
          "140012.997500",
          "140014.487500",
          "140015.977500",
          "140017.467500",
          "140018.957500",
          "140020.447500",
          "140021.937500",
          "140023.427500",
          "140024.917500",
          "140026.407500",
          "140027.897500",
          "140029.387500",
          "140030.877500",
          "140032.367500",
          "140033.857500",
          "140035.347500",
          "140036.837500",
          "140038.327500",
          "140039.817500",
          "140041.307500",
          "140042.797500",
          "140044.287500",
          "140045.777500",
          "140047.267500",
          "140048.757500",
          "140050.247500",
          "140051.737500",
          "140053.227500",
          "140054.717500",
          "140056.207500",
          "140057.697500",
          "140059.187500",
          "140100.677500",
          "140102.167500",
          "140103.657500",
          "140105.147500",
          "140106.637500",
          "140108.127500",
          "140109.617500",
          "140111.107500",
          "140112.597500",
          "140114.087500",
          "140115.577500",
          "140117.067500",
          "140118.557500",
          "140120.047500",
          "140121.537500",
          "140123.027500",
          "140124.517500",
          "140126.007500",
          "140127.497500",
          "140128.987500",
          "140130.477500",
          "140131.967500",
          "140133.457500",
          "140134.947500",
          "140136.437500",
          "140137.927500",
          "140139.417500",
          "140140.907500",
          "140142.397500"
        ],
        "ContentTime": [
          "135253.873000",
          "135253.876000",
          "135253.880000",
          "135253.883000",
          "135253.886000",
          "135253.889000",
          "135253.892000",
          "135253.895000",
          "135253.898000",
          "135253.901000",
          "135253.910000",
          "135253.913000",
          "135253.916000",
          "135253.919000",
          "135253.922000",
          "135253.925000",
          "135253.928000",
          "135253.931000",
          "135253.934000",
          "135253.937000",
          "135253.940000",
          "135253.942000",
          "135253.945000",
          "135253.948000",
          "135253.956000",
          "135253.959000",
          "135253.962000",
          "135313.836000",
          "135313.839000",
          "135313.842000",
          "135313.845000",
          "135313.848000",
          "135313.850000",
          "135313.853000",
          "135313.856000",
          "135313.859000",
          "135313.862000",
          "135313.865000",
          "135313.868000",
          "135313.871000",
          "135313.873000",
          "135313.876000",
          "135313.879000",
          "135313.882000",
          "135313.885000",
          "135313.888000",
          "135313.891000",
          "135333.836000",
          "135333.839000",
          "135333.842000",
          "135333.845000",
          "135333.848000",
          "135333.851000",
          "135333.853000",
          "135333.856000",
          "135333.859000",
          "135333.862000",
          "135333.865000",
          "135333.868000",
          "135333.871000",
          "135333.873000",
          "135333.876000",
          "135333.879000",
          "135333.882000",
          "135333.885000",
          "135333.888000",
          "135333.891000",
          "135353.835000",
          "135353.838000",
          "135353.841000",
          "135353.844000",
          "135353.847000",
          "135353.849000",
          "135353.852000",
          "135353.855000",
          "135353.858000",
          "135353.861000",
          "135353.864000",
          "135353.867000",
          "135353.870000",
          "135353.881000",
          "135353.884000",
          "135353.887000",
          "135353.890000",
          "135353.892000",
          "135353.895000",
          "135353.898000",
          "135353.901000",
          "135433.836000",
          "135433.840000",
          "135433.843000",
          "135433.846000",
          "135433.860000",
          "135433.863000",
          "135433.866000",
          "135433.869000",
          "135433.871000",
          "135433.874000",
          "135433.877000",
          "135433.880000",
          "135433.883000",
          "135433.886000",
          "135433.889000",
          "135433.892000",
          "135433.895000",
          "135433.897000",
          "135433.900000",
          "135433.903000",
          "135433.906000",
          "135433.909000",
          "135433.912000",
          "135433.915000",
          "135433.918000",
          "135433.921000",
          "135433.924000",
          "135433.927000",
          "135433.930000",
          "135433.932000",
          "135433.935000",
          "135433.938000",
          "135513.836000",
          "135513.839000",
          "135513.842000",
          "135513.845000",
          "135513.848000",
          "135513.851000",
          "135513.854000",
          "135513.857000",
          "135513.860000",
          "135513.863000",
          "135513.865000",
          "135513.868000",
          "135513.871000",
          "135513.874000",
          "135513.877000",
          "135513.880000",
          "135513.883000",
          "135513.886000",
          "135513.889000",
          "135513.892000",
          "135513.895000",
          "135513.897000",
          "135513.900000",
          "135513.903000",
          "135513.906000",
          "135513.909000",
          "135513.912000",
          "135553.836000",
          "135553.839000",
          "135553.842000",
          "135553.845000",
          "135553.848000",
          "135553.851000",
          "135553.854000",
          "135553.857000",
          "135553.860000",
          "135553.863000",
          "135553.877000",
          "135553.879000",
          "135553.882000",
          "135553.885000",
          "135553.888000",
          "135553.891000",
          "135553.894000",
          "135553.897000",
          "135553.900000",
          "135553.903000",
          "135553.906000",
          "135553.909000",
          "135553.912000",
          "135553.915000",
          "135553.918000",
          "135553.920000",
          "135553.923000",
          "135633.835000",
          "135633.838000",
          "135633.841000",
          "135633.844000",
          "135633.847000",
          "135633.850000",
          "135633.852000",
          "135633.855000",
          "135633.858000",
          "135633.861000",
          "135633.864000",
          "135633.867000",
          "135633.870000",
          "135633.873000",
          "135633.876000",
          "135633.879000",
          "135633.882000",
          "135633.885000",
          "135633.888000",
          "135633.891000",
          "135633.894000",
          "135633.896000",
          "135633.899000",
          "135633.902000",
          "135633.905000",
          "135633.908000",
          "135633.911000",
          "135713.836000",
          "135713.839000",
          "135713.842000",
          "135713.845000",
          "135713.848000",
          "135713.851000",
          "135713.854000",
          "135713.857000",
          "135713.859000",
          "135713.862000",
          "135713.865000",
          "135713.868000",
          "135713.894000",
          "135713.897000",
          "135713.900000",
          "135713.903000",
