{
  "aor": 0.00027012254901960785,
  "aqi": 0.004890998259803922,
  "bids_meta": {
    "AcquisitionMatrixPE": 104,
    "AcquisitionNumber": 1,
    "AcquisitionTime": "13:40:46.535000",
    "BandwidthPerPixelPhaseEncode": 17.17,
    "BaseResolution": 104,
    "BodyPartExamined": "BRAIN",
    "CogAtlasID": "trm_4c898da401420",
    "ConsistencyInfo": "N4_VE11C_LATEST_20160120",
    "ConversionSoftware": "dcm2niix",
    "ConversionSoftwareVersion": "v1.0.20171215 (OpenJPEG build) GCC7.3.0",
    "DerivedVendorReportedEchoSpacing": 0.000560011,
    "DeviceSerialNumber": "167006",
    "DwellTime": 2.1e-06,
    "EchoTime": 0.037,
    "EchoTrainLength": 104,
    "EffectiveEchoSpacing": 0.000560011,
    "FlipAngle": 52,
    "ImageComments": "Unaliased_MB4_PE3_LB",
    "ImageOrientationPatientDICOM": [
      0.999422,
      0.0334867,
      -0.00586506,
      -0.0336781,
      0.951662,
      -0.305294
    ],
    "ImageType": [
      "ORIGINAL",
      "PRIMARY",
      "M",
      "MB",
      "ND",
      "MOSAIC"
    ],
    "InPlanePhaseEncodingDirectionDICOM": "COL",
    "InstitutionAddress": "Chemin_Queen-Mary_4565_Montreal_District_CA_H3W_1W5",
    "InstitutionName": "IUGM",
    "InstitutionalDepartmentName": "Department",
    "MRAcquisitionType": "2D",
    "MagneticFieldStrength": 3,
    "Manufacturer": "Siemens",
    "ManufacturersModelName": "Prisma_fit",
    "Modality": "MR",
    "MultibandAccelerationFactor": 4,
    "PartialFourier": 1,
    "PatientPosition": "HFS",
    "PercentPhaseFOV": 100,
    "PhaseEncodingDirection": "j-",
    "PhaseEncodingSteps": 104,
    "PhaseResolution": 1,
    "PixelBandwidth": 2290,
    "ProcedureStepDescription": "video5_generic",
    "ProtocolName": "func_task-life2",
    "PulseSequenceDetails": "%CustomerSeq%_cmrr_mbep2d_bold",
    "ReceiveCoilActiveElements": "HC1-7;NC1,2",
    "ReceiveCoilName": "HeadNeck_64",
    "ReconMatrixPE": 104,
    "RepetitionTime": 1.49,
    "SAR": 0.0297286,
    "ScanOptions": "FS",
    "ScanningSequence": "EP",
    "SequenceName": "epfid2d1_104",
    "SequenceVariant": "SK_SS",
    "SeriesDescription": "func_task-life2",
    "SeriesNumber": 9,
    "ShimSetting": [
      633,
      -7164,
      -8844,
      629,
      33,
      119,
      6,
      -16
    ],
    "SliceThickness": 2,
    "SliceTiming": [
      0,
      0.785,
      0.0975,
      0.8825,
      0.1975,
      0.98,
      0.295,
      1.0775,
      0.3925,
      1.1775,
      0.49,
      1.275,
      0.5875,
      1.3725,
      0.6875,
      0,
      0.785,
      0.0975,
      0.8825,
      0.1975,
      0.98,
      0.295,
      1.0775,
      0.3925,
      1.1775,
      0.49,
      1.275,
      0.5875,
      1.3725,
      0.6875,
      0,
      0.785,
      0.0975,
      0.8825,
      0.1975,
      0.98,
      0.295,
      1.0775,
      0.3925,
      1.1775,
      0.49,
      1.275,
      0.5875,
      1.3725,
      0.6875,
      0,
      0.785,
      0.0975,
      0.8825,
      0.1975,
      0.98,
      0.295,
      1.0775,
      0.3925,
      1.1775,
      0.49,
      1.275,
      0.5875,
      1.3725,
      0.6875
    ],
    "SoftwareVersions": "syngo_MR_E11",
    "SpacingBetweenSlices": 2,
    "StationName": "MRC35049",
    "TaskName": "life02",
    "TotalReadoutTime": 0.0576811,
    "TxRefAmp": 210.531,
    "dataset": "<unset>",
    "dcmmeta_affine": [
      [
        -1.9988439083099365,
        -0.0673561692237854,
        0.009283469058573246,
        110.29739379882812
      ],
      [
        -0.06697343289852142,
        1.9033249616622925,
        -0.6106298565864563,
        -64.86056518554688
      ],
      [
        -0.011730114929378033,
        0.6105877757072449,
        1.904480218887329,
        -73.21753692626953
      ],
      [
        0.0,
        0.0,
        0.0,
        1.0
      ]
    ],
    "dcmmeta_reorient_transform": [
      [
        0.0,
        -1.0,
        0.0,
        103.0
      ],
      [
        1.0,
        0.0,
        0.0,
        0.0
      ],
      [
        0.0,
        0.0,
        1.0,
        0.0
      ],
      [
        0.0,
        0.0,
        0.0,
        1.0
      ]
    ],
    "dcmmeta_shape": [
      104,
      104,
      60,
      409
    ],
    "dcmmeta_slice_dim": 2,
    "dcmmeta_version": 0.6,
    "global": {
      "const": {
        "AcquisitionMatrix": [
          104,
          0,
          0,
          104
        ],
        "AngioFlag": "N",
        "BitsAllocated": 16,
        "BitsStored": 16,
        "BodyPartExamined": "BRAIN",
        "Columns": 832,
        "EchoNumbers": 1,
        "EchoTime": 37.0,
        "EchoTrainLength": 104,
        "FlipAngle": 52.0,
        "HighBit": 15,
        "ImageOrientationPatient": [
          0.99942195341419,
          0.03348671579766,
          -0.005865057447,
          -0.0336780839134,
          0.95166245837191,
          -0.305293878074
        ],
        "ImagePositionPatient": [
          -806.42124697031,
          -848.37049802566,
          216.19670383592
        ],
        "ImageType": [
          "ORIGINAL",
          "PRIMARY",
          "M",
          "MB",
          "ND",
          "MOSAIC"
        ],
        "ImagedNucleus": "1H",
        "ImagingFrequency": 123.25925,
        "InPlanePhaseEncodingDirection": "COL",
        "MRAcquisitionType": "2D",
        "MagneticFieldStrength": 3.0,
        "Manufacturer": "SIEMENS",
        "ManufacturerModelName": "Prisma_fit",
        "Modality": "MR",
        "NumberOfAverages": 1.0,
        "NumberOfPhaseEncodingSteps": 104,
        "PercentPhaseFieldOfView": 100.0,
        "PercentSampling": 100.0,
        "PerformedProcedureStepStartTime": "130542.954000",
        "PhotometricInterpretation": "MONOCHROME2",
        "PixelBandwidth": 2290.0,
        "PixelRepresentation": 0,
        "PixelSpacing": [
          2.0,
          2.0
        ],
        "ProtocolName": "func_task-life2",
        "RepetitionTime": 1490.0,
        "Rows": 832,
        "SAR": 0.02972864108985,
        "SamplesPerPixel": 1,
        "ScanOptions": "FS",
        "ScanningSequence": "EP",
        "SequenceName": "epfid2d1_104",
        "SequenceVariant": [
          "SK",
          "SS"
        ],
        "SeriesDescription": "func_task-life2",
        "SeriesNumber": 9,
        "SeriesTime": "134203.562000",
        "SliceLocation": -49.405808688585,
        "SliceThickness": 2.0,
        "SmallestImagePixelValue": 0,
        "SoftwareVersions": "syngo MR E11",
        "SpacingBetweenSlices": 1.9999999968175,
        "SpecificCharacterSet": "ISO_IR 100",
        "StudyID": "1",
        "StudyTime": "130542.877000",
        "TransmitCoilName": "Body",
        "VariableFlipAngleFlag": "N",
        "WindowCenterWidthExplanation": "Algo1",
        "dBdt": 0.0
      },
      "slices": {}
    },
    "modality": "bold",
    "run_id": 2,
    "session_id": "011",
    "subject_id": "03",
    "task_id": "life02",
    "time": {
      "samples": {
        "AcquisitionNumber": [
          1,
          2,
          3,
          4,
          5,
          6,
          7,
          8,
          9,
          10,
          11,
          12,
          13,
          14,
          15,
          16,
          17,
          18,
          19,
          20,
          21,
          22,
          23,
          24,
          25,
          26,
          27,
          28,
          29,
          30,
          31,
          32,
          33,
          34,
          35,
          36,
          37,
          38,
          39,
          40,
          41,
          42,
          43,
          44,
          45,
          46,
          47,
          48,
          49,
          50,
          51,
          52,
          53,
          54,
          55,
          56,
          57,
          58,
          59,
          60,
          61,
          62,
          63,
          64,
          65,
          66,
          67,
          68,
          69,
          70,
          71,
          72,
          73,
          74,
          75,
          76,
          77,
          78,
          79,
          80,
          81,
          82,
          83,
          84,
          85,
          86,
          87,
          88,
          89,
          90,
          91,
          92,
          93,
          94,
          95,
          96,
          97,
          98,
          99,
          100,
          101,
          102,
          103,
          104,
          105,
          106,
          107,
          108,
          109,
          110,
          111,
          112,
          113,
          114,
          115,
          116,
          117,
          118,
          119,
          120,
          121,
          122,
          123,
          124,
          125,
          126,
          127,
          128,
          129,
          130,
          131,
          132,
          133,
          134,
          135,
          136,
          137,
          138,
          139,
          140,
          141,
          142,
          143,
          144,
          145,
          146,
          147,
          148,
          149,
          150,
          151,
          152,
          153,
          154,
          155,
          156,
          157,
          158,
          159,
          160,
          161,
          162,
          163,
          164,
          165,
          166,
          167,
          168,
          169,
          170,
          171,
          172,
          173,
          174,
          175,
          176,
          177,
          178,
          179,
          180,
          181,
          182,
          183,
          184,
          185,
          186,
          187,
          188,
          189,
          190,
          191,
          192,
          193,
          194,
          195,
          196,
          197,
          198,
          199,
          200,
          201,
          202,
          203,
          204,
          205,
          206,
          207,
          208,
          209,
          210,
          211,
          212,
          213,
          214,
          215,
          216,
          217,
          218,
          219,
          220,
          221,
          222,
          223,
          224,
          225,
          226,
          227,
          228,
          229,
          230,
          231,
          232,
          233,
          234,
          235,
          236,
          237,
          238,
          239,
          240,
          241,
          242,
          243,
          244,
          245,
          246,
          247,
          248,
          249,
          250,
          251,
          252,
          253,
          254,
          255,
          256,
          257,
          258,
          259,
          260,
          261,
          262,
          263,
          264,
          265,
          266,
          267,
          268,
          269,
          270,
          271,
          272,
          273,
          274,
          275,
          276,
          277,
          278,
          279,
          280,
          281,
          282,
          283,
          284,
          285,
          286,
          287,
          288,
          289,
          290,
          291,
          292,
          293,
          294,
          295,
          296,
          297,
          298,
          299,
          300,
          301,
          302,
          303,
          304,
          305,
          306,
          307,
          308,
          309,
          310,
          311,
          312,
          313,
          314,
          315,
          316,
          317,
          318,
          319,
          320,
          321,
          322,
          323,
          324,
          325,
          326,
          327,
          328,
          329,
          330,
          331,
          332,
          333,
          334,
          335,
          336,
          337,
          338,
          339,
          340,
          341,
          342,
          343,
          344,
          345,
          346,
          347,
          348,
          349,
          350,
          351,
          352,
          353,
          354,
          355,
          356,
          357,
          358,
          359,
          360,
          361,
          362,
          363,
          364,
          365,
          366,
          367,
          368,
          369,
          370,
          371,
          372,
          373,
          374,
          375,
          376,
          377,
          378,
          379,
          380,
          381,
          382,
          383,
          384,
          385,
          386,
          387,
          388,
          389,
          390,
          391,
          392,
          393,
          394,
          395,
          396,
          397,
          398,
          399,
          400,
          401,
          402,
          403,
          404,
          405,
          406,
          407,
          408,
          409
        ],
        "AcquisitionTime": [
          "134046.535000",
          "134048.025000",
          "134049.515000",
          "134051.005000",
          "134052.495000",
          "134053.985000",
          "134055.475000",
          "134056.965000",
          "134058.455000",
          "134059.945000",
          "134101.435000",
          "134102.925000",
          "134104.415000",
          "134105.905000",
          "134107.395000",
          "134108.885000",
          "134110.375000",
          "134111.865000",
          "134113.355000",
          "134114.845000",
          "134116.335000",
          "134117.825000",
          "134119.315000",
          "134120.805000",
          "134122.295000",
          "134123.785000",
          "134125.275000",
          "134126.765000",
          "134128.255000",
          "134129.745000",
          "134131.235000",
          "134132.725000",
          "134134.215000",
          "134135.705000",
          "134137.195000",
          "134138.685000",
          "134140.175000",
          "134141.665000",
          "134143.155000",
          "134144.645000",
          "134146.135000",
          "134147.625000",
          "134149.115000",
          "134150.605000",
          "134152.095000",
          "134153.585000",
          "134155.075000",
          "134156.565000",
          "134158.055000",
          "134159.545000",
          "134201.035000",
          "134202.525000",
          "134204.015000",
          "134205.505000",
          "134206.995000",
          "134208.485000",
          "134209.975000",
          "134211.465000",
          "134212.955000",
          "134214.445000",
          "134215.935000",
          "134217.425000",
          "134218.915000",
          "134220.405000",
          "134221.895000",
          "134223.385000",
          "134224.875000",
          "134226.365000",
          "134227.855000",
          "134229.345000",
          "134230.835000",
          "134232.325000",
          "134233.815000",
          "134235.305000",
          "134236.795000",
          "134238.285000",
          "134239.775000",
          "134241.265000",
          "134242.755000",
          "134244.245000",
          "134245.735000",
          "134247.225000",
          "134248.715000",
          "134250.205000",
          "134251.695000",
          "134253.185000",
          "134254.675000",
          "134256.165000",
          "134257.655000",
          "134259.145000",
          "134300.635000",
          "134302.125000",
          "134303.615000",
          "134305.105000",
          "134306.595000",
          "134308.085000",
          "134309.575000",
          "134311.065000",
          "134312.555000",
          "134314.045000",
          "134315.535000",
          "134317.025000",
          "134318.515000",
          "134320.005000",
          "134321.495000",
          "134322.985000",
          "134324.475000",
          "134325.965000",
          "134327.455000",
          "134328.945000",
          "134330.435000",
          "134331.925000",
          "134333.415000",
          "134334.905000",
          "134336.395000",
          "134337.885000",
          "134339.375000",
          "134340.865000",
          "134342.355000",
          "134343.845000",
          "134345.335000",
          "134346.825000",
          "134348.315000",
          "134349.805000",
          "134351.295000",
          "134352.785000",
          "134354.275000",
          "134355.765000",
          "134357.255000",
          "134358.745000",
          "134400.235000",
          "134401.725000",
          "134403.215000",
          "134404.705000",
          "134406.195000",
          "134407.685000",
          "134409.175000",
          "134410.665000",
          "134412.155000",
          "134413.645000",
          "134415.135000",
          "134416.625000",
          "134418.115000",
          "134419.605000",
          "134421.095000",
          "134422.585000",
          "134424.075000",
          "134425.565000",
          "134427.055000",
          "134428.545000",
          "134430.035000",
          "134431.525000",
          "134433.015000",
          "134434.505000",
          "134435.995000",
          "134437.485000",
          "134438.975000",
          "134440.465000",
          "134441.955000",
          "134443.445000",
          "134444.935000",
          "134446.425000",
          "134447.915000",
          "134449.405000",
          "134450.895000",
          "134452.385000",
          "134453.875000",
          "134455.365000",
          "134456.855000",
          "134458.345000",
          "134459.835000",
          "134501.325000",
          "134502.815000",
          "134504.305000",
          "134505.795000",
          "134507.285000",
          "134508.775000",
          "134510.265000",
          "134511.755000",
          "134513.245000",
          "134514.735000",
          "134516.225000",
          "134517.715000",
          "134519.205000",
          "134520.695000",
          "134522.185000",
          "134523.675000",
          "134525.165000",
          "134526.655000",
          "134528.145000",
          "134529.635000",
          "134531.125000",
          "134532.615000",
          "134534.105000",
          "134535.595000",
          "134537.085000",
          "134538.575000",
          "134540.065000",
          "134541.555000",
          "134543.045000",
          "134544.535000",
          "134546.025000",
          "134547.515000",
          "134549.005000",
          "134550.495000",
          "134551.985000",
          "134553.475000",
          "134554.965000",
          "134556.455000",
          "134557.945000",
          "134559.435000",
          "134600.925000",
          "134602.415000",
          "134603.905000",
          "134605.395000",
          "134606.885000",
          "134608.375000",
          "134609.865000",
          "134611.355000",
          "134612.845000",
          "134614.335000",
          "134615.825000",
          "134617.315000",
          "134618.805000",
          "134620.295000",
          "134621.785000",
          "134623.275000",
          "134624.765000",
          "134626.255000",
          "134627.745000",
          "134629.235000",
          "134630.725000",
          "134632.215000",
          "134633.705000",
          "134635.195000",
          "134636.685000",
          "134638.175000",
          "134639.665000",
          "134641.155000",
          "134642.645000",
          "134644.135000",
          "134645.625000",
          "134647.115000",
          "134648.605000",
          "134650.095000",
          "134651.585000",
          "134653.075000",
          "134654.565000",
          "134656.055000",
          "134657.545000",
          "134659.035000",
          "134700.525000",
          "134702.015000",
          "134703.505000",
          "134704.995000",
          "134706.485000",
          "134707.975000",
          "134709.465000",
          "134710.955000",
          "134712.445000",
          "134713.935000",
          "134715.425000",
          "134716.915000",
          "134718.405000",
          "134719.895000",
          "134721.385000",
          "134722.875000",
          "134724.365000",
          "134725.855000",
          "134727.345000",
          "134728.835000",
          "134730.325000",
          "134731.815000",
          "134733.305000",
          "134734.795000",
          "134736.285000",
          "134737.775000",
          "134739.265000",
          "134740.755000",
          "134742.245000",
          "134743.735000",
          "134745.225000",
          "134746.715000",
          "134748.205000",
          "134749.695000",
          "134751.185000",
          "134752.675000",
          "134754.165000",
          "134755.655000",
          "134757.145000",
          "134758.635000",
          "134800.125000",
          "134801.615000",
          "134803.105000",
          "134804.595000",
          "134806.085000",
          "134807.575000",
          "134809.065000",
          "134810.555000",
          "134812.045000",
          "134813.535000",
          "134815.025000",
          "134816.515000",
          "134818.005000",
          "134819.495000",
          "134820.985000",
          "134822.475000",
          "134823.965000",
          "134825.455000",
          "134826.945000",
          "134828.435000",
          "134829.925000",
          "134831.415000",
          "134832.905000",
          "134834.395000",
          "134835.885000",
          "134837.375000",
          "134838.865000",
          "134840.355000",
          "134841.845000",
          "134843.335000",
          "134844.825000",
          "134846.315000",
          "134847.805000",
          "134849.295000",
          "134850.785000",
          "134852.275000",
          "134853.765000",
          "134855.255000",
          "134856.745000",
          "134858.235000",
          "134859.725000",
          "134901.215000",
          "134902.705000",
          "134904.195000",
          "134905.685000",
          "134907.175000",
          "134908.665000",
          "134910.155000",
          "134911.645000",
          "134913.135000",
          "134914.625000",
          "134916.115000",
          "134917.605000",
          "134919.095000",
          "134920.585000",
          "134922.075000",
          "134923.565000",
          "134925.055000",
          "134926.545000",
          "134928.035000",
          "134929.525000",
          "134931.015000",
          "134932.505000",
          "134933.995000",
          "134935.485000",
          "134936.975000",
          "134938.465000",
          "134939.955000",
          "134941.445000",
          "134942.935000",
          "134944.425000",
          "134945.915000",
          "134947.405000",
          "134948.895000",
          "134950.385000",
          "134951.875000",
          "134953.365000",
          "134954.855000",
          "134956.345000",
          "134957.835000",
          "134959.325000",
          "135000.815000",
          "135002.305000",
          "135003.795000",
          "135005.285000",
          "135006.775000",
          "135008.265000",
          "135009.755000",
          "135011.245000",
          "135012.735000",
          "135014.225000",
          "135015.715000",
          "135017.205000",
          "135018.695000",
          "135020.185000",
          "135021.675000",
          "135023.165000",
          "135024.655000",
          "135026.145000",
          "135027.635000",
          "135029.125000",
          "135030.615000",
          "135032.105000",
          "135033.595000",
          "135035.085000",
          "135036.575000",
          "135038.065000",
          "135039.555000",
          "135041.045000",
          "135042.535000",
          "135044.025000",
          "135045.515000",
          "135047.005000",
          "135048.495000",
          "135049.985000",
          "135051.475000",
          "135052.965000",
          "135054.455000"
        ],
        "ContentTime": [
          "134203.565000",
          "134203.569000",
          "134203.572000",
          "134203.575000",
          "134203.578000",
          "134203.581000",
          "134203.591000",
          "134203.594000",
          "134203.597000",
          "134203.600000",
          "134203.603000",
          "134203.606000",
          "134203.609000",
          "134203.612000",
          "134203.615000",
          "134203.618000",
          "134203.627000",
          "134203.630000",
          "134203.633000",
          "134203.635000",
          "134203.638000",
          "134203.641000",
          "134203.644000",
          "134203.647000",
          "134223.537000",
          "134223.540000",
          "134223.543000",
          "134223.546000",
          "134223.549000",
          "134223.552000",
          "134223.555000",
          "134223.564000",
          "134223.567000",
          "134223.570000",
          "134223.573000",
          "134223.576000",
          "134223.579000",
          "134223.582000",
          "134223.585000",
          "134223.588000",
          "134223.591000",
          "134223.593000",
          "134223.596000",
          "134223.599000",
          "134223.602000",
          "134243.536000",
          "134243.539000",
          "134243.542000",
          "134243.545000",
          "134243.548000",
          "134243.551000",
          "134243.554000",
          "134243.557000",
          "134243.559000",
          "134243.562000",
          "134243.565000",
          "134243.578000",
          "134243.581000",
          "134243.584000",
          "134243.586000",
          "134243.589000",
          "134243.592000",
          "134243.595000",
          "134243.598000",
          "134243.601000",
          "134303.536000",
          "134303.539000",
          "134303.548000",
          "134303.551000",
          "134303.554000",
          "134303.557000",
          "134303.560000",
          "134303.563000",
          "134303.566000",
          "134303.569000",
          "134303.572000",
          "134303.575000",
          "134303.578000",
          "134303.581000",
          "134303.584000",
          "134303.586000",
          "134303.589000",
          "134303.592000",
          "134303.595000",
          "134303.598000",
          "134343.536000",
          "134343.539000",
          "134343.542000",
          "134343.560000",
          "134343.563000",
          "134343.566000",
          "134343.569000",
          "134343.572000",
          "134343.575000",
          "134343.578000",
          "134343.581000",
          "134343.586000",
          "134343.589000",
          "134343.592000",
          "134343.595000",
          "134343.598000",
          "134343.601000",
          "134343.604000",
          "134343.607000",
          "134343.610000",
          "134343.613000",
          "134343.615000",
          "134343.618000",
          "134343.621000",
          "134343.624000",
          "134343.627000",
          "134343.630000",
          "134343.633000",
          "134343.636000",
          "134343.639000",
          "134343.642000",
          "134343.644000",
          "134343.647000",
          "134423.537000",
          "134423.540000",
          "134423.543000",
          "134423.546000",
          "134423.549000",
          "134423.552000",
          "134423.555000",
          "134423.558000",
          "134423.561000",
          "134423.563000",
          "134423.566000",
          "134423.590000",
          "134423.593000",
          "134423.596000",
          "134423.599000",
          "134423.602000",
          "134423.605000",
          "134423.608000",
          "134423.611000",
          "134423.614000",
          "134423.617000",
          "134423.620000",
          "134423.623000",
          "134423.626000",
          "134423.629000",
          "134423.632000",
          "134423.635000",
          "134503.536000",
          "134503.539000",
          "134503.542000",
          "134503.545000",
          "134503.548000",
          "134503.551000",
          "134503.554000",
          "134503.557000",
          "134503.560000",
          "134503.563000",
          "134503.565000",
          "134503.568000",
          "134503.571000",
          "134503.574000",
          "134503.577000",
          "134503.580000",
          "134503.583000",
          "134503.586000",
          "134503.589000",
          "134503.592000",
          "134503.595000",
          "134503.598000",
          "134503.601000",
          "134503.603000",
          "134503.606000",
          "134503.609000",
          "134503.612000",
          "134543.536000",
          "134543.539000",
          "134543.542000",
          "134543.545000",
          "134543.548000",
          "134543.551000",
          "134543.554000",
          "134543.557000",
          "134543.560000",
          "134543.562000",
          "134543.565000",
          "134543.569000",
          "134543.573000",
          "134543.576000",
          "134543.579000",
          "134543.582000",
          "134543.584000",
          "134543.587000",
          "134543.590000",
          "134543.593000",
          "134543.596000",
          "134543.599000",
          "134543.602000",
          "134543.605000",
          "134543.608000",
          "134543.611000",
          "134623.537000",
          "134623.540000",
          "134623.543000",
          "134623.546000",
          "134623.549000",
          "134623.552000",
          "134623.555000",
          "134623.558000",
          "134623.560000",
          "134623.563000",
          "134623.566000",
          "134623.569000",
          "134623.572000",
          "134623.575000",
          "134623.578000",
          "134623.581000",
          "134623.584000",
          "134623.587000",
          "134623.590000",
          "134623.593000",
