{
  "aor": 0.00043330769230769226,
  "aqi": 0.005800689076923076,
  "bids_meta": {
    "AcquisitionMatrixPE": 104,
    "AcquisitionNumber": 1,
    "AcquisitionTime": "14:12:37.370000",
    "BandwidthPerPixelPhaseEncode": 17.17,
    "BaseResolution": 104,
    "BodyPartExamined": "BRAIN",
    "CogAtlasID": "trm_4c898da401420",
    "ConsistencyInfo": "N4_VE11C_LATEST_20160120",
    "ConversionSoftware": "dcm2niix",
    "ConversionSoftwareVersion": "v1.0.20171215 (OpenJPEG build) GCC7.3.0",
    "DerivedVendorReportedEchoSpacing": 0.000560011,
    "DeviceSerialNumber": "167006",
    "DwellTime": 2.1e-06,
    "EchoTime": 0.037,
    "EchoTrainLength": 104,
    "EffectiveEchoSpacing": 0.000560011,
    "FlipAngle": 52,
    "ImageComments": "Unaliased_MB4_PE3_LB",
    "ImageOrientationPatientDICOM": [
      0.999422,
      0.0334867,
      -0.00586506,
      -0.0336781,
      0.951662,
      -0.305294
    ],
    "ImageType": [
      "ORIGINAL",
      "PRIMARY",
      "M",
      "MB",
      "ND",
      "MOSAIC"
    ],
    "InPlanePhaseEncodingDirectionDICOM": "COL",
    "InstitutionAddress": "Chemin_Queen-Mary_4565_Montreal_District_CA_H3W_1W5",
    "InstitutionName": "IUGM",
    "InstitutionalDepartmentName": "Department",
    "MRAcquisitionType": "2D",
    "MagneticFieldStrength": 3,
    "Manufacturer": "Siemens",
    "ManufacturersModelName": "Prisma_fit",
    "Modality": "MR",
    "MultibandAccelerationFactor": 4,
    "PartialFourier": 1,
    "PatientPosition": "HFS",
    "PercentPhaseFOV": 100,
    "PhaseEncodingDirection": "j-",
    "PhaseEncodingSteps": 104,
    "PhaseResolution": 1,
    "PixelBandwidth": 2290,
    "ProcedureStepDescription": "video5_generic",
    "ProtocolName": "func_task-life5",
    "PulseSequenceDetails": "%CustomerSeq%_cmrr_mbep2d_bold",
    "ReceiveCoilActiveElements": "HC1-7;NC1,2",
    "ReceiveCoilName": "HeadNeck_64",
    "ReconMatrixPE": 104,
    "RepetitionTime": 1.49,
    "SAR": 0.0297221,
    "ScanOptions": "FS",
    "ScanningSequence": "EP",
    "SequenceName": "epfid2d1_104",
    "SequenceVariant": "SK_SS",
    "SeriesDescription": "func_task-life5",
    "SeriesNumber": 15,
    "ShimSetting": [
      633,
      -7164,
      -8844,
      629,
      33,
      119,
      6,
      -16
    ],
    "SliceThickness": 2,
    "SliceTiming": [
      0,
      0.7825,
      0.0975,
      0.8825,
      0.195,
      0.98,
      0.2925,
      1.0775,
      0.3925,
      1.175,
      0.49,
      1.2725,
      0.5875,
      1.3725,
      0.685,
      0,
      0.7825,
      0.0975,
      0.8825,
      0.195,
      0.98,
      0.2925,
      1.0775,
      0.3925,
      1.175,
      0.49,
      1.2725,
      0.5875,
      1.3725,
      0.685,
      0,
      0.7825,
      0.0975,
      0.8825,
      0.195,
      0.98,
      0.2925,
      1.0775,
      0.3925,
      1.175,
      0.49,
      1.2725,
      0.5875,
      1.3725,
      0.685,
      0,
      0.7825,
      0.0975,
      0.8825,
      0.195,
      0.98,
      0.2925,
      1.0775,
      0.3925,
      1.175,
      0.49,
      1.2725,
      0.5875,
      1.3725,
      0.685
    ],
    "SoftwareVersions": "syngo_MR_E11",
    "SpacingBetweenSlices": 2,
    "StationName": "MRC35049",
    "TaskName": "life05",
    "TotalReadoutTime": 0.0576811,
    "TxRefAmp": 210.531,
    "dataset": "<unset>",
    "dcmmeta_affine": [
      [
        -1.9988439083099365,
        -0.0673561692237854,
        0.009283469058573246,
        110.29739379882812
      ],
      [
        -0.06697343289852142,
        1.9033249616622925,
        -0.6106298565864563,
        -64.86056518554688
      ],
      [
        -0.011730114929378033,
        0.6105877757072449,
        1.904480218887329,
        -73.21753692626953
      ],
      [
        0.0,
        0.0,
        0.0,
        1.0
      ]
    ],
    "dcmmeta_reorient_transform": [
      [
        0.0,
        -1.0,
        0.0,
        103.0
      ],
      [
        1.0,
        0.0,
        0.0,
        0.0
      ],
      [
        0.0,
        0.0,
        1.0,
        0.0
      ],
      [
        0.0,
        0.0,
        0.0,
        1.0
      ]
    ],
    "dcmmeta_shape": [
      104,
      104,
      60,
      391
    ],
    "dcmmeta_slice_dim": 2,
    "dcmmeta_version": 0.6,
    "global": {
      "const": {
        "AcquisitionMatrix": [
          104,
          0,
          0,
          104
        ],
        "AngioFlag": "N",
        "BitsAllocated": 16,
        "BitsStored": 16,
        "BodyPartExamined": "BRAIN",
        "Columns": 832,
        "EchoNumbers": 1,
        "EchoTime": 37.0,
        "EchoTrainLength": 104,
        "FlipAngle": 52.0,
        "HighBit": 15,
        "ImageOrientationPatient": [
          0.99942195341419,
          0.03348671579766,
          -0.005865057447,
          -0.0336780839134,
          0.95166245837191,
          -0.305293878074
        ],
        "ImagePositionPatient": [
          -806.42124697031,
          -848.37049802566,
          216.19670383592
        ],
        "ImageType": [
          "ORIGINAL",
          "PRIMARY",
          "M",
          "MB",
          "ND",
          "MOSAIC"
        ],
        "ImagedNucleus": "1H",
        "ImagingFrequency": 123.259262,
        "InPlanePhaseEncodingDirection": "COL",
        "MRAcquisitionType": "2D",
        "MagneticFieldStrength": 3.0,
        "Manufacturer": "SIEMENS",
        "ManufacturerModelName": "Prisma_fit",
        "Modality": "MR",
        "NumberOfAverages": 1.0,
        "NumberOfPhaseEncodingSteps": 104,
        "PercentPhaseFieldOfView": 100.0,
        "PercentSampling": 100.0,
        "PerformedProcedureStepStartTime": "130542.954000",
        "PhotometricInterpretation": "MONOCHROME2",
        "PixelBandwidth": 2290.0,
        "PixelRepresentation": 0,
        "PixelSpacing": [
          2.0,
          2.0
        ],
        "ProtocolName": "func_task-life5",
        "RepetitionTime": 1490.0,
        "Rows": 832,
        "SAR": 0.02972205867469,
        "SamplesPerPixel": 1,
        "ScanOptions": "FS",
        "ScanningSequence": "EP",
        "SequenceName": "epfid2d1_104",
        "SequenceVariant": [
          "SK",
          "SS"
        ],
        "SeriesDescription": "func_task-life5",
        "SeriesNumber": 15,
        "SeriesTime": "141403.586000",
        "SliceLocation": -49.405808688585,
        "SliceThickness": 2.0,
        "SmallestImagePixelValue": 0,
        "SoftwareVersions": "syngo MR E11",
        "SpacingBetweenSlices": 1.9999999968175,
        "SpecificCharacterSet": "ISO_IR 100",
        "StudyID": "1",
        "StudyTime": "130542.877000",
        "TransmitCoilName": "Body",
        "VariableFlipAngleFlag": "N",
        "WindowCenterWidthExplanation": "Algo1",
        "dBdt": 0.0
      },
      "slices": {}
    },
    "modality": "bold",
    "run_id": 2,
    "session_id": "011",
    "subject_id": "03",
    "task_id": "life05",
    "time": {
      "samples": {
        "AcquisitionNumber": [
          1,
          2,
          3,
          4,
          5,
          6,
          7,
          8,
          9,
          10,
          11,
          12,
          13,
          14,
          15,
          16,
          17,
          18,
          19,
          20,
          21,
          22,
          23,
          24,
          25,
          26,
          27,
          28,
          29,
          30,
          31,
          32,
          33,
          34,
          35,
          36,
          37,
          38,
          39,
          40,
          41,
          42,
          43,
          44,
          45,
          46,
          47,
          48,
          49,
          50,
          51,
          52,
          53,
          54,
          55,
          56,
          57,
          58,
          59,
          60,
          61,
          62,
          63,
          64,
          65,
          66,
          67,
          68,
          69,
          70,
          71,
          72,
          73,
          74,
          75,
          76,
          77,
          78,
          79,
          80,
          81,
          82,
          83,
          84,
          85,
          86,
          87,
          88,
          89,
          90,
          91,
          92,
          93,
          94,
          95,
          96,
          97,
          98,
          99,
          100,
          101,
          102,
          103,
          104,
          105,
          106,
          107,
          108,
          109,
          110,
          111,
          112,
          113,
          114,
          115,
          116,
          117,
          118,
          119,
          120,
          121,
          122,
          123,
          124,
          125,
          126,
          127,
          128,
          129,
          130,
          131,
          132,
          133,
          134,
          135,
          136,
          137,
          138,
          139,
          140,
          141,
          142,
          143,
          144,
          145,
          146,
          147,
          148,
          149,
          150,
          151,
          152,
          153,
          154,
          155,
          156,
          157,
          158,
          159,
          160,
          161,
          162,
          163,
          164,
          165,
          166,
          167,
          168,
          169,
          170,
          171,
          172,
          173,
          174,
          175,
          176,
          177,
          178,
          179,
          180,
          181,
          182,
          183,
          184,
          185,
          186,
          187,
          188,
          189,
          190,
          191,
          192,
          193,
          194,
          195,
          196,
          197,
          198,
          199,
          200,
          201,
          202,
          203,
          204,
          205,
          206,
          207,
          208,
          209,
          210,
          211,
          212,
          213,
          214,
          215,
          216,
          217,
          218,
          219,
          220,
          221,
          222,
          223,
          224,
          225,
          226,
          227,
          228,
          229,
          230,
          231,
          232,
          233,
          234,
          235,
          236,
          237,
          238,
          239,
          240,
          241,
          242,
          243,
          244,
          245,
          246,
          247,
          248,
          249,
          250,
          251,
          252,
          253,
          254,
          255,
          256,
          257,
          258,
          259,
          260,
          261,
          262,
          263,
          264,
          265,
          266,
          267,
          268,
          269,
          270,
          271,
          272,
          273,
          274,
          275,
          276,
          277,
          278,
          279,
          280,
          281,
          282,
          283,
          284,
          285,
          286,
          287,
          288,
          289,
          290,
          291,
          292,
          293,
          294,
          295,
          296,
          297,
          298,
          299,
          300,
          301,
          302,
          303,
          304,
          305,
          306,
          307,
          308,
          309,
          310,
          311,
          312,
          313,
          314,
          315,
          316,
          317,
          318,
          319,
          320,
          321,
          322,
          323,
          324,
          325,
          326,
          327,
          328,
          329,
          330,
          331,
          332,
          333,
          334,
          335,
          336,
          337,
          338,
          339,
          340,
          341,
          342,
          343,
          344,
          345,
          346,
          347,
          348,
          349,
          350,
          351,
          352,
          353,
          354,
          355,
          356,
          357,
          358,
          359,
          360,
          361,
          362,
          363,
          364,
          365,
          366,
          367,
          368,
          369,
          370,
          371,
          372,
          373,
          374,
          375,
          376,
          377,
          378,
          379,
          380,
          381,
          382,
          383,
          384,
          385,
          386,
          387,
          388,
          389,
          390,
          391
        ],
        "AcquisitionTime": [
          "141237.370000",
          "141238.860000",
          "141240.350000",
          "141241.840000",
          "141243.330000",
          "141244.820000",
          "141246.310000",
          "141247.800000",
          "141249.290000",
          "141250.780000",
          "141252.270000",
          "141253.760000",
          "141255.250000",
          "141256.740000",
          "141258.230000",
          "141259.720000",
          "141301.210000",
          "141302.700000",
          "141304.190000",
          "141305.680000",
          "141307.170000",
          "141308.660000",
          "141310.150000",
          "141311.640000",
          "141313.130000",
          "141314.620000",
          "141316.110000",
          "141317.600000",
          "141319.090000",
          "141320.580000",
          "141322.070000",
          "141323.560000",
          "141325.050000",
          "141326.540000",
          "141328.030000",
          "141329.520000",
          "141331.010000",
          "141332.500000",
          "141333.990000",
          "141335.480000",
          "141336.970000",
          "141338.460000",
          "141339.950000",
          "141341.440000",
          "141342.930000",
          "141344.420000",
          "141345.910000",
          "141347.400000",
          "141348.890000",
          "141350.380000",
          "141351.870000",
          "141353.360000",
          "141354.850000",
          "141356.340000",
          "141357.830000",
          "141359.320000",
          "141400.810000",
          "141402.300000",
          "141403.790000",
          "141405.280000",
          "141406.770000",
          "141408.260000",
          "141409.750000",
          "141411.240000",
          "141412.730000",
          "141414.220000",
          "141415.710000",
          "141417.200000",
          "141418.690000",
          "141420.180000",
          "141421.670000",
          "141423.160000",
          "141424.650000",
          "141426.140000",
          "141427.630000",
          "141429.120000",
          "141430.610000",
          "141432.100000",
          "141433.590000",
          "141435.080000",
          "141436.570000",
          "141438.060000",
          "141439.550000",
          "141441.040000",
          "141442.530000",
          "141444.020000",
          "141445.510000",
          "141447.000000",
          "141448.490000",
          "141449.980000",
          "141451.470000",
          "141452.960000",
          "141454.450000",
          "141455.940000",
          "141457.430000",
          "141458.920000",
          "141500.410000",
          "141501.900000",
          "141503.390000",
          "141504.880000",
          "141506.370000",
          "141507.860000",
          "141509.350000",
          "141510.840000",
          "141512.330000",
          "141513.820000",
          "141515.310000",
          "141516.800000",
          "141518.290000",
          "141519.780000",
          "141521.270000",
          "141522.760000",
          "141524.250000",
          "141525.740000",
          "141527.230000",
          "141528.720000",
          "141530.210000",
          "141531.700000",
          "141533.190000",
          "141534.680000",
          "141536.170000",
          "141537.660000",
          "141539.150000",
          "141540.640000",
          "141542.130000",
          "141543.620000",
          "141545.110000",
          "141546.600000",
          "141548.090000",
          "141549.580000",
          "141551.070000",
          "141552.560000",
          "141554.050000",
          "141555.540000",
          "141557.030000",
          "141558.520000",
          "141600.010000",
          "141601.500000",
          "141602.990000",
          "141604.480000",
          "141605.970000",
          "141607.460000",
          "141608.950000",
          "141610.440000",
          "141611.930000",
          "141613.420000",
          "141614.910000",
          "141616.400000",
          "141617.890000",
          "141619.380000",
          "141620.870000",
          "141622.360000",
          "141623.850000",
          "141625.340000",
          "141626.830000",
          "141628.320000",
          "141629.810000",
          "141631.300000",
          "141632.790000",
          "141634.280000",
          "141635.770000",
          "141637.260000",
          "141638.750000",
          "141640.240000",
          "141641.730000",
          "141643.220000",
          "141644.710000",
          "141646.200000",
          "141647.690000",
          "141649.180000",
          "141650.670000",
          "141652.160000",
          "141653.650000",
          "141655.140000",
          "141656.630000",
          "141658.120000",
          "141659.610000",
          "141701.100000",
          "141702.590000",
          "141704.080000",
          "141705.570000",
          "141707.060000",
          "141708.550000",
          "141710.040000",
          "141711.530000",
          "141713.020000",
          "141714.510000",
          "141716.000000",
          "141717.490000",
          "141718.980000",
          "141720.470000",
          "141721.960000",
          "141723.450000",
          "141724.940000",
          "141726.430000",
          "141727.920000",
          "141729.410000",
          "141730.900000",
          "141732.390000",
          "141733.880000",
          "141735.370000",
          "141736.860000",
          "141738.350000",
          "141739.840000",
          "141741.330000",
          "141742.820000",
          "141744.310000",
          "141745.800000",
          "141747.290000",
          "141748.780000",
          "141750.270000",
          "141751.760000",
          "141753.250000",
          "141754.740000",
          "141756.230000",
          "141757.720000",
          "141759.210000",
          "141800.700000",
          "141802.190000",
          "141803.680000",
          "141805.170000",
          "141806.660000",
          "141808.150000",
          "141809.640000",
          "141811.130000",
          "141812.620000",
          "141814.110000",
          "141815.600000",
          "141817.090000",
          "141818.580000",
          "141820.070000",
          "141821.560000",
          "141823.050000",
          "141824.540000",
          "141826.030000",
          "141827.520000",
          "141829.010000",
          "141830.500000",
          "141831.990000",
          "141833.480000",
          "141834.970000",
          "141836.460000",
          "141837.950000",
          "141839.440000",
          "141840.930000",
          "141842.420000",
          "141843.910000",
          "141845.400000",
          "141846.890000",
          "141848.380000",
          "141849.870000",
          "141851.360000",
          "141852.850000",
          "141854.340000",
          "141855.830000",
          "141857.320000",
          "141858.810000",
          "141900.300000",
          "141901.790000",
          "141903.280000",
          "141904.770000",
          "141906.260000",
          "141907.750000",
          "141909.240000",
          "141910.730000",
          "141912.220000",
          "141913.710000",
          "141915.200000",
          "141916.690000",
          "141918.180000",
          "141919.670000",
          "141921.160000",
          "141922.650000",
          "141924.140000",
          "141925.630000",
          "141927.120000",
          "141928.610000",
          "141930.100000",
          "141931.590000",
          "141933.080000",
          "141934.570000",
          "141936.060000",
          "141937.550000",
          "141939.040000",
          "141940.530000",
          "141942.020000",
          "141943.510000",
          "141945.000000",
          "141946.490000",
          "141947.980000",
          "141949.470000",
          "141950.960000",
          "141952.450000",
          "141953.940000",
          "141955.430000",
          "141956.920000",
          "141958.410000",
          "141959.900000",
          "142001.390000",
          "142002.880000",
          "142004.370000",
          "142005.860000",
          "142007.350000",
          "142008.840000",
          "142010.330000",
          "142011.820000",
          "142013.310000",
          "142014.800000",
          "142016.290000",
          "142017.780000",
          "142019.270000",
          "142020.760000",
          "142022.250000",
          "142023.740000",
          "142025.230000",
          "142026.720000",
          "142028.210000",
          "142029.700000",
          "142031.190000",
          "142032.680000",
          "142034.170000",
          "142035.660000",
          "142037.150000",
          "142038.640000",
          "142040.130000",
          "142041.620000",
          "142043.110000",
          "142044.600000",
          "142046.090000",
          "142047.580000",
          "142049.070000",
          "142050.560000",
          "142052.050000",
          "142053.540000",
          "142055.030000",
          "142056.520000",
          "142058.010000",
          "142059.500000",
          "142100.990000",
          "142102.480000",
          "142103.970000",
          "142105.460000",
          "142106.950000",
          "142108.440000",
          "142109.930000",
          "142111.420000",
          "142112.910000",
          "142114.400000",
          "142115.890000",
          "142117.380000",
          "142118.870000",
          "142120.360000",
          "142121.850000",
          "142123.340000",
          "142124.830000",
          "142126.320000",
          "142127.810000",
          "142129.300000",
          "142130.790000",
          "142132.280000",
          "142133.770000",
          "142135.260000",
          "142136.750000",
          "142138.240000",
          "142139.730000",
          "142141.220000",
          "142142.710000",
          "142144.200000",
          "142145.690000",
          "142147.180000",
          "142148.670000",
          "142150.160000",
          "142151.650000",
          "142153.140000",
          "142154.630000",
          "142156.120000",
          "142157.610000",
          "142159.100000",
          "142200.590000",
          "142202.080000",
          "142203.570000",
          "142205.060000",
          "142206.550000",
          "142208.040000",
          "142209.530000",
          "142211.020000",
          "142212.510000",
          "142214.000000",
          "142215.490000",
          "142216.980000",
          "142218.470000"
        ],
        "ContentTime": [
          "141403.590000",
          "141403.593000",
          "141403.596000",
          "141403.599000",
          "141403.602000",
          "141403.605000",
          "141403.608000",
          "141403.611000",
          "141403.614000",
          "141403.616000",
          "141403.619000",
          "141403.622000",
          "141403.631000",
          "141403.634000",
          "141403.637000",
          "141403.640000",
          "141403.642000",
          "141403.645000",
          "141403.648000",
          "141403.651000",
          "141403.654000",
          "141403.657000",
          "141403.660000",
          "141403.663000",
          "141403.666000",
          "141403.669000",
          "141403.672000",
          "141403.675000",
          "141403.678000",
          "141403.681000",
          "141403.683000",
          "141403.686000",
          "141403.689000",
          "141423.537000",
          "141423.540000",
          "141423.543000",
          "141423.546000",
          "141423.549000",
          "141423.552000",
          "141423.555000",
          "141423.558000",
          "141423.561000",
          "141423.563000",
          "141423.566000",
          "141423.569000",
          "141423.572000",
          "141423.575000",
          "141423.578000",
          "141423.581000",
          "141423.584000",
          "141423.587000",
          "141423.590000",
          "141423.593000",
          "141443.537000",
          "141443.540000",
          "141443.543000",
          "141443.546000",
          "141443.549000",
          "141443.552000",
          "141443.555000",
          "141443.557000",
          "141443.560000",
          "141443.563000",
          "141443.566000",
          "141443.569000",
          "141443.572000",
          "141443.575000",
          "141443.578000",
          "141443.581000",
          "141443.584000",
          "141443.587000",
          "141443.590000",
          "141443.593000",
          "141503.536000",
          "141503.539000",
          "141503.542000",
          "141503.545000",
          "141503.551000",
          "141503.554000",
          "141503.557000",
          "141503.560000",
          "141503.563000",
          "141503.566000",
          "141503.569000",
          "141503.572000",
          "141503.574000",
          "141503.577000",
          "141503.580000",
          "141503.583000",
          "141503.586000",
          "141503.589000",
          "141503.592000",
          "141503.595000",
          "141503.598000",
          "141543.536000",
          "141543.539000",
          "141543.542000",
          "141543.545000",
          "141543.548000",
          "141543.551000",
          "141543.554000",
          "141543.557000",
          "141543.560000",
          "141543.563000",
          "141543.565000",
          "141543.568000",
          "141543.571000",
          "141543.574000",
          "141543.577000",
          "141543.580000",
          "141543.583000",
          "141543.586000",
          "141543.589000",
          "141543.592000",
          "141543.595000",
          "141543.598000",
          "141543.601000",
          "141543.604000",
          "141543.607000",
          "141543.610000",
          "141543.612000",
          "141543.615000",
          "141543.618000",
          "141543.621000",
          "141623.537000",
          "141623.540000",
          "141623.543000",
          "141623.546000",
          "141623.549000",
          "141623.552000",
          "141623.555000",
          "141623.558000",
          "141623.561000",
          "141623.564000",
          "141623.567000",
          "141623.570000",
          "141623.573000",
          "141623.575000",
          "141623.578000",
          "141623.581000",
          "141623.584000",
          "141623.587000",
          "141623.590000",
          "141623.593000",
          "141623.596000",
          "141623.599000",
          "141623.602000",
          "141623.605000",
          "141623.608000",
          "141623.611000",
          "141623.614000",
          "141703.537000",
          "141703.540000",
          "141703.543000",
          "141703.546000",
          "141703.556000",
          "141703.559000",
          "141703.562000",
          "141703.565000",
          "141703.568000",
          "141703.571000",
          "141703.574000",
          "141703.577000",
          "141703.580000",
          "141703.583000",
          "141703.586000",
          "141703.589000",
          "141703.592000",
          "141703.595000",
          "141703.598000",
          "141703.601000",
          "141703.603000",
          "141703.606000",
          "141703.609000",
          "141703.612000",
          "141703.615000",
          "141703.618000",
          "141703.621000",
          "141743.536000",
          "141743.539000",
          "141743.542000",
          "141743.545000",
          "141743.548000",
          "141743.551000",
          "141743.554000",
          "141743.557000",
          "141743.560000",
          "141743.563000",
          "141743.566000",
          "141743.569000",
          "141743.572000",
          "141743.575000",
          "141743.577000",
          "141743.580000",
          "141743.583000",
          "141743.586000",
          "141743.589000",
          "141743.592000",
          "141743.595000",
          "141743.598000",
          "141743.601000",
          "141743.604000",
          "141743.607000",
          "141743.610000",
          "141743.612000",
          "141803.536000",
          "141803.539000",
          "141803.542000",
          "141803.545000",
          "141803.548000",
          "141803.551000",
          "141803.554000",
          "141803.557000",
          "141803.560000",
          "141803.563000",
          "141803.566000",
          "141803.569000",
          "141803.572000",
          "141843.537000",
          "141843.540000",
          "141843.543000",
          "141843.546000",
          "141843.549000",
          "141843.552000",
          "141843.555000",
          "141843.558000",
          "141843.561000",
          "141843.564000",
          "141843.567000",
          "141843.570000",
          "141843.573000",
          "141843.576000",
          "141843.579000",
          "141843.582000",
          "141843.585000",
          "141843.588000",
          "141843.590000",
          "141843.593000",
          "141843.596000",
          "141843.599000",
          "141843.602000",
          "141843.605000",
          "141843.608000",
          "141843.611000",
          "141843.614000",
          "141923.537000",
