{
  "aor": 0.0006013235294117647,
  "aqi": 0.010570179950980392,
  "bids_meta": {
    "AcquisitionMatrixPE": 104,
    "AcquisitionNumber": 1,
    "AcquisitionTime": "12:45:32.830000",
    "BandwidthPerPixelPhaseEncode": 17.17,
    "BaseResolution": 104,
    "BodyPartExamined": "BRAIN",
    "CogAtlasID": "trm_4c898da401420",
    "CoilString": "HC1-7;NC1_2",
    "ConsistencyInfo": "N4_VE11C_LATEST_20160120",
    "ConversionSoftware": "dcm2niix",
    "ConversionSoftwareVersion": "v1.0.20190720  (JP2:OpenJPEG) GCC7.3.0",
    "DerivedVendorReportedEchoSpacing": 0.000560011,
    "DeviceSerialNumber": "167006",
    "DwellTime": 2.1e-06,
    "EchoTime": 0.037,
    "EchoTrainLength": 104,
    "EffectiveEchoSpacing": 0.000560011,
    "FlipAngle": 52,
    "ImageComments": "Unaliased_MB4_PE3_LB",
    "ImageOrientationPatientDICOM": [
      0.997893,
      0.012542,
      -0.0636633,
      -0.0215999,
      0.989393,
      -0.143652
    ],
    "ImageType": [
      "ORIGINAL",
      "PRIMARY",
      "M",
      "MB",
      "ND",
      "MOSAIC"
    ],
    "ImagingFrequency": 123.259,
    "InPlanePhaseEncodingDirectionDICOM": "COL",
    "InstitutionAddress": "Chemin_Queen-Mary_4565_Montreal_District_CA_H3W_1W5",
    "InstitutionName": "IUGM",
    "InstitutionalDepartmentName": "Department",
    "MRAcquisitionType": "2D",
    "MagneticFieldStrength": 3,
    "Manufacturer": "Siemens",
    "ManufacturersModelName": "Prisma_fit",
    "Modality": "MR",
    "MultibandAccelerationFactor": 4,
    "PartialFourier": 1,
    "PatientPosition": "HFS",
    "PercentPhaseFOV": 100,
    "PhaseEncodingDirection": "j",
    "PhaseEncodingSteps": 104,
    "PhaseResolution": 1,
    "PixelBandwidth": 2290,
    "ProcedureStepDescription": "video5_generic",
    "ProtocolName": "func_task-figures10",
    "PulseSequenceDetails": "%CustomerSeq%_cmrr_mbep2d_bold",
    "ReceiveCoilActiveElements": "HC1-7;NC1,2",
    "ReceiveCoilName": "HeadNeck_64",
    "ReconMatrixPE": 104,
    "RepetitionTime": 1.49,
    "SAR": 0.0346461,
    "ScanOptions": "FS",
    "ScanningSequence": "EP",
    "SequenceName": "epfid2d1_104",
    "SequenceVariant": "SK_SS",
    "SeriesDescription": "func_task-figures10",
    "SeriesNumber": 22,
    "ShimSetting": [
      584,
      -7264,
      -8840,
      541,
      -90,
      -275,
      34,
      51
    ],
    "SliceThickness": 2,
    "SliceTiming": [
      0,
      0.7825,
      0.0975,
      0.8825,
      0.195,
      0.98,
      0.2925,
      1.0775,
      0.3925,
      1.175,
      0.49,
      1.2725,
      0.5875,
      1.3725,
      0.685,
      0,
      0.7825,
      0.0975,
      0.8825,
      0.195,
      0.98,
      0.2925,
      1.0775,
      0.3925,
      1.175,
      0.49,
      1.2725,
      0.5875,
      1.3725,
      0.685,
      0,
      0.7825,
      0.0975,
      0.8825,
      0.195,
      0.98,
      0.2925,
      1.0775,
      0.3925,
      1.175,
      0.49,
      1.2725,
      0.5875,
      1.3725,
      0.685,
      0,
      0.7825,
      0.0975,
      0.8825,
      0.195,
      0.98,
      0.2925,
      1.0775,
      0.3925,
      1.175,
      0.49,
      1.2725,
      0.5875,
      1.3725,
      0.685
    ],
    "SoftwareVersions": "syngo_MR_E11",
    "SpacingBetweenSlices": 2,
    "StationName": "MRC35049",
    "TaskName": "figures10",
    "TotalReadoutTime": 0.0576811,
    "TxRefAmp": 220.275,
    "WipMemBlock": "045c6926-58ae-468a-9c9b-d91b9cb2126b||Sequence: R016 ve11c/master r/e634e98; Dec 19 2017 11:00:25 by eja",
    "dataset": "<unset>",
    "dcmmeta_affine": [
      [
        -1.9957852363586426,
        -0.043199751526117325,
        -0.12237261235713959,
        106.80506896972656
      ],
      [
        -0.025084098801016808,
        1.9787850379943848,
        -0.2894483208656311,
        -85.28421783447266
      ],
      [
        -0.1273265928030014,
        0.28730353713035583,
        1.9751569032669067,
        -39.93731689453125
      ],
      [
        0.0,
        0.0,
        0.0,
        1.0
      ]
    ],
    "dcmmeta_reorient_transform": [
      [
        0.0,
        -1.0,
        0.0,
        103.0
      ],
      [
        1.0,
        0.0,
        0.0,
        0.0
      ],
      [
        0.0,
        0.0,
        1.0,
        0.0
      ],
      [
        0.0,
        0.0,
        0.0,
        1.0
      ]
    ],
    "dcmmeta_shape": [
      104,
      104,
      60,
      409
    ],
    "dcmmeta_slice_dim": 2,
    "dcmmeta_version": 0.6,
    "global": {
      "const": {
        "AcquisitionMatrix": [
          104,
          0,
          0,
          104
        ],
        "AngioFlag": "N",
        "BitsAllocated": 16,
        "BitsStored": 16,
        "BodyPartExamined": "BRAIN",
        "Columns": 832,
        "EchoNumbers": 1,
        "EchoTime": 37.0,
        "EchoTrainLength": 104,
        "FlipAngle": 52.0,
        "HighBit": 15,
        "ImageOrientationPatient": [
          0.99789262012407,
          0.01254204983735,
          -0.0636632993788,
          -0.0215998752565,
          0.98939254857251,
          -0.1436517671945
        ],
        "ImagePositionPatient": [
          -813.09661043981,
          -847.93903553063,
          140.5803145424
        ],
        "ImageType": [
          "ORIGINAL",
          "PRIMARY",
          "M",
          "MB",
          "ND",
          "MOSAIC"
        ],
        "ImagedNucleus": "1H",
        "ImagingFrequency": 123.259227,
        "InPlanePhaseEncodingDirection": "COL",
        "MRAcquisitionType": "2D",
        "MagneticFieldStrength": 3.0,
        "Manufacturer": "SIEMENS",
        "ManufacturerModelName": "Prisma_fit",
        "Modality": "MR",
        "NumberOfAverages": 1.0,
        "NumberOfPhaseEncodingSteps": 104,
        "PercentPhaseFieldOfView": 100.0,
        "PercentSampling": 100.0,
        "PerformedProcedureStepStartTime": "113619.367000",
        "PhotometricInterpretation": "MONOCHROME2",
        "PixelBandwidth": 2290.0,
        "PixelRepresentation": 0,
        "PixelSpacing": [
          2.0,
          2.0
        ],
        "ProtocolName": "func_task-figures10",
        "RepetitionTime": 1490.0,
        "Rows": 832,
        "SAR": 0.03464607939074,
        "SamplesPerPixel": 1,
        "ScanOptions": "FS",
        "ScanningSequence": "EP",
        "SequenceName": "epfid2d1_104",
        "SequenceVariant": [
          "SK",
          "SS"
        ],
        "SeriesDescription": "func_task-figures10",
        "SeriesNumber": 22,
        "SeriesTime": "124700.238000",
        "SliceLocation": -33.633554785041,
        "SliceThickness": 2.0,
        "SmallestImagePixelValue": 0,
        "SoftwareVersions": "syngo MR E11",
        "SpacingBetweenSlices": 1.9999999890322,
        "SpecificCharacterSet": "ISO_IR 100",
        "StudyID": "1",
        "StudyTime": "113619.296000",
        "TransmitCoilName": "Body",
        "VariableFlipAngleFlag": "N",
        "WindowCenterWidthExplanation": "Algo1",
        "dBdt": 0.0
      },
      "slices": {}
    },
    "modality": "bold",
    "run_id": 2,
    "session_id": "011",
    "subject_id": "04",
    "task_id": "figures10",
    "time": {
      "samples": {
        "AcquisitionNumber": [
          1,
          2,
          3,
          4,
          5,
          6,
          7,
          8,
          9,
          10,
          11,
          12,
          13,
          14,
          15,
          16,
          17,
          18,
          19,
          20,
          21,
          22,
          23,
          24,
          25,
          26,
          27,
          28,
          29,
          30,
          31,
          32,
          33,
          34,
          35,
          36,
          37,
          38,
          39,
          40,
          41,
          42,
          43,
          44,
          45,
          46,
          47,
          48,
          49,
          50,
          51,
          52,
          53,
          54,
          55,
          56,
          57,
          58,
          59,
          60,
          61,
          62,
          63,
          64,
          65,
          66,
          67,
          68,
          69,
          70,
          71,
          72,
          73,
          74,
          75,
          76,
          77,
          78,
          79,
          80,
          81,
          82,
          83,
          84,
          85,
          86,
          87,
          88,
          89,
          90,
          91,
          92,
          93,
          94,
          95,
          96,
          97,
          98,
          99,
          100,
          101,
          102,
          103,
          104,
          105,
          106,
          107,
          108,
          109,
          110,
          111,
          112,
          113,
          114,
          115,
          116,
          117,
          118,
          119,
          120,
          121,
          122,
          123,
          124,
          125,
          126,
          127,
          128,
          129,
          130,
          131,
          132,
          133,
          134,
          135,
          136,
          137,
          138,
          139,
          140,
          141,
          142,
          143,
          144,
          145,
          146,
          147,
          148,
          149,
          150,
          151,
          152,
          153,
          154,
          155,
          156,
          157,
          158,
          159,
          160,
          161,
          162,
          163,
          164,
          165,
          166,
          167,
          168,
          169,
          170,
          171,
          172,
          173,
          174,
          175,
          176,
          177,
          178,
          179,
          180,
          181,
          182,
          183,
          184,
          185,
          186,
          187,
          188,
          189,
          190,
          191,
          192,
          193,
          194,
          195,
          196,
          197,
          198,
          199,
          200,
          201,
          202,
          203,
          204,
          205,
          206,
          207,
          208,
          209,
          210,
          211,
          212,
          213,
          214,
          215,
          216,
          217,
          218,
          219,
          220,
          221,
          222,
          223,
          224,
          225,
          226,
          227,
          228,
          229,
          230,
          231,
          232,
          233,
          234,
          235,
          236,
          237,
          238,
          239,
          240,
          241,
          242,
          243,
          244,
          245,
          246,
          247,
          248,
          249,
          250,
          251,
          252,
          253,
          254,
          255,
          256,
          257,
          258,
          259,
          260,
          261,
          262,
          263,
          264,
          265,
          266,
          267,
          268,
          269,
          270,
          271,
          272,
          273,
          274,
          275,
          276,
          277,
          278,
          279,
          280,
          281,
          282,
          283,
          284,
          285,
          286,
          287,
          288,
          289,
          290,
          291,
          292,
          293,
          294,
          295,
          296,
          297,
          298,
          299,
          300,
          301,
          302,
          303,
          304,
          305,
          306,
          307,
          308,
          309,
          310,
          311,
          312,
          313,
          314,
          315,
          316,
          317,
          318,
          319,
          320,
          321,
          322,
          323,
          324,
          325,
          326,
          327,
          328,
          329,
          330,
          331,
          332,
          333,
          334,
          335,
          336,
          337,
          338,
          339,
          340,
          341,
          342,
          343,
          344,
          345,
          346,
          347,
          348,
          349,
          350,
          351,
          352,
          353,
          354,
          355,
          356,
          357,
          358,
          359,
          360,
          361,
          362,
          363,
          364,
          365,
          366,
          367,
          368,
          369,
          370,
          371,
          372,
          373,
          374,
          375,
          376,
          377,
          378,
          379,
          380,
          381,
          382,
          383,
          384,
          385,
          386,
          387,
          388,
          389,
          390,
          391,
          392,
          393,
          394,
          395,
          396,
          397,
          398,
          399,
          400,
          401,
          402,
          403,
          404,
          405,
          406,
          407,
          408,
          409
        ],
        "AcquisitionTime": [
          "124532.830000",
          "124534.320000",
          "124535.810000",
          "124537.300000",
          "124538.790000",
          "124540.280000",
          "124541.770000",
          "124543.260000",
          "124544.750000",
          "124546.240000",
          "124547.730000",
          "124549.220000",
          "124550.710000",
          "124552.200000",
          "124553.690000",
          "124555.180000",
          "124556.670000",
          "124558.160000",
          "124559.650000",
          "124601.140000",
          "124602.630000",
          "124604.120000",
          "124605.610000",
          "124607.100000",
          "124608.590000",
          "124610.080000",
          "124611.570000",
          "124613.060000",
          "124614.550000",
          "124616.040000",
          "124617.530000",
          "124619.020000",
          "124620.510000",
          "124622.000000",
          "124623.490000",
          "124624.980000",
          "124626.470000",
          "124627.960000",
          "124629.450000",
          "124630.940000",
          "124632.430000",
          "124633.920000",
          "124635.410000",
          "124636.900000",
          "124638.390000",
          "124639.880000",
          "124641.370000",
          "124642.860000",
          "124644.350000",
          "124645.840000",
          "124647.330000",
          "124648.820000",
          "124650.310000",
          "124651.800000",
          "124653.290000",
          "124654.780000",
          "124656.270000",
          "124657.760000",
          "124659.250000",
          "124700.740000",
          "124702.230000",
          "124703.720000",
          "124705.210000",
          "124706.700000",
          "124708.190000",
          "124709.680000",
          "124711.170000",
          "124712.660000",
          "124714.150000",
          "124715.640000",
          "124717.130000",
          "124718.620000",
          "124720.110000",
          "124721.600000",
          "124723.090000",
          "124724.580000",
          "124726.070000",
          "124727.560000",
          "124729.050000",
          "124730.540000",
          "124732.030000",
          "124733.520000",
          "124735.010000",
          "124736.500000",
          "124737.990000",
          "124739.480000",
          "124740.970000",
          "124742.460000",
          "124743.950000",
          "124745.440000",
          "124746.930000",
          "124748.420000",
          "124749.910000",
          "124751.400000",
          "124752.890000",
          "124754.380000",
          "124755.870000",
          "124757.360000",
          "124758.850000",
          "124800.340000",
          "124801.830000",
          "124803.320000",
          "124804.810000",
          "124806.300000",
          "124807.790000",
          "124809.280000",
          "124810.770000",
          "124812.260000",
          "124813.750000",
          "124815.240000",
          "124816.730000",
          "124818.220000",
          "124819.710000",
          "124821.200000",
          "124822.690000",
          "124824.180000",
          "124825.670000",
          "124827.160000",
          "124828.650000",
          "124830.140000",
          "124831.630000",
          "124833.120000",
          "124834.610000",
          "124836.100000",
          "124837.590000",
          "124839.080000",
          "124840.570000",
          "124842.060000",
          "124843.550000",
          "124845.040000",
          "124846.530000",
          "124848.020000",
          "124849.510000",
          "124851.000000",
          "124852.490000",
          "124853.980000",
          "124855.470000",
          "124856.960000",
          "124858.450000",
          "124859.940000",
          "124901.430000",
          "124902.920000",
          "124904.410000",
          "124905.900000",
          "124907.390000",
          "124908.880000",
          "124910.370000",
          "124911.860000",
          "124913.350000",
          "124914.840000",
          "124916.330000",
          "124917.820000",
          "124919.310000",
          "124920.800000",
          "124922.290000",
          "124923.780000",
          "124925.270000",
          "124926.760000",
          "124928.250000",
          "124929.740000",
          "124931.230000",
          "124932.720000",
          "124934.210000",
          "124935.700000",
          "124937.190000",
          "124938.680000",
          "124940.170000",
          "124941.660000",
          "124943.150000",
          "124944.640000",
          "124946.130000",
          "124947.620000",
          "124949.110000",
          "124950.600000",
          "124952.090000",
          "124953.580000",
          "124955.070000",
          "124956.560000",
          "124958.050000",
          "124959.540000",
          "125001.030000",
          "125002.520000",
          "125004.010000",
          "125005.500000",
          "125006.990000",
          "125008.480000",
          "125009.970000",
          "125011.460000",
          "125012.950000",
          "125014.440000",
          "125015.930000",
          "125017.420000",
          "125018.910000",
          "125020.400000",
          "125021.890000",
          "125023.380000",
          "125024.870000",
          "125026.360000",
          "125027.850000",
          "125029.340000",
          "125030.830000",
          "125032.320000",
          "125033.810000",
          "125035.300000",
          "125036.790000",
          "125038.280000",
          "125039.770000",
          "125041.260000",
          "125042.750000",
          "125044.240000",
          "125045.730000",
          "125047.220000",
          "125048.710000",
          "125050.200000",
          "125051.690000",
          "125053.180000",
          "125054.670000",
          "125056.160000",
          "125057.650000",
          "125059.140000",
          "125100.630000",
          "125102.120000",
          "125103.610000",
          "125105.100000",
          "125106.590000",
          "125108.080000",
          "125109.570000",
          "125111.060000",
          "125112.550000",
          "125114.040000",
          "125115.530000",
          "125117.020000",
          "125118.510000",
          "125120.000000",
          "125121.490000",
          "125122.980000",
          "125124.470000",
          "125125.960000",
          "125127.450000",
          "125128.940000",
          "125130.430000",
          "125131.920000",
          "125133.410000",
          "125134.900000",
          "125136.390000",
          "125137.880000",
          "125139.370000",
          "125140.860000",
          "125142.350000",
          "125143.840000",
          "125145.330000",
          "125146.820000",
          "125148.310000",
          "125149.800000",
          "125151.290000",
          "125152.780000",
          "125154.270000",
          "125155.760000",
          "125157.250000",
          "125158.740000",
          "125200.230000",
          "125201.720000",
          "125203.210000",
          "125204.700000",
          "125206.190000",
          "125207.680000",
          "125209.170000",
          "125210.660000",
          "125212.150000",
          "125213.640000",
          "125215.130000",
          "125216.620000",
          "125218.110000",
          "125219.600000",
          "125221.090000",
          "125222.580000",
          "125224.070000",
          "125225.560000",
          "125227.050000",
          "125228.540000",
          "125230.030000",
          "125231.520000",
          "125233.010000",
          "125234.500000",
          "125235.990000",
          "125237.480000",
          "125238.970000",
          "125240.460000",
          "125241.950000",
          "125243.440000",
          "125244.930000",
          "125246.420000",
          "125247.910000",
          "125249.400000",
          "125250.890000",
          "125252.380000",
          "125253.870000",
          "125255.360000",
          "125256.850000",
          "125258.340000",
          "125259.830000",
          "125301.320000",
          "125302.810000",
          "125304.300000",
          "125305.790000",
          "125307.280000",
          "125308.770000",
          "125310.260000",
          "125311.750000",
          "125313.240000",
          "125314.730000",
          "125316.220000",
          "125317.710000",
          "125319.200000",
          "125320.690000",
          "125322.180000",
          "125323.670000",
          "125325.160000",
          "125326.650000",
          "125328.140000",
          "125329.630000",
          "125331.120000",
          "125332.610000",
          "125334.100000",
          "125335.590000",
          "125337.080000",
          "125338.570000",
          "125340.060000",
          "125341.550000",
          "125343.040000",
          "125344.530000",
          "125346.020000",
          "125347.510000",
          "125349.000000",
          "125350.490000",
          "125351.980000",
          "125353.470000",
          "125354.960000",
          "125356.450000",
          "125357.940000",
          "125359.430000",
          "125400.920000",
          "125402.410000",
          "125403.900000",
          "125405.390000",
          "125406.880000",
          "125408.370000",
          "125409.860000",
          "125411.350000",
          "125412.840000",
          "125414.330000",
          "125415.820000",
          "125417.310000",
          "125418.800000",
          "125420.290000",
          "125421.780000",
          "125423.270000",
          "125424.760000",
          "125426.250000",
          "125427.740000",
          "125429.230000",
          "125430.720000",
          "125432.210000",
          "125433.700000",
          "125435.190000",
          "125436.680000",
          "125438.170000",
          "125439.660000",
          "125441.150000",
          "125442.640000",
          "125444.130000",
          "125445.620000",
          "125447.110000",
          "125448.600000",
          "125450.090000",
          "125451.580000",
          "125453.070000",
          "125454.560000",
          "125456.050000",
          "125457.540000",
          "125459.030000",
          "125500.520000",
          "125502.010000",
          "125503.500000",
          "125504.990000",
          "125506.480000",
          "125507.970000",
          "125509.460000",
          "125510.950000",
          "125512.440000",
          "125513.930000",
          "125515.420000",
          "125516.910000",
          "125518.400000",
          "125519.890000",
          "125521.380000",
          "125522.870000",
          "125524.360000",
          "125525.850000",
          "125527.340000",
          "125528.830000",
          "125530.320000",
          "125531.810000",
          "125533.300000",
          "125534.790000",
          "125536.280000",
          "125537.770000",
          "125539.260000",
          "125540.750000"
        ],
        "ContentTime": [
          "124700.240000",
          "124700.244000",
          "124700.247000",
          "124700.250000",
          "124700.253000",
          "124700.255000",
          "124700.259000",
          "124700.262000",
          "124700.264000",
          "124700.267000",
          "124700.270000",
          "124700.273000",
          "124700.276000",
          "124700.279000",
          "124700.282000",
          "124700.285000",
          "124700.288000",
          "124700.291000",
          "124700.294000",
          "124700.297000",
          "124700.300000",
          "124700.303000",
          "124700.315000",
          "124700.318000",
          "124700.321000",
          "124700.324000",
          "124700.327000",
          "124700.330000",
          "124700.333000",
          "124700.335000",
          "124700.338000",
          "124700.341000",
          "124720.209000",
          "124720.212000",
          "124720.215000",
          "124720.218000",
          "124720.221000",
          "124720.224000",
          "124720.227000",
          "124720.230000",
          "124720.233000",
          "124720.236000",
          "124720.239000",
          "124720.242000",
          "124720.245000",
          "124720.248000",
          "124720.251000",
          "124720.254000",
          "124720.257000",
          "124720.260000",
          "124720.263000",
          "124720.266000",
          "124720.269000",
          "124740.209000",
          "124740.212000",
          "124740.215000",
          "124740.218000",
          "124740.221000",
          "124740.224000",
          "124740.227000",
          "124740.230000",
          "124740.233000",
          "124740.236000",
          "124740.239000",
          "124740.242000",
          "124740.245000",
          "124740.248000",
          "124740.251000",
          "124740.254000",
          "124740.257000",
          "124740.260000",
          "124740.263000",
          "124740.272000",
          "124800.209000",
          "124800.212000",
          "124800.215000",
          "124800.218000",
          "124800.221000",
          "124800.224000",
          "124800.227000",
          "124800.230000",
          "124800.233000",
          "124800.236000",
          "124800.239000",
          "124800.242000",
          "124800.245000",
          "124800.248000",
          "124800.251000",
          "124800.254000",
          "124800.257000",
          "124800.260000",
          "124800.263000",
          "124800.266000",
          "124840.208000",
          "124840.211000",
          "124840.214000",
          "124840.217000",
          "124840.220000",
          "124840.223000",
          "124840.226000",
          "124840.229000",
          "124840.232000",
          "124840.235000",
          "124840.238000",
          "124840.241000",
          "124840.244000",
          "124840.247000",
          "124840.250000",
          "124840.253000",
          "124840.256000",
          "124840.259000",
          "124840.262000",
          "124840.265000",
          "124840.268000",
          "124840.271000",
          "124840.274000",
          "124840.290000",
          "124840.293000",
          "124840.296000",
          "124840.299000",
          "124840.302000",
          "124840.305000",
          "124840.307000",
          "124840.310000",
          "124840.313000",
          "124920.208000",
          "124920.211000",
          "124920.214000",
          "124920.217000",
          "124920.220000",
          "124920.223000",
          "124920.226000",
          "124920.229000",
          "124920.232000",
          "124920.235000",
          "124920.238000",
          "124920.241000",
          "124920.244000",
          "124920.247000",
          "124920.250000",
          "124920.253000",
          "124920.256000",
          "124920.259000",
          "124920.262000",
          "124920.265000",
          "124920.268000",
          "124920.271000",
          "124920.274000",
          "124920.277000",
          "124920.280000",
          "124920.283000",
          "124920.286000",
          "125000.209000",
          "125000.212000",
          "125000.215000",
          "125000.218000",
          "125000.221000",
          "125000.224000",
          "125000.227000",
          "125000.230000",
          "125000.233000",
          "125000.236000",
          "125000.239000",
          "125000.242000",
          "125000.245000",
          "125000.248000",
          "125000.251000",
          "125000.254000",
          "125000.257000",
          "125000.260000",
          "125000.264000",
          "125000.267000",
          "125000.270000",
          "125000.273000",
          "125000.276000",
          "125000.279000",
          "125000.282000",
          "125000.285000",
          "125040.209000",
          "125040.212000",
          "125040.215000",
          "125040.218000",
          "125040.221000",
          "125040.224000",
          "125040.227000",
          "125040.230000",
          "125040.233000",
          "125040.236000",
          "125040.239000",
          "125040.242000",
          "125040.245000",
          "125040.248000",
          "125040.251000",
          "125040.254000",
          "125040.257000",
          "125040.260000",
          "125040.263000",
          "125040.266000",
          "125040.269000",
          "125040.272000",
          "125040.275000",
          "125040.278000",
          "125040.281000",
          "125040.284000",
          "125040.287000",
          "125120.208000",
          "125120.211000",
          "125120.214000",
          "125120.217000",
          "125120.220000",
