{
  "aor": 0.001073071253071253,
  "aqi": 0.007053267886977887,
  "bids_meta": {
    "AcquisitionMatrixPE": 104,
    "AcquisitionNumber": 1,
    "AcquisitionTime": "12:02:56.682500",
    "BandwidthPerPixelPhaseEncode": 17.17,
    "BaseResolution": 104,
    "BodyPartExamined": "BRAIN",
    "CogAtlasID": "trm_4c898da401420",
    "CoilString": "HC1-7;NC1_2",
    "ConsistencyInfo": "N4_VE11C_LATEST_20160120",
    "ConversionSoftware": "dcm2niix",
    "ConversionSoftwareVersion": "v1.0.20190720  (JP2:OpenJPEG) GCC7.3.0",
    "DerivedVendorReportedEchoSpacing": 0.000560011,
    "DeviceSerialNumber": "167006",
    "DwellTime": 2.1e-06,
    "EchoTime": 0.037,
    "EchoTrainLength": 104,
    "EffectiveEchoSpacing": 0.000560011,
    "FlipAngle": 52,
    "ImageComments": "Unaliased_MB4_PE3_LB",
    "ImageOrientationPatientDICOM": [
      0.998015,
      0.00258791,
      -0.0629288,
      -0.0121936,
      0.98819,
      -0.152745
    ],
    "ImageType": [
      "ORIGINAL",
      "PRIMARY",
      "M",
      "MB",
      "ND",
      "MOSAIC"
    ],
    "ImagingFrequency": 123.259,
    "InPlanePhaseEncodingDirectionDICOM": "COL",
    "InstitutionAddress": "Chemin_Queen-Mary_4565_Montreal_District_CA_H3W_1W5",
    "InstitutionName": "IUGM",
    "InstitutionalDepartmentName": "Department",
    "MRAcquisitionType": "2D",
    "MagneticFieldStrength": 3,
    "Manufacturer": "Siemens",
    "ManufacturersModelName": "Prisma_fit",
    "Modality": "MR",
    "MultibandAccelerationFactor": 4,
    "PartialFourier": 1,
    "PatientPosition": "HFS",
    "PercentPhaseFOV": 100,
    "PhaseEncodingDirection": "j",
    "PhaseEncodingSteps": 104,
    "PhaseResolution": 1,
    "PixelBandwidth": 2290,
    "ProcedureStepDescription": "video5_generic",
    "ProtocolName": "func_task-figures7",
    "PulseSequenceDetails": "%CustomerSeq%_cmrr_mbep2d_bold",
    "ReceiveCoilActiveElements": "HC1-7;NC1,2",
    "ReceiveCoilName": "HeadNeck_64",
    "ReconMatrixPE": 104,
    "RepetitionTime": 1.49,
    "SAR": 0.03427,
    "ScanOptions": "FS",
    "ScanningSequence": "EP",
    "SequenceName": "epfid2d1_104",
    "SequenceVariant": "SK_SS",
    "SeriesDescription": "func_task-figures7",
    "SeriesNumber": 9,
    "ShimSetting": [
      591,
      -7255,
      -8836,
      554,
      -76,
      -317,
      22,
      55
    ],
    "SliceThickness": 2,
    "SliceTiming": [
      0,
      0.785,
      0.0975,
      0.8825,
      0.195,
      0.98,
      0.295,
      1.0775,
      0.3925,
      1.175,
      0.49,
      1.275,
      0.5875,
      1.3725,
      0.685,
      0,
      0.785,
      0.0975,
      0.8825,
      0.195,
      0.98,
      0.295,
      1.0775,
      0.3925,
      1.175,
      0.49,
      1.275,
      0.5875,
      1.3725,
      0.685,
      0,
      0.785,
      0.0975,
      0.8825,
      0.195,
      0.98,
      0.295,
      1.0775,
      0.3925,
      1.175,
      0.49,
      1.275,
      0.5875,
      1.3725,
      0.685,
      0,
      0.785,
      0.0975,
      0.8825,
      0.195,
      0.98,
      0.295,
      1.0775,
      0.3925,
      1.175,
      0.49,
      1.275,
      0.5875,
      1.3725,
      0.685
    ],
    "SoftwareVersions": "syngo_MR_E11",
    "SpacingBetweenSlices": 2,
    "StationName": "MRC35049",
    "TaskName": "figures07",
    "TotalReadoutTime": 0.0576811,
    "TxRefAmp": 219.364,
    "WipMemBlock": "c1cc5dec-b60b-4cdf-b7ec-5c14968c33b8||Sequence: R016 ve11c/master r/e634e98; Dec 19 2017 11:00:25 by eja",
    "dataset": "<unset>",
    "dcmmeta_affine": [
      [
        -1.9960293769836426,
        -0.024387218058109283,
        -0.12358064949512482,
        105.35670471191406
      ],
      [
        -0.005175814498215914,
        1.9763808250427246,
        -0.30641812086105347,
        -85.08367156982422
      ],
      [
        -0.12585756182670593,
        0.3054899573326111,
        1.972520112991333,
        -42.593284606933594
      ],
      [
        0.0,
        0.0,
        0.0,
        1.0
      ]
    ],
    "dcmmeta_reorient_transform": [
      [
        0.0,
        -1.0,
        0.0,
        103.0
      ],
      [
        1.0,
        0.0,
        0.0,
        0.0
      ],
      [
        0.0,
        0.0,
        1.0,
        0.0
      ],
      [
        0.0,
        0.0,
        0.0,
        1.0
      ]
    ],
    "dcmmeta_shape": [
      104,
      104,
      60,
      408
    ],
    "dcmmeta_slice_dim": 2,
    "dcmmeta_version": 0.6,
    "global": {
      "const": {
        "AcquisitionMatrix": [
          104,
          0,
          0,
          104
        ],
        "AngioFlag": "N",
        "BitsAllocated": 16,
        "BitsStored": 16,
        "BodyPartExamined": "BRAIN",
        "Columns": 832,
        "EchoNumbers": 1,
        "EchoTime": 37.0,
        "EchoTrainLength": 104,
        "FlipAngle": 52.0,
        "HighBit": 15,
        "ImageOrientationPatient": [
          0.99801466498993,
          0.00258790724411,
          -0.0629287787991,
          -0.0121936088036,
          0.9881904097345,
          -0.152744983594
        ],
        "ImagePositionPatient": [
          -820.52255243613,
          -839.77016855952,
          145.88268227998
        ],
        "ImageType": [
          "ORIGINAL",
          "PRIMARY",
          "M",
          "MB",
          "ND",
          "MOSAIC"
        ],
        "ImagedNucleus": "1H",
        "ImagingFrequency": 123.25921,
        "InPlanePhaseEncodingDirection": "COL",
        "MRAcquisitionType": "2D",
        "MagneticFieldStrength": 3.0,
        "Manufacturer": "SIEMENS",
        "ManufacturerModelName": "Prisma_fit",
        "Modality": "MR",
        "NumberOfAverages": 1.0,
        "NumberOfPhaseEncodingSteps": 104,
        "PercentPhaseFieldOfView": 100.0,
        "PercentSampling": 100.0,
        "PerformedProcedureStepStartTime": "113619.367000",
        "PhotometricInterpretation": "MONOCHROME2",
        "PixelBandwidth": 2290.0,
        "PixelRepresentation": 0,
        "PixelSpacing": [
          2.0,
          2.0
        ],
        "ProtocolName": "func_task-figures7",
        "RepetitionTime": 1490.0,
        "Rows": 832,
        "SAR": 0.03426997169342,
        "SamplesPerPixel": 1,
        "ScanOptions": "FS",
        "ScanningSequence": "EP",
        "SequenceName": "epfid2d1_104",
        "SequenceVariant": [
          "SK",
          "SS"
        ],
        "SeriesDescription": "func_task-figures7",
        "SeriesNumber": 9,
        "SeriesTime": "120409.850000",
        "SliceLocation": -35.482490755825,
        "SliceThickness": 2.0,
        "SmallestImagePixelValue": 0,
        "SoftwareVersions": "syngo MR E11",
        "SpacingBetweenSlices": 1.9999999969369,
        "SpecificCharacterSet": "ISO_IR 100",
        "StudyID": "1",
        "StudyTime": "113619.296000",
        "TransmitCoilName": "Body",
        "VariableFlipAngleFlag": "N",
        "WindowCenterWidthExplanation": "Algo1",
        "dBdt": 0.0
      },
      "slices": {}
    },
    "modality": "bold",
    "run_id": 2,
    "session_id": "011",
    "subject_id": "04",
    "task_id": "figures07",
    "time": {
      "samples": {
        "AcquisitionNumber": [
          1,
          2,
          3,
          4,
          5,
          6,
          7,
          8,
          9,
          10,
          11,
          12,
          13,
          14,
          15,
          16,
          17,
          18,
          19,
          20,
          21,
          22,
          23,
          24,
          25,
          26,
          27,
          28,
          29,
          30,
          31,
          32,
          33,
          34,
          35,
          36,
          37,
          38,
          39,
          40,
          41,
          42,
          43,
          44,
          45,
          46,
          47,
          48,
          49,
          50,
          51,
          52,
          53,
          54,
          55,
          56,
          57,
          58,
          59,
          60,
          61,
          62,
          63,
          64,
          65,
          66,
          67,
          68,
          69,
          70,
          71,
          72,
          73,
          74,
          75,
          76,
          77,
          78,
          79,
          80,
          81,
          82,
          83,
          84,
          85,
          86,
          87,
          88,
          89,
          90,
          91,
          92,
          93,
          94,
          95,
          96,
          97,
          98,
          99,
          100,
          101,
          102,
          103,
          104,
          105,
          106,
          107,
          108,
          109,
          110,
          111,
          112,
          113,
          114,
          115,
          116,
          117,
          118,
          119,
          120,
          121,
          122,
          123,
          124,
          125,
          126,
          127,
          128,
          129,
          130,
          131,
          132,
          133,
          134,
          135,
          136,
          137,
          138,
          139,
          140,
          141,
          142,
          143,
          144,
          145,
          146,
          147,
          148,
          149,
          150,
          151,
          152,
          153,
          154,
          155,
          156,
          157,
          158,
          159,
          160,
          161,
          162,
          163,
          164,
          165,
          166,
          167,
          168,
          169,
          170,
          171,
          172,
          173,
          174,
          175,
          176,
          177,
          178,
          179,
          180,
          181,
          182,
          183,
          184,
          185,
          186,
          187,
          188,
          189,
          190,
          191,
          192,
          193,
          194,
          195,
          196,
          197,
          198,
          199,
          200,
          201,
          202,
          203,
          204,
          205,
          206,
          207,
          208,
          209,
          210,
          211,
          212,
          213,
          214,
          215,
          216,
          217,
          218,
          219,
          220,
          221,
          222,
          223,
          224,
          225,
          226,
          227,
          228,
          229,
          230,
          231,
          232,
          233,
          234,
          235,
          236,
          237,
          238,
          239,
          240,
          241,
          242,
          243,
          244,
          245,
          246,
          247,
          248,
          249,
          250,
          251,
          252,
          253,
          254,
          255,
          256,
          257,
          258,
          259,
          260,
          261,
          262,
          263,
          264,
          265,
          266,
          267,
          268,
          269,
          270,
          271,
          272,
          273,
          274,
          275,
          276,
          277,
          278,
          279,
          280,
          281,
          282,
          283,
          284,
          285,
          286,
          287,
          288,
          289,
          290,
          291,
          292,
          293,
          294,
          295,
          296,
          297,
          298,
          299,
          300,
          301,
          302,
          303,
          304,
          305,
          306,
          307,
          308,
          309,
          310,
          311,
          312,
          313,
          314,
          315,
          316,
          317,
          318,
          319,
          320,
          321,
          322,
          323,
          324,
          325,
          326,
          327,
          328,
          329,
          330,
          331,
          332,
          333,
          334,
          335,
          336,
          337,
          338,
          339,
          340,
          341,
          342,
          343,
          344,
          345,
          346,
          347,
          348,
          349,
          350,
          351,
          352,
          353,
          354,
          355,
          356,
          357,
          358,
          359,
          360,
          361,
          362,
          363,
          364,
          365,
          366,
          367,
          368,
          369,
          370,
          371,
          372,
          373,
          374,
          375,
          376,
          377,
          378,
          379,
          380,
          381,
          382,
          383,
          384,
          385,
          386,
          387,
          388,
          389,
          390,
          391,
          392,
          393,
          394,
          395,
          396,
          397,
          398,
          399,
          400,
          401,
          402,
          403,
          404,
          405,
          406,
          407,
          408
        ],
        "AcquisitionTime": [
          "120256.682500",
          "120258.172500",
          "120259.662500",
          "120301.152500",
          "120302.642500",
          "120304.132500",
          "120305.622500",
          "120307.112500",
          "120308.602500",
          "120310.092500",
          "120311.582500",
          "120313.072500",
          "120314.562500",
          "120316.052500",
          "120317.542500",
          "120319.032500",
          "120320.522500",
          "120322.012500",
          "120323.502500",
          "120324.992500",
          "120326.482500",
          "120327.972500",
          "120329.462500",
          "120330.952500",
          "120332.442500",
          "120333.932500",
          "120335.422500",
          "120336.912500",
          "120338.402500",
          "120339.892500",
          "120341.382500",
          "120342.872500",
          "120344.362500",
          "120345.852500",
          "120347.342500",
          "120348.832500",
          "120350.322500",
          "120351.812500",
          "120353.302500",
          "120354.792500",
          "120356.282500",
          "120357.772500",
          "120359.262500",
          "120400.752500",
          "120402.242500",
          "120403.732500",
          "120405.222500",
          "120406.712500",
          "120408.202500",
          "120409.692500",
          "120411.182500",
          "120412.672500",
          "120414.162500",
          "120415.652500",
          "120417.142500",
          "120418.632500",
          "120420.122500",
          "120421.612500",
          "120423.102500",
          "120424.592500",
          "120426.082500",
          "120427.572500",
          "120429.062500",
          "120430.552500",
          "120432.042500",
          "120433.532500",
          "120435.022500",
          "120436.512500",
          "120438.002500",
          "120439.492500",
          "120440.982500",
          "120442.472500",
          "120443.962500",
          "120445.452500",
          "120446.942500",
          "120448.432500",
          "120449.922500",
          "120451.412500",
          "120452.902500",
          "120454.392500",
          "120455.882500",
          "120457.372500",
          "120458.862500",
          "120500.352500",
          "120501.842500",
          "120503.332500",
          "120504.822500",
          "120506.312500",
          "120507.802500",
          "120509.292500",
          "120510.782500",
          "120512.272500",
          "120513.762500",
          "120515.252500",
          "120516.742500",
          "120518.232500",
          "120519.722500",
          "120521.212500",
          "120522.702500",
          "120524.192500",
          "120525.682500",
          "120527.172500",
          "120528.662500",
          "120530.152500",
          "120531.642500",
          "120533.132500",
          "120534.622500",
          "120536.112500",
          "120537.602500",
          "120539.092500",
          "120540.582500",
          "120542.072500",
          "120543.562500",
          "120545.052500",
          "120546.542500",
          "120548.032500",
          "120549.522500",
          "120551.012500",
          "120552.502500",
          "120553.992500",
          "120555.482500",
          "120556.972500",
          "120558.462500",
          "120559.952500",
          "120601.442500",
          "120602.932500",
          "120604.422500",
          "120605.912500",
          "120607.402500",
          "120608.892500",
          "120610.382500",
          "120611.872500",
          "120613.362500",
          "120614.852500",
          "120616.342500",
          "120617.832500",
          "120619.322500",
          "120620.812500",
          "120622.302500",
          "120623.792500",
          "120625.282500",
          "120626.772500",
          "120628.262500",
          "120629.752500",
          "120631.242500",
          "120632.732500",
          "120634.222500",
          "120635.712500",
          "120637.202500",
          "120638.692500",
          "120640.182500",
          "120641.672500",
          "120643.162500",
          "120644.652500",
          "120646.142500",
          "120647.632500",
          "120649.122500",
          "120650.612500",
          "120652.102500",
          "120653.592500",
          "120655.082500",
          "120656.572500",
          "120658.062500",
          "120659.552500",
          "120701.042500",
          "120702.532500",
          "120704.022500",
          "120705.512500",
          "120707.002500",
          "120708.492500",
          "120709.982500",
          "120711.472500",
          "120712.962500",
          "120714.452500",
          "120715.942500",
          "120717.432500",
          "120718.922500",
          "120720.412500",
          "120721.902500",
          "120723.392500",
          "120724.882500",
          "120726.372500",
          "120727.862500",
          "120729.352500",
          "120730.842500",
          "120732.332500",
          "120733.822500",
          "120735.312500",
          "120736.802500",
          "120738.292500",
          "120739.782500",
          "120741.272500",
          "120742.762500",
          "120744.252500",
          "120745.742500",
          "120747.232500",
          "120748.722500",
          "120750.212500",
          "120751.702500",
          "120753.192500",
          "120754.682500",
          "120756.172500",
          "120757.662500",
          "120759.152500",
          "120800.642500",
          "120802.132500",
          "120803.622500",
          "120805.112500",
          "120806.602500",
          "120808.092500",
          "120809.582500",
          "120811.072500",
          "120812.562500",
          "120814.052500",
          "120815.542500",
          "120817.032500",
          "120818.522500",
          "120820.012500",
          "120821.502500",
          "120822.992500",
          "120824.482500",
          "120825.972500",
          "120827.462500",
          "120828.952500",
          "120830.442500",
          "120831.932500",
          "120833.422500",
          "120834.912500",
          "120836.402500",
          "120837.892500",
          "120839.382500",
          "120840.872500",
          "120842.362500",
          "120843.852500",
          "120845.342500",
          "120846.832500",
          "120848.322500",
          "120849.812500",
          "120851.302500",
          "120852.792500",
          "120854.282500",
          "120855.772500",
          "120857.262500",
          "120858.752500",
          "120900.242500",
          "120901.732500",
          "120903.222500",
          "120904.712500",
          "120906.202500",
          "120907.692500",
          "120909.182500",
          "120910.672500",
          "120912.162500",
          "120913.652500",
          "120915.142500",
          "120916.632500",
          "120918.122500",
          "120919.612500",
          "120921.102500",
          "120922.592500",
          "120924.082500",
          "120925.572500",
          "120927.062500",
          "120928.552500",
          "120930.042500",
          "120931.532500",
          "120933.022500",
          "120934.512500",
          "120936.002500",
          "120937.492500",
          "120938.982500",
          "120940.472500",
          "120941.962500",
          "120943.452500",
          "120944.942500",
          "120946.432500",
          "120947.922500",
          "120949.412500",
          "120950.902500",
          "120952.392500",
          "120953.882500",
          "120955.372500",
          "120956.862500",
          "120958.352500",
          "120959.842500",
          "121001.332500",
          "121002.822500",
          "121004.312500",
          "121005.802500",
          "121007.292500",
          "121008.782500",
          "121010.272500",
          "121011.762500",
          "121013.252500",
          "121014.742500",
          "121016.232500",
          "121017.722500",
          "121019.212500",
          "121020.702500",
          "121022.192500",
          "121023.682500",
          "121025.172500",
          "121026.662500",
          "121028.152500",
          "121029.642500",
          "121031.132500",
          "121032.622500",
          "121034.112500",
          "121035.602500",
          "121037.092500",
          "121038.582500",
          "121040.072500",
          "121041.562500",
          "121043.052500",
          "121044.542500",
          "121046.032500",
          "121047.522500",
          "121049.012500",
          "121050.502500",
          "121051.992500",
          "121053.482500",
          "121054.972500",
          "121056.462500",
          "121057.952500",
          "121059.442500",
          "121100.932500",
          "121102.422500",
          "121103.912500",
          "121105.402500",
          "121106.892500",
          "121108.382500",
          "121109.872500",
          "121111.362500",
          "121112.852500",
          "121114.342500",
          "121115.832500",
          "121117.322500",
          "121118.812500",
          "121120.302500",
          "121121.792500",
          "121123.282500",
          "121124.772500",
          "121126.262500",
          "121127.752500",
          "121129.242500",
          "121130.732500",
          "121132.222500",
          "121133.712500",
          "121135.202500",
          "121136.692500",
          "121138.182500",
          "121139.672500",
          "121141.162500",
          "121142.652500",
          "121144.142500",
          "121145.632500",
          "121147.122500",
          "121148.612500",
          "121150.102500",
          "121151.592500",
          "121153.082500",
          "121154.572500",
          "121156.062500",
          "121157.552500",
          "121159.042500",
          "121200.532500",
          "121202.022500",
          "121203.512500",
          "121205.002500",
          "121206.492500",
          "121207.982500",
          "121209.472500",
          "121210.962500",
          "121212.452500",
          "121213.942500",
          "121215.432500",
          "121216.922500",
          "121218.412500",
          "121219.902500",
          "121221.392500",
          "121222.882500",
          "121224.372500",
          "121225.862500",
          "121227.352500",
          "121228.842500",
          "121230.332500",
          "121231.822500",
          "121233.312500",
          "121234.802500",
          "121236.292500",
          "121237.782500",
          "121239.272500",
          "121240.762500",
          "121242.252500",
          "121243.742500",
          "121245.232500",
          "121246.722500",
          "121248.212500",
          "121249.702500",
          "121251.192500",
          "121252.682500",
          "121254.172500",
          "121255.662500",
          "121257.152500",
          "121258.642500",
          "121300.132500",
          "121301.622500",
          "121303.112500"
        ],
        "ContentTime": [
          "120409.854000",
          "120409.858000",
          "120409.865000",
          "120409.868000",
          "120409.871000",
          "120409.874000",
          "120409.877000",
          "120409.881000",
          "120409.884000",
          "120409.891000",
          "120409.894000",
          "120409.897000",
          "120409.900000",
          "120409.904000",
          "120409.907000",
          "120409.910000",
          "120409.913000",
          "120409.917000",
          "120409.920000",
          "120409.923000",
          "120429.826000",
          "120429.835000",
          "120429.838000",
          "120429.841000",
          "120429.844000",
          "120429.847000",
          "120429.850000",
          "120429.853000",
          "120429.856000",
          "120429.859000",
          "120429.862000",
          "120429.865000",
          "120429.868000",
          "120429.871000",
          "120429.874000",
          "120429.877000",
          "120429.880000",
          "120429.883000",
          "120429.886000",
          "120429.889000",
          "120449.826000",
          "120449.829000",
          "120449.840000",
          "120449.843000",
          "120449.846000",
          "120449.849000",
          "120449.852000",
          "120449.855000",
          "120449.858000",
          "120449.861000",
          "120449.864000",
          "120449.867000",
          "120449.870000",
          "120449.873000",
          "120449.876000",
          "120449.879000",
          "120449.882000",
          "120449.885000",
          "120449.888000",
          "120449.891000",
          "120509.825000",
          "120509.828000",
          "120509.831000",
          "120509.834000",
          "120509.837000",
          "120509.840000",
          "120509.843000",
          "120509.846000",
          "120509.849000",
          "120509.852000",
          "120509.855000",
          "120509.858000",
          "120509.861000",
          "120509.863000",
          "120509.866000",
          "120509.869000",
          "120509.872000",
          "120509.875000",
          "120509.878000",
          "120509.881000",
          "120529.825000",
          "120529.828000",
          "120529.831000",
          "120529.834000",
          "120529.837000",
          "120529.840000",
          "120529.843000",
          "120529.846000",
          "120529.849000",
          "120529.852000",
          "120529.855000",
          "120529.858000",
          "120529.861000",
          "120529.864000",
          "120529.867000",
          "120529.869000",
          "120529.872000",
          "120529.875000",
          "120529.878000",
          "120529.881000",
          "120529.884000",
          "120609.825000",
          "120609.828000",
          "120609.831000",
          "120609.834000",
          "120609.837000",
          "120609.840000",
          "120609.843000",
          "120609.846000",
          "120609.849000",
          "120609.852000",
          "120609.855000",
          "120609.858000",
          "120609.861000",
          "120609.864000",
          "120609.867000",
          "120609.870000",
          "120609.873000",
          "120609.876000",
          "120609.879000",
          "120609.882000",
          "120609.885000",
          "120609.895000",
          "120609.898000",
          "120609.901000",
          "120609.904000",
          "120609.906000",
          "120609.909000",
          "120609.912000",
          "120649.836000",
          "120649.839000",
          "120649.842000",
          "120649.845000",
          "120649.848000",
          "120649.851000",
          "120649.854000",
          "120649.857000",
          "120649.860000",
          "120649.863000",
          "120649.866000",
          "120649.869000",
          "120649.871000",
          "120649.875000",
          "120649.877000",
          "120649.880000",
          "120649.883000",
          "120649.886000",
          "120649.889000",
          "120649.892000",
          "120649.895000",
          "120649.898000",
          "120649.901000",
          "120649.904000",
          "120649.907000",
          "120649.910000",
          "120649.913000",
          "120729.825000",
          "120729.828000",
          "120729.831000",
          "120729.834000",
          "120729.837000",
          "120729.840000",
          "120729.843000",
          "120729.846000",
          "120729.849000",
          "120729.852000",
          "120729.860000",
          "120729.863000",
          "120729.866000",
          "120729.869000",
          "120729.872000",
          "120729.875000",
          "120729.878000",
          "120729.881000",
          "120729.883000",
          "120729.886000",
          "120729.889000",
          "120729.892000",
          "120729.903000",
          "120729.906000",
          "120729.909000",
          "120729.912000",
          "120729.915000",
          "120809.825000",
          "120809.828000",
          "120809.831000",
          "120809.835000",
          "120809.838000",
          "120809.841000",
          "120809.844000",
          "120809.847000",
          "120809.849000",
          "120809.852000",
          "120809.855000",
          "120809.858000",
          "120809.861000",
          "120809.864000",
          "120809.867000",
          "120809.870000",
          "120809.873000",
          "120809.876000",
          "120809.879000",
          "120809.882000",
          "120809.885000",
          "120809.888000",
          "120809.891000",
          "120809.894000",
          "120809.897000",
          "120809.900000",
          "120849.825000",
          "120849.828000",
          "120849.831000",
