{
  "aor": 0.00030377777777777776,
  "aqi": 0.00739635350617284,
  "bids_meta": {
    "AcquisitionMatrixPE": 104,
    "AcquisitionNumber": 1,
    "AcquisitionTime": "14:01:18.082500",
    "BandwidthPerPixelPhaseEncode": 17.17,
    "BaseResolution": 104,
    "BodyPartExamined": "BRAIN",
    "CogAtlasID": "trm_4c898da401420",
    "ConsistencyInfo": "N4_VE11C_LATEST_20160120",
    "ConversionSoftware": "dcm2niix",
    "ConversionSoftwareVersion": "v1.0.20171215 (OpenJPEG build) GCC7.3.0",
    "DerivedVendorReportedEchoSpacing": 0.000560011,
    "DeviceSerialNumber": "167006",
    "DwellTime": 2.1e-06,
    "EchoTime": 0.037,
    "EchoTrainLength": 104,
    "EffectiveEchoSpacing": 0.000560011,
    "FlipAngle": 52,
    "ImageComments": "Unaliased_MB4_PE3_LB",
    "ImageOrientationPatientDICOM": [
      0.999798,
      0.0194905,
      -0.00487832,
      -0.02007,
      0.957552,
      -0.287561
    ],
    "ImageType": [
      "ORIGINAL",
      "PRIMARY",
      "M",
      "MB",
      "ND",
      "MOSAIC"
    ],
    "InPlanePhaseEncodingDirectionDICOM": "COL",
    "InstitutionAddress": "Chemin_Queen-Mary_4565_Montreal_District_CA_H3W_1W5",
    "InstitutionName": "IUGM",
    "InstitutionalDepartmentName": "Department",
    "MRAcquisitionType": "2D",
    "MagneticFieldStrength": 3,
    "Manufacturer": "Siemens",
    "ManufacturersModelName": "Prisma_fit",
    "Modality": "MR",
    "MultibandAccelerationFactor": 4,
    "PartialFourier": 1,
    "PatientPosition": "HFS",
    "PercentPhaseFOV": 100,
    "PhaseEncodingDirection": "j-",
    "PhaseEncodingSteps": 104,
    "PhaseResolution": 1,
    "PixelBandwidth": 2290,
    "ProcedureStepDescription": "video5_generic",
    "ProtocolName": "func_task-wolf4",
    "PulseSequenceDetails": "%CustomerSeq%_cmrr_mbep2d_bold",
    "ReceiveCoilActiveElements": "HC1-7;NC1,2",
    "ReceiveCoilName": "HeadNeck_64",
    "ReconMatrixPE": 104,
    "RepetitionTime": 1.49,
    "SAR": 0.0282229,
    "ScanOptions": "FS",
    "ScanningSequence": "EP",
    "SequenceName": "epfid2d1_104",
    "SequenceVariant": "SK_SS",
    "SeriesDescription": "func_task-wolf4",
    "SeriesNumber": 16,
    "ShimSetting": [
      629,
      -7244,
      -8852,
      610,
      34,
      -207,
      -73,
      9
    ],
    "SliceThickness": 2,
    "SliceTiming": [
      0,
      0.7825,
      0.0975,
      0.88,
      0.195,
      0.98,
      0.2925,
      1.0775,
      0.39,
      1.175,
      0.49,
      1.2725,
      0.5875,
      1.37,
      0.685,
      0,
      0.7825,
      0.0975,
      0.88,
      0.195,
      0.98,
      0.2925,
      1.0775,
      0.39,
      1.175,
      0.49,
      1.2725,
      0.5875,
      1.37,
      0.685,
      0,
      0.7825,
      0.0975,
      0.88,
      0.195,
      0.98,
      0.2925,
      1.0775,
      0.39,
      1.175,
      0.49,
      1.2725,
      0.5875,
      1.37,
      0.685,
      0,
      0.7825,
      0.0975,
      0.88,
      0.195,
      0.98,
      0.2925,
      1.0775,
      0.39,
      1.175,
      0.49,
      1.2725,
      0.5875,
      1.37,
      0.685
    ],
    "SoftwareVersions": "syngo_MR_E11",
    "SpacingBetweenSlices": 2,
    "StationName": "MRC35049",
    "TaskName": "wolf04",
    "TotalReadoutTime": 0.0576811,
    "TxRefAmp": 218.544,
    "dataset": "<unset>",
    "dcmmeta_affine": [
      [
        -1.9995962381362915,
        -0.040139973163604736,
        0.0018669122364372015,
        107.32320404052734
      ],
      [
        -0.03898090124130249,
        1.915103793144226,
        -0.5752025246620178,
        -61.83209228515625
      ],
      [
        -0.009756641462445259,
        0.5751228332519531,
        1.9154995679855347,
        -68.93620300292969
      ],
      [
        0.0,
        0.0,
        0.0,
        1.0
      ]
    ],
    "dcmmeta_reorient_transform": [
      [
        0.0,
        -1.0,
        0.0,
        103.0
      ],
      [
        1.0,
        0.0,
        0.0,
        0.0
      ],
      [
        0.0,
        0.0,
        1.0,
        0.0
      ],
      [
        0.0,
        0.0,
        0.0,
        1.0
      ]
    ],
    "dcmmeta_shape": [
      104,
      104,
      60,
      407
    ],
    "dcmmeta_slice_dim": 2,
    "dcmmeta_version": 0.6,
    "global": {
      "const": {
        "AcquisitionMatrix": [
          104,
          0,
          0,
          104
        ],
        "AngioFlag": "N",
        "BitsAllocated": 16,
        "BitsStored": 16,
        "BodyPartExamined": "BRAIN",
        "Columns": 832,
        "EchoNumbers": 1,
        "EchoTime": 37.0,
        "EchoTrainLength": 104,
        "FlipAngle": 52.0,
        "HighBit": 15,
        "ImageOrientationPatient": [
          0.9997981417939,
          0.019490450298,
          -0.0048783206787,
          -0.0200699856798,
          0.95755189574928,
          -0.2875614066974
        ],
        "ImagePositionPatient": [
          -816.43088363474,
          -846.71042728488,
          203.19756756283
        ],
        "ImageType": [
          "ORIGINAL",
          "PRIMARY",
          "M",
          "MB",
          "ND",
          "MOSAIC"
        ],
        "ImagedNucleus": "1H",
        "ImagingFrequency": 123.259202,
        "InPlanePhaseEncodingDirection": "COL",
        "MRAcquisitionType": "2D",
        "MagneticFieldStrength": 3.0,
        "Manufacturer": "SIEMENS",
        "ManufacturerModelName": "Prisma_fit",
        "Modality": "MR",
        "NumberOfAverages": 1.0,
        "NumberOfPhaseEncodingSteps": 104,
        "PercentPhaseFieldOfView": 100.0,
        "PercentSampling": 100.0,
        "PerformedProcedureStepStartTime": "131101.066000",
        "PhotometricInterpretation": "MONOCHROME2",
        "PixelBandwidth": 2290.0,
        "PixelRepresentation": 0,
        "PixelSpacing": [
          2.0,
          2.0
        ],
        "ProtocolName": "func_task-wolf4",
        "RepetitionTime": 1490.0,
        "Rows": 832,
        "SAR": 0.02822289186432,
        "SamplesPerPixel": 1,
        "ScanOptions": "FS",
        "ScanningSequence": "EP",
        "SequenceName": "epfid2d1_104",
        "SequenceVariant": [
          "SK",
          "SS"
        ],
        "SeriesDescription": "func_task-wolf4",
        "SeriesNumber": 16,
        "SeriesTime": "140241.407000",
        "SliceLocation": -48.140464597987,
        "SliceThickness": 2.0,
        "SmallestImagePixelValue": 0,
        "SoftwareVersions": "syngo MR E11",
        "SpacingBetweenSlices": 2.0000000475686,
        "SpecificCharacterSet": "ISO_IR 100",
        "StudyID": "1",
        "StudyTime": "131100.930000",
        "TransmitCoilName": "Body",
        "VariableFlipAngleFlag": "N",
        "WindowCenterWidthExplanation": "Algo1",
        "dBdt": 0.0
      },
      "slices": {}
    },
    "modality": "bold",
    "session_id": "009",
    "subject_id": "06",
    "task_id": "wolf04",
    "time": {
      "samples": {
        "AcquisitionNumber": [
          1,
          2,
          3,
          4,
          5,
          6,
          7,
          8,
          9,
          10,
          11,
          12,
          13,
          14,
          15,
          16,
          17,
          18,
          19,
          20,
          21,
          22,
          23,
          24,
          25,
          26,
          27,
          28,
          29,
          30,
          31,
          32,
          33,
          34,
          35,
          36,
          37,
          38,
          39,
          40,
          41,
          42,
          43,
          44,
          45,
          46,
          47,
          48,
          49,
          50,
          51,
          52,
          53,
          54,
          55,
          56,
          57,
          58,
          59,
          60,
          61,
          62,
          63,
          64,
          65,
          66,
          67,
          68,
          69,
          70,
          71,
          72,
          73,
          74,
          75,
          76,
          77,
          78,
          79,
          80,
          81,
          82,
          83,
          84,
          85,
          86,
          87,
          88,
          89,
          90,
          91,
          92,
          93,
          94,
          95,
          96,
          97,
          98,
          99,
          100,
          101,
          102,
          103,
          104,
          105,
          106,
          107,
          108,
          109,
          110,
          111,
          112,
          113,
          114,
          115,
          116,
          117,
          118,
          119,
          120,
          121,
          122,
          123,
          124,
          125,
          126,
          127,
          128,
          129,
          130,
          131,
          132,
          133,
          134,
          135,
          136,
          137,
          138,
          139,
          140,
          141,
          142,
          143,
          144,
          145,
          146,
          147,
          148,
          149,
          150,
          151,
          152,
          153,
          154,
          155,
          156,
          157,
          158,
          159,
          160,
          161,
          162,
          163,
          164,
          165,
          166,
          167,
          168,
          169,
          170,
          171,
          172,
          173,
          174,
          175,
          176,
          177,
          178,
          179,
          180,
          181,
          182,
          183,
          184,
          185,
          186,
          187,
          188,
          189,
          190,
          191,
          192,
          193,
          194,
          195,
          196,
          197,
          198,
          199,
          200,
          201,
          202,
          203,
          204,
          205,
          206,
          207,
          208,
          209,
          210,
          211,
          212,
          213,
          214,
          215,
          216,
          217,
          218,
          219,
          220,
          221,
          222,
          223,
          224,
          225,
          226,
          227,
          228,
          229,
          230,
          231,
          232,
          233,
          234,
          235,
          236,
          237,
          238,
          239,
          240,
          241,
          242,
          243,
          244,
          245,
          246,
          247,
          248,
          249,
          250,
          251,
          252,
          253,
          254,
          255,
          256,
          257,
          258,
          259,
          260,
          261,
          262,
          263,
          264,
          265,
          266,
          267,
          268,
          269,
          270,
          271,
          272,
          273,
          274,
          275,
          276,
          277,
          278,
          279,
          280,
          281,
          282,
          283,
          284,
          285,
          286,
          287,
          288,
          289,
          290,
          291,
          292,
          293,
          294,
          295,
          296,
          297,
          298,
          299,
          300,
          301,
          302,
          303,
          304,
          305,
          306,
          307,
          308,
          309,
          310,
          311,
          312,
          313,
          314,
          315,
          316,
          317,
          318,
          319,
          320,
          321,
          322,
          323,
          324,
          325,
          326,
          327,
          328,
          329,
          330,
          331,
          332,
          333,
          334,
          335,
          336,
          337,
          338,
          339,
          340,
          341,
          342,
          343,
          344,
          345,
          346,
          347,
          348,
          349,
          350,
          351,
          352,
          353,
          354,
          355,
          356,
          357,
          358,
          359,
          360,
          361,
          362,
          363,
          364,
          365,
          366,
          367,
          368,
          369,
          370,
          371,
          372,
          373,
          374,
          375,
          376,
          377,
          378,
          379,
          380,
          381,
          382,
          383,
          384,
          385,
          386,
          387,
          388,
          389,
          390,
          391,
          392,
          393,
          394,
          395,
          396,
          397,
          398,
          399,
          400,
          401,
          402,
          403,
          404,
          405,
          406,
          407
        ],
        "AcquisitionTime": [
          "140118.082500",
          "140119.572500",
          "140121.062500",
          "140122.552500",
          "140124.042500",
          "140125.532500",
          "140127.022500",
          "140128.512500",
          "140130.002500",
          "140131.492500",
          "140132.982500",
          "140134.472500",
          "140135.962500",
          "140137.452500",
          "140138.942500",
          "140140.432500",
          "140141.922500",
          "140143.412500",
          "140144.902500",
          "140146.392500",
          "140147.882500",
          "140149.372500",
          "140150.862500",
          "140152.352500",
          "140153.842500",
          "140155.332500",
          "140156.822500",
          "140158.312500",
          "140159.802500",
          "140201.292500",
          "140202.782500",
          "140204.272500",
          "140205.762500",
          "140207.252500",
          "140208.742500",
          "140210.232500",
          "140211.722500",
          "140213.212500",
          "140214.702500",
          "140216.192500",
          "140217.682500",
          "140219.172500",
          "140220.662500",
          "140222.152500",
          "140223.642500",
          "140225.132500",
          "140226.622500",
          "140228.112500",
          "140229.602500",
          "140231.092500",
          "140232.582500",
          "140234.072500",
          "140235.562500",
          "140237.052500",
          "140238.542500",
          "140240.032500",
          "140241.522500",
          "140243.012500",
          "140244.502500",
          "140245.992500",
          "140247.482500",
          "140248.972500",
          "140250.462500",
          "140251.952500",
          "140253.442500",
          "140254.932500",
          "140256.422500",
          "140257.912500",
          "140259.402500",
          "140300.892500",
          "140302.382500",
          "140303.872500",
          "140305.362500",
          "140306.852500",
          "140308.342500",
          "140309.832500",
          "140311.322500",
          "140312.812500",
          "140314.302500",
          "140315.792500",
          "140317.282500",
          "140318.772500",
          "140320.262500",
          "140321.752500",
          "140323.242500",
          "140324.732500",
          "140326.222500",
          "140327.712500",
          "140329.202500",
          "140330.692500",
          "140332.182500",
          "140333.672500",
          "140335.162500",
          "140336.652500",
          "140338.142500",
          "140339.632500",
          "140341.122500",
          "140342.612500",
          "140344.102500",
          "140345.592500",
          "140347.082500",
          "140348.572500",
          "140350.062500",
          "140351.552500",
          "140353.042500",
          "140354.532500",
          "140356.022500",
          "140357.512500",
          "140359.002500",
          "140400.492500",
          "140401.982500",
          "140403.472500",
          "140404.962500",
          "140406.452500",
          "140407.942500",
          "140409.432500",
          "140410.922500",
          "140412.412500",
          "140413.902500",
          "140415.392500",
          "140416.882500",
          "140418.372500",
          "140419.862500",
          "140421.352500",
          "140422.842500",
          "140424.332500",
          "140425.822500",
          "140427.312500",
          "140428.802500",
          "140430.292500",
          "140431.782500",
          "140433.272500",
          "140434.762500",
          "140436.252500",
          "140437.742500",
          "140439.232500",
          "140440.722500",
          "140442.212500",
          "140443.702500",
          "140445.192500",
          "140446.682500",
          "140448.172500",
          "140449.662500",
          "140451.152500",
          "140452.642500",
          "140454.132500",
          "140455.622500",
          "140457.112500",
          "140458.602500",
          "140500.092500",
          "140501.582500",
          "140503.072500",
          "140504.562500",
          "140506.052500",
          "140507.542500",
          "140509.032500",
          "140510.522500",
          "140512.012500",
          "140513.502500",
          "140514.992500",
          "140516.482500",
          "140517.972500",
          "140519.462500",
          "140520.952500",
          "140522.442500",
          "140523.932500",
          "140525.422500",
          "140526.912500",
          "140528.402500",
          "140529.892500",
          "140531.382500",
          "140532.872500",
          "140534.362500",
          "140535.852500",
          "140537.342500",
          "140538.832500",
          "140540.322500",
          "140541.812500",
          "140543.302500",
          "140544.792500",
          "140546.282500",
          "140547.772500",
          "140549.262500",
          "140550.752500",
          "140552.242500",
          "140553.732500",
          "140555.222500",
          "140556.712500",
          "140558.202500",
          "140559.692500",
          "140601.182500",
          "140602.672500",
          "140604.162500",
          "140605.652500",
          "140607.142500",
          "140608.632500",
          "140610.122500",
          "140611.612500",
          "140613.102500",
          "140614.592500",
          "140616.082500",
          "140617.572500",
          "140619.062500",
          "140620.552500",
          "140622.042500",
          "140623.532500",
          "140625.022500",
          "140626.512500",
          "140628.002500",
          "140629.492500",
          "140630.982500",
          "140632.472500",
          "140633.962500",
          "140635.452500",
          "140636.942500",
          "140638.432500",
          "140639.922500",
          "140641.412500",
          "140642.902500",
          "140644.392500",
          "140645.882500",
          "140647.372500",
          "140648.862500",
          "140650.352500",
          "140651.842500",
          "140653.332500",
          "140654.822500",
          "140656.312500",
          "140657.802500",
          "140659.292500",
          "140700.782500",
          "140702.272500",
          "140703.762500",
          "140705.252500",
          "140706.742500",
          "140708.232500",
          "140709.722500",
          "140711.212500",
          "140712.702500",
          "140714.192500",
          "140715.682500",
          "140717.172500",
          "140718.662500",
          "140720.152500",
          "140721.642500",
          "140723.132500",
          "140724.622500",
          "140726.112500",
          "140727.602500",
          "140729.092500",
          "140730.582500",
          "140732.072500",
          "140733.562500",
          "140735.052500",
          "140736.542500",
          "140738.032500",
          "140739.522500",
          "140741.012500",
          "140742.502500",
          "140743.992500",
          "140745.482500",
          "140746.972500",
          "140748.462500",
          "140749.952500",
          "140751.442500",
          "140752.932500",
          "140754.422500",
          "140755.912500",
          "140757.402500",
          "140758.892500",
          "140800.382500",
          "140801.872500",
          "140803.362500",
          "140804.852500",
          "140806.342500",
          "140807.832500",
          "140809.322500",
          "140810.812500",
          "140812.302500",
          "140813.792500",
          "140815.282500",
          "140816.772500",
          "140818.262500",
          "140819.752500",
          "140821.242500",
          "140822.732500",
          "140824.222500",
          "140825.712500",
          "140827.202500",
          "140828.692500",
          "140830.182500",
          "140831.672500",
          "140833.162500",
          "140834.652500",
          "140836.142500",
          "140837.632500",
          "140839.122500",
          "140840.612500",
          "140842.102500",
          "140843.592500",
          "140845.082500",
          "140846.572500",
          "140848.062500",
          "140849.552500",
          "140851.042500",
          "140852.532500",
          "140854.022500",
          "140855.512500",
          "140857.002500",
          "140858.492500",
          "140859.982500",
          "140901.472500",
          "140902.962500",
          "140904.452500",
          "140905.942500",
          "140907.432500",
          "140908.922500",
          "140910.412500",
          "140911.902500",
          "140913.392500",
          "140914.882500",
          "140916.372500",
          "140917.862500",
          "140919.352500",
          "140920.842500",
          "140922.332500",
          "140923.822500",
          "140925.312500",
          "140926.802500",
          "140928.292500",
          "140929.782500",
          "140931.272500",
          "140932.762500",
          "140934.252500",
          "140935.742500",
          "140937.232500",
          "140938.722500",
          "140940.212500",
          "140941.702500",
          "140943.192500",
          "140944.682500",
          "140946.172500",
          "140947.662500",
          "140949.152500",
          "140950.642500",
          "140952.132500",
          "140953.622500",
          "140955.112500",
          "140956.602500",
          "140958.092500",
          "140959.582500",
          "141001.072500",
          "141002.562500",
          "141004.052500",
          "141005.542500",
          "141007.032500",
          "141008.522500",
          "141010.012500",
          "141011.502500",
          "141012.992500",
          "141014.482500",
          "141015.972500",
          "141017.462500",
          "141018.952500",
          "141020.442500",
          "141021.932500",
          "141023.422500",
          "141024.912500",
          "141026.402500",
          "141027.892500",
          "141029.382500",
          "141030.872500",
          "141032.362500",
          "141033.852500",
          "141035.342500",
          "141036.832500",
          "141038.322500",
          "141039.812500",
          "141041.302500",
          "141042.792500",
          "141044.282500",
          "141045.772500",
          "141047.262500",
          "141048.752500",
          "141050.242500",
          "141051.732500",
          "141053.222500",
          "141054.712500",
          "141056.202500",
          "141057.692500",
          "141059.182500",
          "141100.672500",
          "141102.162500",
          "141103.652500",
          "141105.142500",
          "141106.632500",
          "141108.122500",
          "141109.612500",
          "141111.102500",
          "141112.592500",
          "141114.082500",
          "141115.572500",
          "141117.062500",
          "141118.552500",
          "141120.042500",
          "141121.532500",
          "141123.022500"
        ],
        "ContentTime": [
          "140241.410000",
          "140241.414000",
          "140241.417000",
          "140241.419000",
          "140241.422000",
          "140241.426000",
          "140241.428000",
          "140241.438000",
          "140241.446000",
          "140241.449000",
          "140241.452000",
          "140241.455000",
          "140241.458000",
          "140241.461000",
          "140241.464000",
          "140241.467000",
          "140241.470000",
          "140241.473000",
          "140241.476000",
          "140241.479000",
          "140241.486000",
          "140241.490000",
          "140241.493000",
          "140241.496000",
          "140241.499000",
          "140241.502000",
          "140301.383000",
          "140301.386000",
          "140301.389000",
          "140301.392000",
          "140301.395000",
          "140301.398000",
          "140301.401000",
          "140301.404000",
          "140301.414000",
          "140301.417000",
          "140301.420000",
          "140301.423000",
          "140301.426000",
          "140301.429000",
          "140301.434000",
          "140301.438000",
          "140301.442000",
          "140301.445000",
          "140301.449000",
          "140301.452000",
          "140321.383000",
          "140321.386000",
          "140321.389000",
          "140321.392000",
          "140321.395000",
          "140321.398000",
          "140321.401000",
          "140321.404000",
          "140321.407000",
          "140321.410000",
          "140321.413000",
          "140321.416000",
          "140321.419000",
          "140321.422000",
          "140321.428000",
          "140321.431000",
          "140321.435000",
          "140321.438000",
          "140321.441000",
          "140321.444000",
          "140321.447000",
          "140341.383000",
          "140341.386000",
          "140341.389000",
          "140341.392000",
          "140341.395000",
          "140341.398000",
          "140341.401000",
          "140341.404000",
          "140341.407000",
          "140341.410000",
          "140341.413000",
          "140341.417000",
          "140341.420000",
          "140341.423000",
          "140341.426000",
          "140341.429000",
          "140341.432000",
          "140341.435000",
          "140341.438000",
          "140341.441000",
          "140401.383000",
          "140401.386000",
          "140401.389000",
          "140401.392000",
          "140401.395000",
          "140401.398000",
          "140401.401000",
          "140401.404000",
          "140401.407000",
          "140401.410000",
          "140401.413000",
          "140401.416000",
          "140401.419000",
          "140401.422000",
          "140401.425000",
          "140401.428000",
          "140401.431000",
          "140401.434000",
          "140401.437000",
          "140401.440000",
          "140441.383000",
          "140441.386000",
          "140441.389000",
          "140441.392000",
          "140441.395000",
          "140441.398000",
          "140441.401000",
          "140441.404000",
          "140441.407000",
          "140441.410000",
          "140441.413000",
          "140441.416000",
          "140441.419000",
          "140441.422000",
          "140441.425000",
          "140441.428000",
          "140441.431000",
          "140441.434000",
          "140441.437000",
          "140441.440000",
          "140441.443000",
          "140441.446000",
          "140441.458000",
          "140441.462000",
          "140441.464000",
          "140441.467000",
          "140441.470000",
          "140441.473000",
          "140521.383000",
          "140521.386000",
          "140521.389000",
          "140521.392000",
          "140521.395000",
          "140521.398000",
          "140521.401000",
          "140521.404000",
          "140521.407000",
          "140521.410000",
          "140521.413000",
          "140521.416000",
          "140521.419000",
          "140521.422000",
          "140521.425000",
          "140521.428000",
          "140521.431000",
          "140521.434000",
          "140521.437000",
          "140521.440000",
          "140521.443000",
          "140521.446000",
          "140521.449000",
          "140521.452000",
          "140521.455000",
          "140521.458000",
          "140521.461000",
          "140601.383000",
          "140601.386000",
          "140601.389000",
          "140601.392000",
          "140601.395000",
          "140601.398000",
          "140601.401000",
          "140601.404000",
          "140601.407000",
          "140601.410000",
          "140601.413000",
          "140601.426000",
          "140601.429000",
          "140601.432000",
          "140601.435000",
          "140601.438000",
          "140601.441000",
          "140601.444000",
          "140601.447000",
          "140601.450000",
          "140601.462000",
          "140601.465000",
          "140601.468000",
          "140601.471000",
          "140601.474000",
          "140601.477000",
          "140601.480000",
          "140641.383000",
          "140641.386000",
          "140641.389000",
          "140641.392000",
          "140641.395000",
          "140641.398000",
          "140641.401000",
          "140641.404000",
          "140641.407000",
          "140641.410000",
          "140641.413000",
          "140641.417000",
          "140641.419000",
          "140641.422000",
          "140641.425000",
          "140641.429000",
          "140641.431000",
          "140641.435000",
          "140641.437000",
          "140641.441000",
          "140641.444000",
          "140641.447000",
          "140641.449000",
          "140641.453000",
          "140641.456000",
          "140641.459000",
          "140641.461000",
          "140721.383000",
          "140721.386000",
          "140721.389000",
          "140721.392000",
          "140721.395000",
          "140721.398000",
          "140721.401000",
