{
  "aor": 0.0009685148514851485,
  "aqi": 0.007713989232673268,
  "bids_meta": {
    "AcquisitionMatrixPE": 104,
    "AcquisitionNumber": 1,
    "AcquisitionTime": "14:50:31.520000",
    "BandwidthPerPixelPhaseEncode": 17.17,
    "BaseResolution": 104,
    "BodyPartExamined": "BRAIN",
    "CogAtlasID": "trm_4c898da401420",
    "ConsistencyInfo": "N4_VE11C_LATEST_20160120",
    "ConversionSoftware": "dcm2niix",
    "ConversionSoftwareVersion": "v1.0.20171215 (OpenJPEG build) GCC7.3.0",
    "DerivedVendorReportedEchoSpacing": 0.000560011,
    "DeviceSerialNumber": "167006",
    "DwellTime": 2.1e-06,
    "EchoTime": 0.037,
    "EchoTrainLength": 104,
    "EffectiveEchoSpacing": 0.000560011,
    "FlipAngle": 52,
    "ImageComments": "Unaliased_MB4_PE3_LB",
    "ImageOrientationPatientDICOM": [
      0.999798,
      0.0194905,
      -0.00487832,
      -0.02007,
      0.957552,
      -0.287561
    ],
    "ImageType": [
      "ORIGINAL",
      "PRIMARY",
      "M",
      "MB",
      "ND",
      "MOSAIC"
    ],
    "InPlanePhaseEncodingDirectionDICOM": "COL",
    "InstitutionAddress": "Chemin_Queen-Mary_4565_Montreal_District_CA_H3W_1W5",
    "InstitutionName": "IUGM",
    "InstitutionalDepartmentName": "Department",
    "MRAcquisitionType": "2D",
    "MagneticFieldStrength": 3,
    "Manufacturer": "Siemens",
    "ManufacturersModelName": "Prisma_fit",
    "Modality": "MR",
    "MultibandAccelerationFactor": 4,
    "PartialFourier": 1,
    "PatientPosition": "HFS",
    "PercentPhaseFOV": 100,
    "PhaseEncodingDirection": "j-",
    "PhaseEncodingSteps": 104,
    "PhaseResolution": 1,
    "PixelBandwidth": 2290,
    "ProcedureStepDescription": "video5_generic",
    "ProtocolName": "func_task-wolf8",
    "PulseSequenceDetails": "%CustomerSeq%_cmrr_mbep2d_bold",
    "ReceiveCoilActiveElements": "HC1-7;NC1,2",
    "ReceiveCoilName": "HeadNeck_64",
    "ReconMatrixPE": 104,
    "RepetitionTime": 1.49,
    "SAR": 0.0282229,
    "ScanOptions": "FS",
    "ScanningSequence": "EP",
    "SequenceName": "epfid2d1_104",
    "SequenceVariant": "SK_SS",
    "SeriesDescription": "func_task-wolf8",
    "SeriesNumber": 24,
    "ShimSetting": [
      629,
      -7244,
      -8852,
      610,
      34,
      -207,
      -73,
      9
    ],
    "SliceThickness": 2,
    "SliceTiming": [
      0,
      0.7825,
      0.0975,
      0.88,
      0.195,
      0.98,
      0.2925,
      1.0775,
      0.39,
      1.175,
      0.49,
      1.2725,
      0.5875,
      1.37,
      0.685,
      0,
      0.7825,
      0.0975,
      0.88,
      0.195,
      0.98,
      0.2925,
      1.0775,
      0.39,
      1.175,
      0.49,
      1.2725,
      0.5875,
      1.37,
      0.685,
      0,
      0.7825,
      0.0975,
      0.88,
      0.195,
      0.98,
      0.2925,
      1.0775,
      0.39,
      1.175,
      0.49,
      1.2725,
      0.5875,
      1.37,
      0.685,
      0,
      0.7825,
      0.0975,
      0.88,
      0.195,
      0.98,
      0.2925,
      1.0775,
      0.39,
      1.175,
      0.49,
      1.2725,
      0.5875,
      1.37,
      0.685
    ],
    "SoftwareVersions": "syngo_MR_E11",
    "SpacingBetweenSlices": 2,
    "StationName": "MRC35049",
    "TaskName": "wolf08",
    "TotalReadoutTime": 0.0576811,
    "TxRefAmp": 218.544,
    "dataset": "<unset>",
    "dcmmeta_affine": [
      [
        -1.9995962381362915,
        -0.040139973163604736,
        0.0018669122364372015,
        107.32320404052734
      ],
      [
        -0.03898090124130249,
        1.915103793144226,
        -0.5752025246620178,
        -61.83209228515625
      ],
      [
        -0.009756641462445259,
        0.5751228332519531,
        1.9154995679855347,
        -68.93620300292969
      ],
      [
        0.0,
        0.0,
        0.0,
        1.0
      ]
    ],
    "dcmmeta_reorient_transform": [
      [
        0.0,
        -1.0,
        0.0,
        103.0
      ],
      [
        1.0,
        0.0,
        0.0,
        0.0
      ],
      [
        0.0,
        0.0,
        1.0,
        0.0
      ],
      [
        0.0,
        0.0,
        0.0,
        1.0
      ]
    ],
    "dcmmeta_shape": [
      104,
      104,
      60,
      407
    ],
    "dcmmeta_slice_dim": 2,
    "dcmmeta_version": 0.6,
    "global": {
      "const": {
        "AcquisitionMatrix": [
          104,
          0,
          0,
          104
        ],
        "AngioFlag": "N",
        "BitsAllocated": 16,
        "BitsStored": 16,
        "BodyPartExamined": "BRAIN",
        "Columns": 832,
        "EchoNumbers": 1,
        "EchoTime": 37.0,
        "EchoTrainLength": 104,
        "FlipAngle": 52.0,
        "HighBit": 15,
        "ImageOrientationPatient": [
          0.9997981417939,
          0.019490450298,
          -0.0048783206787,
          -0.0200699856798,
          0.95755189574928,
          -0.2875614066974
        ],
        "ImagePositionPatient": [
          -816.43088363474,
          -846.71042728488,
          203.19756756283
        ],
        "ImageType": [
          "ORIGINAL",
          "PRIMARY",
          "M",
          "MB",
          "ND",
          "MOSAIC"
        ],
        "ImagedNucleus": "1H",
        "ImagingFrequency": 123.259213,
        "InPlanePhaseEncodingDirection": "COL",
        "MRAcquisitionType": "2D",
        "MagneticFieldStrength": 3.0,
        "Manufacturer": "SIEMENS",
        "ManufacturerModelName": "Prisma_fit",
        "Modality": "MR",
        "NumberOfAverages": 1.0,
        "NumberOfPhaseEncodingSteps": 104,
        "PercentPhaseFieldOfView": 100.0,
        "PercentSampling": 100.0,
        "PerformedProcedureStepStartTime": "131101.066000",
        "PhotometricInterpretation": "MONOCHROME2",
        "PixelBandwidth": 2290.0,
        "PixelRepresentation": 0,
        "PixelSpacing": [
          2.0,
          2.0
        ],
        "ProtocolName": "func_task-wolf8",
        "RepetitionTime": 1490.0,
        "Rows": 832,
        "SAR": 0.02822289186432,
        "SamplesPerPixel": 1,
        "ScanOptions": "FS",
        "ScanningSequence": "EP",
        "SequenceName": "epfid2d1_104",
        "SequenceVariant": [
          "SK",
          "SS"
        ],
        "SeriesDescription": "func_task-wolf8",
        "SeriesNumber": 24,
        "SeriesTime": "145201.489000",
        "SliceLocation": -48.140464597987,
        "SliceThickness": 2.0,
        "SmallestImagePixelValue": 0,
        "SoftwareVersions": "syngo MR E11",
        "SpacingBetweenSlices": 2.0000000475686,
        "SpecificCharacterSet": "ISO_IR 100",
        "StudyID": "1",
        "StudyTime": "131100.930000",
        "TransmitCoilName": "Body",
        "VariableFlipAngleFlag": "N",
        "WindowCenterWidthExplanation": "Algo1",
        "dBdt": 0.0
      },
      "slices": {}
    },
    "modality": "bold",
    "session_id": "009",
    "subject_id": "06",
    "task_id": "wolf08",
    "time": {
      "samples": {
        "AcquisitionNumber": [
          1,
          2,
          3,
          4,
          5,
          6,
          7,
          8,
          9,
          10,
          11,
          12,
          13,
          14,
          15,
          16,
          17,
          18,
          19,
          20,
          21,
          22,
          23,
          24,
          25,
          26,
          27,
          28,
          29,
          30,
          31,
          32,
          33,
          34,
          35,
          36,
          37,
          38,
          39,
          40,
          41,
          42,
          43,
          44,
          45,
          46,
          47,
          48,
          49,
          50,
          51,
          52,
          53,
          54,
          55,
          56,
          57,
          58,
          59,
          60,
          61,
          62,
          63,
          64,
          65,
          66,
          67,
          68,
          69,
          70,
          71,
          72,
          73,
          74,
          75,
          76,
          77,
          78,
          79,
          80,
          81,
          82,
          83,
          84,
          85,
          86,
          87,
          88,
          89,
          90,
          91,
          92,
          93,
          94,
          95,
          96,
          97,
          98,
          99,
          100,
          101,
          102,
          103,
          104,
          105,
          106,
          107,
          108,
          109,
          110,
          111,
          112,
          113,
          114,
          115,
          116,
          117,
          118,
          119,
          120,
          121,
          122,
          123,
          124,
          125,
          126,
          127,
          128,
          129,
          130,
          131,
          132,
          133,
          134,
          135,
          136,
          137,
          138,
          139,
          140,
          141,
          142,
          143,
          144,
          145,
          146,
          147,
          148,
          149,
          150,
          151,
          152,
          153,
          154,
          155,
          156,
          157,
          158,
          159,
          160,
          161,
          162,
          163,
          164,
          165,
          166,
          167,
          168,
          169,
          170,
          171,
          172,
          173,
          174,
          175,
          176,
          177,
          178,
          179,
          180,
          181,
          182,
          183,
          184,
          185,
          186,
          187,
          188,
          189,
          190,
          191,
          192,
          193,
          194,
          195,
          196,
          197,
          198,
          199,
          200,
          201,
          202,
          203,
          204,
          205,
          206,
          207,
          208,
          209,
          210,
          211,
          212,
          213,
          214,
          215,
          216,
          217,
          218,
          219,
          220,
          221,
          222,
          223,
          224,
          225,
          226,
          227,
          228,
          229,
          230,
          231,
          232,
          233,
          234,
          235,
          236,
          237,
          238,
          239,
          240,
          241,
          242,
          243,
          244,
          245,
          246,
          247,
          248,
          249,
          250,
          251,
          252,
          253,
          254,
          255,
          256,
          257,
          258,
          259,
          260,
          261,
          262,
          263,
          264,
          265,
          266,
          267,
          268,
          269,
          270,
          271,
          272,
          273,
          274,
          275,
          276,
          277,
          278,
          279,
          280,
          281,
          282,
          283,
          284,
          285,
          286,
          287,
          288,
          289,
          290,
          291,
          292,
          293,
          294,
          295,
          296,
          297,
          298,
          299,
          300,
          301,
          302,
          303,
          304,
          305,
          306,
          307,
          308,
          309,
          310,
          311,
          312,
          313,
          314,
          315,
          316,
          317,
          318,
          319,
          320,
          321,
          322,
          323,
          324,
          325,
          326,
          327,
          328,
          329,
          330,
          331,
          332,
          333,
          334,
          335,
          336,
          337,
          338,
          339,
          340,
          341,
          342,
          343,
          344,
          345,
          346,
          347,
          348,
          349,
          350,
          351,
          352,
          353,
          354,
          355,
          356,
          357,
          358,
          359,
          360,
          361,
          362,
          363,
          364,
          365,
          366,
          367,
          368,
          369,
          370,
          371,
          372,
          373,
          374,
          375,
          376,
          377,
          378,
          379,
          380,
          381,
          382,
          383,
          384,
          385,
          386,
          387,
          388,
          389,
          390,
          391,
          392,
          393,
          394,
          395,
          396,
          397,
          398,
          399,
          400,
          401,
          402,
          403,
          404,
          405,
          406,
          407
        ],
        "AcquisitionTime": [
          "145031.520000",
          "145033.010000",
          "145034.500000",
          "145035.990000",
          "145037.480000",
          "145038.970000",
          "145040.460000",
          "145041.950000",
          "145043.440000",
          "145044.930000",
          "145046.420000",
          "145047.910000",
          "145049.400000",
          "145050.890000",
          "145052.380000",
          "145053.870000",
          "145055.360000",
          "145056.850000",
          "145058.340000",
          "145059.830000",
          "145101.320000",
          "145102.810000",
          "145104.300000",
          "145105.790000",
          "145107.280000",
          "145108.770000",
          "145110.260000",
          "145111.750000",
          "145113.240000",
          "145114.730000",
          "145116.220000",
          "145117.710000",
          "145119.200000",
          "145120.690000",
          "145122.180000",
          "145123.670000",
          "145125.160000",
          "145126.650000",
          "145128.140000",
          "145129.630000",
          "145131.120000",
          "145132.610000",
          "145134.100000",
          "145135.590000",
          "145137.080000",
          "145138.570000",
          "145140.060000",
          "145141.550000",
          "145143.040000",
          "145144.530000",
          "145146.020000",
          "145147.510000",
          "145149.000000",
          "145150.490000",
          "145151.980000",
          "145153.470000",
          "145154.960000",
          "145156.450000",
          "145157.940000",
          "145159.430000",
          "145200.920000",
          "145202.410000",
          "145203.900000",
          "145205.390000",
          "145206.880000",
          "145208.370000",
          "145209.860000",
          "145211.350000",
          "145212.840000",
          "145214.330000",
          "145215.820000",
          "145217.310000",
          "145218.800000",
          "145220.290000",
          "145221.780000",
          "145223.270000",
          "145224.760000",
          "145226.250000",
          "145227.740000",
          "145229.230000",
          "145230.720000",
          "145232.210000",
          "145233.700000",
          "145235.190000",
          "145236.680000",
          "145238.170000",
          "145239.660000",
          "145241.150000",
          "145242.640000",
          "145244.130000",
          "145245.620000",
          "145247.110000",
          "145248.600000",
          "145250.090000",
          "145251.580000",
          "145253.070000",
          "145254.560000",
          "145256.050000",
          "145257.540000",
          "145259.030000",
          "145300.520000",
          "145302.010000",
          "145303.500000",
          "145304.990000",
          "145306.480000",
          "145307.970000",
          "145309.460000",
          "145310.950000",
          "145312.440000",
          "145313.930000",
          "145315.420000",
          "145316.910000",
          "145318.400000",
          "145319.890000",
          "145321.380000",
          "145322.870000",
          "145324.360000",
          "145325.850000",
          "145327.340000",
          "145328.830000",
          "145330.320000",
          "145331.810000",
          "145333.300000",
          "145334.790000",
          "145336.280000",
          "145337.770000",
          "145339.260000",
          "145340.750000",
          "145342.240000",
          "145343.730000",
          "145345.220000",
          "145346.710000",
          "145348.200000",
          "145349.690000",
          "145351.180000",
          "145352.670000",
          "145354.160000",
          "145355.650000",
          "145357.140000",
          "145358.630000",
          "145400.120000",
          "145401.610000",
          "145403.100000",
          "145404.590000",
          "145406.080000",
          "145407.570000",
          "145409.060000",
          "145410.550000",
          "145412.040000",
          "145413.530000",
          "145415.020000",
          "145416.510000",
          "145418.000000",
          "145419.490000",
          "145420.980000",
          "145422.470000",
          "145423.960000",
          "145425.450000",
          "145426.940000",
          "145428.430000",
          "145429.920000",
          "145431.410000",
          "145432.900000",
          "145434.390000",
          "145435.880000",
          "145437.370000",
          "145438.860000",
          "145440.350000",
          "145441.840000",
          "145443.330000",
          "145444.820000",
          "145446.310000",
          "145447.800000",
          "145449.290000",
          "145450.780000",
          "145452.270000",
          "145453.760000",
          "145455.250000",
          "145456.740000",
          "145458.230000",
          "145459.720000",
          "145501.210000",
          "145502.700000",
          "145504.190000",
          "145505.680000",
          "145507.170000",
          "145508.660000",
          "145510.150000",
          "145511.640000",
          "145513.130000",
          "145514.620000",
          "145516.110000",
          "145517.600000",
          "145519.090000",
          "145520.580000",
          "145522.070000",
          "145523.560000",
          "145525.050000",
          "145526.540000",
          "145528.030000",
          "145529.520000",
          "145531.010000",
          "145532.500000",
          "145533.990000",
          "145535.480000",
          "145536.970000",
          "145538.460000",
          "145539.950000",
          "145541.440000",
          "145542.930000",
          "145544.420000",
          "145545.910000",
          "145547.400000",
          "145548.890000",
          "145550.380000",
          "145551.870000",
          "145553.360000",
          "145554.850000",
          "145556.340000",
          "145557.830000",
          "145559.320000",
          "145600.810000",
          "145602.300000",
          "145603.790000",
          "145605.280000",
          "145606.770000",
          "145608.260000",
          "145609.750000",
          "145611.240000",
          "145612.730000",
          "145614.220000",
          "145615.710000",
          "145617.200000",
          "145618.690000",
          "145620.180000",
          "145621.670000",
          "145623.160000",
          "145624.650000",
          "145626.140000",
          "145627.630000",
          "145629.120000",
          "145630.610000",
          "145632.100000",
          "145633.590000",
          "145635.080000",
          "145636.570000",
          "145638.060000",
          "145639.550000",
          "145641.040000",
          "145642.530000",
          "145644.020000",
          "145645.510000",
          "145647.000000",
          "145648.490000",
          "145649.980000",
          "145651.470000",
          "145652.960000",
          "145654.450000",
          "145655.940000",
          "145657.430000",
          "145658.920000",
          "145700.410000",
          "145701.900000",
          "145703.390000",
          "145704.880000",
          "145706.370000",
          "145707.860000",
          "145709.350000",
          "145710.840000",
          "145712.330000",
          "145713.820000",
          "145715.310000",
          "145716.800000",
          "145718.290000",
          "145719.780000",
          "145721.270000",
          "145722.760000",
          "145724.250000",
          "145725.740000",
          "145727.230000",
          "145728.720000",
          "145730.210000",
          "145731.700000",
          "145733.190000",
          "145734.680000",
          "145736.170000",
          "145737.660000",
          "145739.150000",
          "145740.640000",
          "145742.130000",
          "145743.620000",
          "145745.110000",
          "145746.600000",
          "145748.090000",
          "145749.580000",
          "145751.070000",
          "145752.560000",
          "145754.050000",
          "145755.540000",
          "145757.030000",
          "145758.520000",
          "145800.010000",
          "145801.500000",
          "145802.990000",
          "145804.480000",
          "145805.970000",
          "145807.460000",
          "145808.950000",
          "145810.440000",
          "145811.930000",
          "145813.420000",
          "145814.910000",
          "145816.400000",
          "145817.890000",
          "145819.380000",
          "145820.870000",
          "145822.360000",
          "145823.850000",
          "145825.340000",
          "145826.830000",
          "145828.320000",
          "145829.810000",
          "145831.300000",
          "145832.790000",
          "145834.280000",
          "145835.770000",
          "145837.260000",
          "145838.750000",
          "145840.240000",
          "145841.730000",
          "145843.220000",
          "145844.710000",
          "145846.200000",
          "145847.690000",
          "145849.180000",
          "145850.670000",
          "145852.160000",
          "145853.650000",
          "145855.140000",
          "145856.630000",
          "145858.120000",
          "145859.610000",
          "145901.100000",
          "145902.590000",
          "145904.080000",
          "145905.570000",
          "145907.060000",
          "145908.550000",
          "145910.040000",
          "145911.530000",
          "145913.020000",
          "145914.510000",
          "145916.000000",
          "145917.490000",
          "145918.980000",
          "145920.470000",
          "145921.960000",
          "145923.450000",
          "145924.940000",
          "145926.430000",
          "145927.920000",
          "145929.410000",
          "145930.900000",
          "145932.390000",
          "145933.880000",
          "145935.370000",
          "145936.860000",
          "145938.350000",
          "145939.840000",
          "145941.330000",
          "145942.820000",
          "145944.310000",
          "145945.800000",
          "145947.290000",
          "145948.780000",
          "145950.270000",
          "145951.760000",
          "145953.250000",
          "145954.740000",
          "145956.230000",
          "145957.720000",
          "145959.210000",
          "150000.700000",
          "150002.190000",
          "150003.680000",
          "150005.170000",
          "150006.660000",
          "150008.150000",
          "150009.640000",
          "150011.130000",
          "150012.620000",
          "150014.110000",
          "150015.600000",
          "150017.090000",
          "150018.580000",
          "150020.070000",
          "150021.560000",
          "150023.050000",
          "150024.540000",
          "150026.030000",
          "150027.520000",
          "150029.010000",
          "150030.500000",
          "150031.990000",
          "150033.480000",
          "150034.970000",
          "150036.460000"
        ],
        "ContentTime": [
          "145201.492000",
          "145201.495000",
          "145201.498000",
          "145201.501000",
          "145201.504000",
          "145201.507000",
          "145201.510000",
          "145201.513000",
          "145201.516000",
          "145201.521000",
          "145201.524000",
          "145201.542000",
          "145201.545000",
          "145201.548000",
          "145201.551000",
          "145201.554000",
          "145201.557000",
          "145201.560000",
          "145201.564000",
          "145201.567000",
          "145201.570000",
          "145201.573000",
          "145201.576000",
          "145201.579000",
          "145201.589000",
          "145201.592000",
          "145201.595000",
          "145201.598000",
          "145201.601000",
          "145201.604000",
          "145201.607000",
          "145201.610000",
          "145201.613000",
          "145221.453000",
          "145221.456000",
          "145221.459000",
          "145221.462000",
          "145221.465000",
          "145221.468000",
          "145221.471000",
          "145221.474000",
          "145221.477000",
          "145221.480000",
          "145221.483000",
          "145221.486000",
          "145221.489000",
          "145221.492000",
          "145221.495000",
          "145221.498000",
          "145221.501000",
          "145221.515000",
          "145221.518000",
          "145221.521000",
          "145241.453000",
          "145241.456000",
          "145241.459000",
          "145241.462000",
          "145241.465000",
          "145241.468000",
          "145241.471000",
          "145241.474000",
          "145241.477000",
          "145241.480000",
          "145241.483000",
          "145241.486000",
          "145241.489000",
          "145241.492000",
          "145241.495000",
          "145241.498000",
          "145241.501000",
          "145241.504000",
          "145241.507000",
          "145241.510000",
          "145241.513000",
          "145301.453000",
          "145301.456000",
          "145301.459000",
          "145301.462000",
          "145301.465000",
          "145301.468000",
          "145301.471000",
          "145301.474000",
          "145301.477000",
          "145301.480000",
          "145301.483000",
          "145301.486000",
          "145301.489000",
          "145301.492000",
          "145301.495000",
          "145301.498000",
          "145301.501000",
          "145301.504000",
          "145301.507000",
          "145301.510000",
          "145341.453000",
          "145341.456000",
          "145341.460000",
          "145341.463000",
          "145341.465000",
          "145341.478000",
          "145341.481000",
          "145341.484000",
          "145341.487000",
          "145341.490000",
          "145341.493000",
          "145341.496000",
          "145341.499000",
          "145341.501000",
          "145341.505000",
          "145341.508000",
          "145341.511000",
          "145341.514000",
          "145341.517000",
          "145341.520000",
          "145341.524000",
          "145341.527000",
          "145341.530000",
          "145341.533000",
          "145341.536000",
          "145341.539000",
          "145341.542000",
          "145341.545000",
          "145341.549000",
          "145341.552000",
          "145341.554000",
          "145341.558000",
          "145421.453000",
          "145421.456000",
          "145421.459000",
          "145421.462000",
          "145421.465000",
          "145421.468000",
          "145421.471000",
          "145421.474000",
          "145421.477000",
          "145421.480000",
          "145421.483000",
          "145421.486000",
          "145421.489000",
          "145421.492000",
          "145421.495000",
          "145421.498000",
          "145421.501000",
          "145421.504000",
          "145421.507000",
          "145421.510000",
          "145421.513000",
          "145421.516000",
          "145421.519000",
          "145421.522000",
          "145421.525000",
          "145421.528000",
          "145421.531000",
          "145501.453000",
          "145501.456000",
          "145501.466000",
          "145501.469000",
          "145501.472000",
          "145501.475000",
          "145501.478000",
          "145501.481000",
          "145501.484000",
          "145501.487000",
          "145501.490000",
          "145501.493000",
          "145501.496000",
          "145501.499000",
          "145501.502000",
          "145501.505000",
          "145501.514000",
          "145501.517000",
          "145501.520000",
          "145501.523000",
          "145501.526000",
          "145501.529000",
          "145501.532000",
          "145501.535000",
          "145501.538000",
          "145501.541000",
          "145501.544000",
          "145541.453000",
          "145541.456000",
          "145541.468000",
          "145541.471000",
          "145541.474000",
          "145541.477000",
          "145541.480000",
          "145541.483000",
          "145541.486000",
          "145541.489000",
          "145541.492000",
          "145541.495000",
          "145541.498000",
          "145541.501000",
          "145541.504000",
          "145541.524000",
          "145541.527000",
          "145541.529000",
          "145541.533000",
          "145541.535000",
          "145541.538000",
          "145541.541000",
          "145541.544000",
          "145541.547000",
          "145541.550000",
          "145541.553000",
          "145541.556000",
          "145621.453000",
          "145621.456000",
          "145621.459000",
          "145621.462000",
          "145621.465000",
          "145621.469000",
          "145621.472000",
          "145621.474000",
          "145621.477000",
          "145621.481000",
          "145621.484000",
          "145621.487000",
          "145621.490000",
          "145621.493000",
          "145621.496000",
          "145621.499000",
