{
  "aor": 0.00042078817733990145,
  "aqi": 0.00610142536945813,
  "bids_meta": {
    "AcquisitionMatrixPE": 104,
    "AcquisitionNumber": 1,
    "AcquisitionTime": "14:11:52.387500",
    "BandwidthPerPixelPhaseEncode": 17.17,
    "BaseResolution": 104,
    "BodyPartExamined": "BRAIN",
    "CogAtlasID": "trm_4c898da401420",
    "ConsistencyInfo": "N4_VE11C_LATEST_20160120",
    "ConversionSoftware": "dcm2niix",
    "ConversionSoftwareVersion": "v1.0.20171215 (OpenJPEG build) GCC7.3.0",
    "DerivedVendorReportedEchoSpacing": 0.000560011,
    "DeviceSerialNumber": "167006",
    "DwellTime": 2.1e-06,
    "EchoTime": 0.037,
    "EchoTrainLength": 104,
    "EffectiveEchoSpacing": 0.000560011,
    "FlipAngle": 52,
    "ImageComments": "Unaliased_MB4_PE3_LB",
    "ImageOrientationPatientDICOM": [
      0.999798,
      0.0194905,
      -0.00487832,
      -0.02007,
      0.957552,
      -0.287561
    ],
    "ImageType": [
      "ORIGINAL",
      "PRIMARY",
      "M",
      "MB",
      "ND",
      "MOSAIC"
    ],
    "InPlanePhaseEncodingDirectionDICOM": "COL",
    "InstitutionAddress": "Chemin_Queen-Mary_4565_Montreal_District_CA_H3W_1W5",
    "InstitutionName": "IUGM",
    "InstitutionalDepartmentName": "Department",
    "MRAcquisitionType": "2D",
    "MagneticFieldStrength": 3,
    "Manufacturer": "Siemens",
    "ManufacturersModelName": "Prisma_fit",
    "Modality": "MR",
    "MultibandAccelerationFactor": 4,
    "PartialFourier": 1,
    "PatientPosition": "HFS",
    "PercentPhaseFOV": 100,
    "PhaseEncodingDirection": "j-",
    "PhaseEncodingSteps": 104,
    "PhaseResolution": 1,
    "PixelBandwidth": 2290,
    "ProcedureStepDescription": "video5_generic",
    "ProtocolName": "func_task-wolf5",
    "PulseSequenceDetails": "%CustomerSeq%_cmrr_mbep2d_bold",
    "ReceiveCoilActiveElements": "HC1-7;NC1,2",
    "ReceiveCoilName": "HeadNeck_64",
    "ReconMatrixPE": 104,
    "RepetitionTime": 1.49,
    "SAR": 0.0282229,
    "ScanOptions": "FS",
    "ScanningSequence": "EP",
    "SequenceName": "epfid2d1_104",
    "SequenceVariant": "SK_SS",
    "SeriesDescription": "func_task-wolf5",
    "SeriesNumber": 18,
    "ShimSetting": [
      629,
      -7244,
      -8852,
      610,
      34,
      -207,
      -73,
      9
    ],
    "SliceThickness": 2,
    "SliceTiming": [
      0,
      0.785,
      0.0975,
      0.8825,
      0.195,
      0.98,
      0.295,
      1.0775,
      0.3925,
      1.175,
      0.49,
      1.2725,
      0.5875,
      1.3725,
      0.685,
      0,
      0.785,
      0.0975,
      0.8825,
      0.195,
      0.98,
      0.295,
      1.0775,
      0.3925,
      1.175,
      0.49,
      1.2725,
      0.5875,
      1.3725,
      0.685,
      0,
      0.785,
      0.0975,
      0.8825,
      0.195,
      0.98,
      0.295,
      1.0775,
      0.3925,
      1.175,
      0.49,
      1.2725,
      0.5875,
      1.3725,
      0.685,
      0,
      0.785,
      0.0975,
      0.8825,
      0.195,
      0.98,
      0.295,
      1.0775,
      0.3925,
      1.175,
      0.49,
      1.2725,
      0.5875,
      1.3725,
      0.685
    ],
    "SoftwareVersions": "syngo_MR_E11",
    "SpacingBetweenSlices": 2,
    "StationName": "MRC35049",
    "TaskName": "wolf05",
    "TotalReadoutTime": 0.0576811,
    "TxRefAmp": 218.544,
    "dataset": "<unset>",
    "dcmmeta_affine": [
      [
        -1.9995962381362915,
        -0.040139973163604736,
        0.0018669122364372015,
        107.32320404052734
      ],
      [
        -0.03898090124130249,
        1.915103793144226,
        -0.5752025246620178,
        -61.83209228515625
      ],
      [
        -0.009756641462445259,
        0.5751228332519531,
        1.9154995679855347,
        -68.93620300292969
      ],
      [
        0.0,
        0.0,
        0.0,
        1.0
      ]
    ],
    "dcmmeta_reorient_transform": [
      [
        0.0,
        -1.0,
        0.0,
        103.0
      ],
      [
        1.0,
        0.0,
        0.0,
        0.0
      ],
      [
        0.0,
        0.0,
        1.0,
        0.0
      ],
      [
        0.0,
        0.0,
        0.0,
        1.0
      ]
    ],
    "dcmmeta_shape": [
      104,
      104,
      60,
      407
    ],
    "dcmmeta_slice_dim": 2,
    "dcmmeta_version": 0.6,
    "global": {
      "const": {
        "AcquisitionMatrix": [
          104,
          0,
          0,
          104
        ],
        "AngioFlag": "N",
        "BitsAllocated": 16,
        "BitsStored": 16,
        "BodyPartExamined": "BRAIN",
        "Columns": 832,
        "EchoNumbers": 1,
        "EchoTime": 37.0,
        "EchoTrainLength": 104,
        "FlipAngle": 52.0,
        "HighBit": 15,
        "ImageOrientationPatient": [
          0.9997981417939,
          0.019490450298,
          -0.0048783206787,
          -0.0200699856798,
          0.95755189574928,
          -0.2875614066974
        ],
        "ImagePositionPatient": [
          -816.43088363474,
          -846.71042728488,
          203.19756756283
        ],
        "ImageType": [
          "ORIGINAL",
          "PRIMARY",
          "M",
          "MB",
          "ND",
          "MOSAIC"
        ],
        "ImagedNucleus": "1H",
        "ImagingFrequency": 123.259206,
        "InPlanePhaseEncodingDirection": "COL",
        "MRAcquisitionType": "2D",
        "MagneticFieldStrength": 3.0,
        "Manufacturer": "SIEMENS",
        "ManufacturerModelName": "Prisma_fit",
        "Modality": "MR",
        "NumberOfAverages": 1.0,
        "NumberOfPhaseEncodingSteps": 104,
        "PercentPhaseFieldOfView": 100.0,
        "PercentSampling": 100.0,
        "PerformedProcedureStepStartTime": "131101.066000",
        "PhotometricInterpretation": "MONOCHROME2",
        "PixelBandwidth": 2290.0,
        "PixelRepresentation": 0,
        "PixelSpacing": [
          2.0,
          2.0
        ],
        "ProtocolName": "func_task-wolf5",
        "RepetitionTime": 1490.0,
        "Rows": 832,
        "SAR": 0.02822289186432,
        "SamplesPerPixel": 1,
        "ScanOptions": "FS",
        "ScanningSequence": "EP",
        "SequenceName": "epfid2d1_104",
        "SequenceVariant": [
          "SK",
          "SS"
        ],
        "SeriesDescription": "func_task-wolf5",
        "SeriesNumber": 18,
        "SeriesTime": "141321.489000",
        "SliceLocation": -48.140464597987,
        "SliceThickness": 2.0,
        "SmallestImagePixelValue": 0,
        "SoftwareVersions": "syngo MR E11",
        "SpacingBetweenSlices": 2.0000000475686,
        "SpecificCharacterSet": "ISO_IR 100",
        "StudyID": "1",
        "StudyTime": "131100.930000",
        "TransmitCoilName": "Body",
        "VariableFlipAngleFlag": "N",
        "WindowCenterWidthExplanation": "Algo1",
        "dBdt": 0.0
      },
      "slices": {}
    },
    "modality": "bold",
    "session_id": "009",
    "subject_id": "06",
    "task_id": "wolf05",
    "time": {
      "samples": {
        "AcquisitionNumber": [
          1,
          2,
          3,
          4,
          5,
          6,
          7,
          8,
          9,
          10,
          11,
          12,
          13,
          14,
          15,
          16,
          17,
          18,
          19,
          20,
          21,
          22,
          23,
          24,
          25,
          26,
          27,
          28,
          29,
          30,
          31,
          32,
          33,
          34,
          35,
          36,
          37,
          38,
          39,
          40,
          41,
          42,
          43,
          44,
          45,
          46,
          47,
          48,
          49,
          50,
          51,
          52,
          53,
          54,
          55,
          56,
          57,
          58,
          59,
          60,
          61,
          62,
          63,
          64,
          65,
          66,
          67,
          68,
          69,
          70,
          71,
          72,
          73,
          74,
          75,
          76,
          77,
          78,
          79,
          80,
          81,
          82,
          83,
          84,
          85,
          86,
          87,
          88,
          89,
          90,
          91,
          92,
          93,
          94,
          95,
          96,
          97,
          98,
          99,
          100,
          101,
          102,
          103,
          104,
          105,
          106,
          107,
          108,
          109,
          110,
          111,
          112,
          113,
          114,
          115,
          116,
          117,
          118,
          119,
          120,
          121,
          122,
          123,
          124,
          125,
          126,
          127,
          128,
          129,
          130,
          131,
          132,
          133,
          134,
          135,
          136,
          137,
          138,
          139,
          140,
          141,
          142,
          143,
          144,
          145,
          146,
          147,
          148,
          149,
          150,
          151,
          152,
          153,
          154,
          155,
          156,
          157,
          158,
          159,
          160,
          161,
          162,
          163,
          164,
          165,
          166,
          167,
          168,
          169,
          170,
          171,
          172,
          173,
          174,
          175,
          176,
          177,
          178,
          179,
          180,
          181,
          182,
          183,
          184,
          185,
          186,
          187,
          188,
          189,
          190,
          191,
          192,
          193,
          194,
          195,
          196,
          197,
          198,
          199,
          200,
          201,
          202,
          203,
          204,
          205,
          206,
          207,
          208,
          209,
          210,
          211,
          212,
          213,
          214,
          215,
          216,
          217,
          218,
          219,
          220,
          221,
          222,
          223,
          224,
          225,
          226,
          227,
          228,
          229,
          230,
          231,
          232,
          233,
          234,
          235,
          236,
          237,
          238,
          239,
          240,
          241,
          242,
          243,
          244,
          245,
          246,
          247,
          248,
          249,
          250,
          251,
          252,
          253,
          254,
          255,
          256,
          257,
          258,
          259,
          260,
          261,
          262,
          263,
          264,
          265,
          266,
          267,
          268,
          269,
          270,
          271,
          272,
          273,
          274,
          275,
          276,
          277,
          278,
          279,
          280,
          281,
          282,
          283,
          284,
          285,
          286,
          287,
          288,
          289,
          290,
          291,
          292,
          293,
          294,
          295,
          296,
          297,
          298,
          299,
          300,
          301,
          302,
          303,
          304,
          305,
          306,
          307,
          308,
          309,
          310,
          311,
          312,
          313,
          314,
          315,
          316,
          317,
          318,
          319,
          320,
          321,
          322,
          323,
          324,
          325,
          326,
          327,
          328,
          329,
          330,
          331,
          332,
          333,
          334,
          335,
          336,
          337,
          338,
          339,
          340,
          341,
          342,
          343,
          344,
          345,
          346,
          347,
          348,
          349,
          350,
          351,
          352,
          353,
          354,
          355,
          356,
          357,
          358,
          359,
          360,
          361,
          362,
          363,
          364,
          365,
          366,
          367,
          368,
          369,
          370,
          371,
          372,
          373,
          374,
          375,
          376,
          377,
          378,
          379,
          380,
          381,
          382,
          383,
          384,
          385,
          386,
          387,
          388,
          389,
          390,
          391,
          392,
          393,
          394,
          395,
          396,
          397,
          398,
          399,
          400,
          401,
          402,
          403,
          404,
          405,
          406,
          407
        ],
        "AcquisitionTime": [
          "141152.387500",
          "141153.877500",
          "141155.367500",
          "141156.857500",
          "141158.347500",
          "141159.837500",
          "141201.327500",
          "141202.817500",
          "141204.307500",
          "141205.797500",
          "141207.287500",
          "141208.777500",
          "141210.267500",
          "141211.757500",
          "141213.247500",
          "141214.737500",
          "141216.227500",
          "141217.717500",
          "141219.207500",
          "141220.697500",
          "141222.187500",
          "141223.677500",
          "141225.167500",
          "141226.657500",
          "141228.147500",
          "141229.637500",
          "141231.127500",
          "141232.617500",
          "141234.107500",
          "141235.597500",
          "141237.087500",
          "141238.577500",
          "141240.067500",
          "141241.557500",
          "141243.047500",
          "141244.537500",
          "141246.027500",
          "141247.517500",
          "141249.007500",
          "141250.497500",
          "141251.987500",
          "141253.477500",
          "141254.967500",
          "141256.457500",
          "141257.947500",
          "141259.437500",
          "141300.927500",
          "141302.417500",
          "141303.907500",
          "141305.397500",
          "141306.887500",
          "141308.377500",
          "141309.867500",
          "141311.357500",
          "141312.847500",
          "141314.337500",
          "141315.827500",
          "141317.317500",
          "141318.807500",
          "141320.297500",
          "141321.787500",
          "141323.277500",
          "141324.767500",
          "141326.257500",
          "141327.747500",
          "141329.237500",
          "141330.727500",
          "141332.217500",
          "141333.707500",
          "141335.197500",
          "141336.687500",
          "141338.177500",
          "141339.667500",
          "141341.157500",
          "141342.647500",
          "141344.137500",
          "141345.627500",
          "141347.117500",
          "141348.607500",
          "141350.097500",
          "141351.587500",
          "141353.077500",
          "141354.567500",
          "141356.057500",
          "141357.547500",
          "141359.037500",
          "141400.527500",
          "141402.017500",
          "141403.507500",
          "141404.997500",
          "141406.487500",
          "141407.977500",
          "141409.467500",
          "141410.957500",
          "141412.447500",
          "141413.937500",
          "141415.427500",
          "141416.917500",
          "141418.407500",
          "141419.897500",
          "141421.387500",
          "141422.877500",
          "141424.367500",
          "141425.857500",
          "141427.347500",
          "141428.837500",
          "141430.327500",
          "141431.817500",
          "141433.307500",
          "141434.797500",
          "141436.287500",
          "141437.777500",
          "141439.267500",
          "141440.757500",
          "141442.247500",
          "141443.737500",
          "141445.227500",
          "141446.717500",
          "141448.207500",
          "141449.697500",
          "141451.187500",
          "141452.677500",
          "141454.167500",
          "141455.657500",
          "141457.147500",
          "141458.637500",
          "141500.127500",
          "141501.617500",
          "141503.107500",
          "141504.597500",
          "141506.087500",
          "141507.577500",
          "141509.067500",
          "141510.557500",
          "141512.047500",
          "141513.537500",
          "141515.027500",
          "141516.517500",
          "141518.007500",
          "141519.497500",
          "141520.987500",
          "141522.477500",
          "141523.967500",
          "141525.457500",
          "141526.947500",
          "141528.437500",
          "141529.927500",
          "141531.417500",
          "141532.907500",
          "141534.397500",
          "141535.887500",
          "141537.377500",
          "141538.867500",
          "141540.357500",
          "141541.847500",
          "141543.337500",
          "141544.827500",
          "141546.317500",
          "141547.807500",
          "141549.297500",
          "141550.787500",
          "141552.277500",
          "141553.767500",
          "141555.257500",
          "141556.747500",
          "141558.237500",
          "141559.727500",
          "141601.217500",
          "141602.707500",
          "141604.197500",
          "141605.687500",
          "141607.177500",
          "141608.667500",
          "141610.157500",
          "141611.647500",
          "141613.137500",
          "141614.627500",
          "141616.117500",
          "141617.607500",
          "141619.097500",
          "141620.587500",
          "141622.077500",
          "141623.567500",
          "141625.057500",
          "141626.547500",
          "141628.037500",
          "141629.527500",
          "141631.017500",
          "141632.507500",
          "141633.997500",
          "141635.487500",
          "141636.977500",
          "141638.467500",
          "141639.957500",
          "141641.447500",
          "141642.937500",
          "141644.427500",
          "141645.917500",
          "141647.407500",
          "141648.897500",
          "141650.387500",
          "141651.877500",
          "141653.367500",
          "141654.857500",
          "141656.347500",
          "141657.837500",
          "141659.327500",
          "141700.817500",
          "141702.307500",
          "141703.797500",
          "141705.287500",
          "141706.777500",
          "141708.267500",
          "141709.757500",
          "141711.247500",
          "141712.737500",
          "141714.227500",
          "141715.717500",
          "141717.207500",
          "141718.697500",
          "141720.187500",
          "141721.677500",
          "141723.167500",
          "141724.657500",
          "141726.147500",
          "141727.637500",
          "141729.127500",
          "141730.617500",
          "141732.107500",
          "141733.597500",
          "141735.087500",
          "141736.577500",
          "141738.067500",
          "141739.557500",
          "141741.047500",
          "141742.537500",
          "141744.027500",
          "141745.517500",
          "141747.007500",
          "141748.497500",
          "141749.987500",
          "141751.477500",
          "141752.967500",
          "141754.457500",
          "141755.947500",
          "141757.437500",
          "141758.927500",
          "141800.417500",
          "141801.907500",
          "141803.397500",
          "141804.887500",
          "141806.377500",
          "141807.867500",
          "141809.357500",
          "141810.847500",
          "141812.337500",
          "141813.827500",
          "141815.317500",
          "141816.807500",
          "141818.297500",
          "141819.787500",
          "141821.277500",
          "141822.767500",
          "141824.257500",
          "141825.747500",
          "141827.237500",
          "141828.727500",
          "141830.217500",
          "141831.707500",
          "141833.197500",
          "141834.687500",
          "141836.177500",
          "141837.667500",
          "141839.157500",
          "141840.647500",
          "141842.137500",
          "141843.627500",
          "141845.117500",
          "141846.607500",
          "141848.097500",
          "141849.587500",
          "141851.077500",
          "141852.567500",
          "141854.057500",
          "141855.547500",
          "141857.037500",
          "141858.527500",
          "141900.017500",
          "141901.507500",
          "141902.997500",
          "141904.487500",
          "141905.977500",
          "141907.467500",
          "141908.957500",
          "141910.447500",
          "141911.937500",
          "141913.427500",
          "141914.917500",
          "141916.407500",
          "141917.897500",
          "141919.387500",
          "141920.877500",
          "141922.367500",
          "141923.857500",
          "141925.347500",
          "141926.837500",
          "141928.327500",
          "141929.817500",
          "141931.307500",
          "141932.797500",
          "141934.287500",
          "141935.777500",
          "141937.267500",
          "141938.757500",
          "141940.247500",
          "141941.737500",
          "141943.227500",
          "141944.717500",
          "141946.207500",
          "141947.697500",
          "141949.187500",
          "141950.677500",
          "141952.167500",
          "141953.657500",
          "141955.147500",
          "141956.637500",
          "141958.127500",
          "141959.617500",
          "142001.107500",
          "142002.597500",
          "142004.087500",
          "142005.577500",
          "142007.067500",
          "142008.557500",
          "142010.047500",
          "142011.537500",
          "142013.027500",
          "142014.517500",
          "142016.007500",
          "142017.497500",
          "142018.987500",
          "142020.477500",
          "142021.967500",
          "142023.457500",
          "142024.947500",
          "142026.437500",
          "142027.927500",
          "142029.417500",
          "142030.907500",
          "142032.397500",
          "142033.887500",
          "142035.377500",
          "142036.867500",
          "142038.357500",
          "142039.847500",
          "142041.337500",
          "142042.827500",
          "142044.317500",
          "142045.807500",
          "142047.297500",
          "142048.787500",
          "142050.277500",
          "142051.767500",
          "142053.257500",
          "142054.747500",
          "142056.237500",
          "142057.727500",
          "142059.217500",
          "142100.707500",
          "142102.197500",
          "142103.687500",
          "142105.177500",
          "142106.667500",
          "142108.157500",
          "142109.647500",
          "142111.137500",
          "142112.627500",
          "142114.117500",
          "142115.607500",
          "142117.097500",
          "142118.587500",
          "142120.077500",
          "142121.567500",
          "142123.057500",
          "142124.547500",
          "142126.037500",
          "142127.527500",
          "142129.017500",
          "142130.507500",
          "142131.997500",
          "142133.487500",
          "142134.977500",
          "142136.467500",
          "142137.957500",
          "142139.447500",
          "142140.937500",
          "142142.427500",
          "142143.917500",
          "142145.407500",
          "142146.897500",
          "142148.387500",
          "142149.877500",
          "142151.367500",
          "142152.857500",
          "142154.347500",
          "142155.837500",
          "142157.327500"
        ],
        "ContentTime": [
          "141321.492000",
          "141321.495000",
          "141321.498000",
          "141321.501000",
          "141321.504000",
          "141321.507000",
          "141321.511000",
          "141321.514000",
          "141321.517000",
          "141321.519000",
          "141321.523000",
          "141321.526000",
          "141321.529000",
          "141321.531000",
          "141321.535000",
          "141321.538000",
          "141321.541000",
          "141321.544000",
          "141321.547000",
          "141321.550000",
          "141321.552000",
          "141321.555000",
          "141321.563000",
          "141321.566000",
          "141321.569000",
          "141321.572000",
          "141321.575000",
          "141321.578000",
          "141321.581000",
          "141321.584000",
          "141321.587000",
          "141321.590000",
          "141321.593000",
          "141321.596000",
          "141341.453000",
          "141341.456000",
          "141341.459000",
          "141341.462000",
          "141341.465000",
          "141341.468000",
          "141341.471000",
          "141341.474000",
          "141341.477000",
          "141341.480000",
          "141341.483000",
          "141341.486000",
          "141341.489000",
          "141341.492000",
          "141341.495000",
          "141341.498000",
          "141341.510000",
          "141341.513000",
          "141341.516000",
          "141341.519000",
          "141401.453000",
          "141401.456000",
          "141401.459000",
          "141401.462000",
          "141401.465000",
          "141401.468000",
          "141401.471000",
          "141401.474000",
          "141401.477000",
          "141401.480000",
          "141401.483000",
          "141401.486000",
          "141401.489000",
          "141401.492000",
          "141401.495000",
          "141401.498000",
          "141401.501000",
          "141401.504000",
          "141401.507000",
          "141401.510000",
          "141421.453000",
          "141421.456000",
          "141421.459000",
          "141421.462000",
          "141421.465000",
          "141421.468000",
          "141421.471000",
          "141421.474000",
          "141421.477000",
          "141421.481000",
          "141421.484000",
          "141421.487000",
          "141421.490000",
          "141421.493000",
          "141421.496000",
          "141421.499000",
          "141421.502000",
          "141421.505000",
          "141421.508000",
          "141421.511000",
          "141501.453000",
          "141501.456000",
          "141501.459000",
          "141501.462000",
          "141501.465000",
          "141501.468000",
          "141501.471000",
          "141501.474000",
          "141501.477000",
          "141501.480000",
          "141501.483000",
          "141501.486000",
          "141501.489000",
          "141501.492000",
          "141501.495000",
          "141501.498000",
          "141501.501000",
          "141501.504000",
          "141501.507000",
          "141501.510000",
          "141501.513000",
          "141501.516000",
          "141501.519000",
          "141501.531000",
          "141501.534000",
          "141501.537000",
          "141501.540000",
          "141501.543000",
          "141501.546000",
          "141501.549000",
          "141501.552000",
          "141501.555000",
          "141541.453000",
          "141541.456000",
          "141541.459000",
          "141541.462000",
          "141541.465000",
          "141541.468000",
          "141541.471000",
          "141541.474000",
          "141541.477000",
          "141541.480000",
          "141541.483000",
          "141541.486000",
          "141541.489000",
          "141541.492000",
          "141541.495000",
          "141541.498000",
          "141541.511000",
          "141541.515000",
          "141541.518000",
          "141541.521000",
          "141541.524000",
          "141541.527000",
          "141541.530000",
          "141541.533000",
          "141541.536000",
          "141541.539000",
          "141541.542000",
          "141621.453000",
          "141621.456000",
          "141621.459000",
          "141621.462000",
          "141621.465000",
          "141621.468000",
          "141621.471000",
          "141621.474000",
          "141621.477000",
          "141621.480000",
          "141621.483000",
          "141621.486000",
          "141621.489000",
          "141621.492000",
          "141621.495000",
          "141621.498000",
          "141621.501000",
          "141621.504000",
          "141621.507000",
          "141621.510000",
          "141621.513000",
          "141621.516000",
          "141621.519000",
          "141621.522000",
          "141621.525000",
          "141621.528000",
          "141621.531000",
          "141701.453000",
          "141701.456000",
          "141701.459000",
          "141701.462000",
          "141701.465000",
          "141701.468000",
          "141701.471000",
          "141701.474000",
          "141701.477000",
          "141701.480000",
          "141701.483000",
          "141701.486000",
          "141701.489000",
          "141701.492000",
          "141701.495000",
          "141701.498000",
          "141701.501000",
          "141701.504000",
          "141701.507000",
          "141701.510000",
          "141701.513000",
          "141701.516000",
          "141701.519000",
          "141701.527000",
          "141701.529000",
          "141701.532000",
          "141701.535000",
          "141741.453000",
          "141741.456000",
          "141741.460000",
          "141741.463000",
          "141741.466000",
          "141741.468000",
          "141741.472000",
          "141741.475000",
          "141741.478000",
          "141741.481000",
          "141741.484000",
          "141741.487000",
          "141741.490000",
          "141741.493000",
          "141741.496000",
