{
  "aor": 0.0005116543209876543,
  "aqi": 0.007179415382716049,
  "bids_meta": {
    "AcquisitionMatrixPE": 104,
    "AcquisitionNumber": 1,
    "AcquisitionTime": "13:29:23.752500",
    "BandwidthPerPixelPhaseEncode": 17.17,
    "BaseResolution": 104,
    "BodyPartExamined": "BRAIN",
    "CogAtlasID": "trm_4c898da401420",
    "ConsistencyInfo": "N4_VE11C_LATEST_20160120",
    "ConversionSoftware": "dcm2niix",
    "ConversionSoftwareVersion": "v1.0.20171215 (OpenJPEG build) GCC7.3.0",
    "DerivedVendorReportedEchoSpacing": 0.000560011,
    "DeviceSerialNumber": "167006",
    "DwellTime": 2.1e-06,
    "EchoTime": 0.037,
    "EchoTrainLength": 104,
    "EffectiveEchoSpacing": 0.000560011,
    "FlipAngle": 52,
    "ImageComments": "Unaliased_MB4_PE3_LB",
    "ImageOrientationPatientDICOM": [
      0.999798,
      0.0194905,
      -0.00487832,
      -0.02007,
      0.957552,
      -0.287561
    ],
    "ImageType": [
      "ORIGINAL",
      "PRIMARY",
      "M",
      "MB",
      "ND",
      "MOSAIC"
    ],
    "InPlanePhaseEncodingDirectionDICOM": "COL",
    "InstitutionAddress": "Chemin_Queen-Mary_4565_Montreal_District_CA_H3W_1W5",
    "InstitutionName": "IUGM",
    "InstitutionalDepartmentName": "Department",
    "MRAcquisitionType": "2D",
    "MagneticFieldStrength": 3,
    "Manufacturer": "Siemens",
    "ManufacturersModelName": "Prisma_fit",
    "Modality": "MR",
    "MultibandAccelerationFactor": 4,
    "PartialFourier": 1,
    "PatientPosition": "HFS",
    "PercentPhaseFOV": 100,
    "PhaseEncodingDirection": "j-",
    "PhaseEncodingSteps": 104,
    "PhaseResolution": 1,
    "PixelBandwidth": 2290,
    "ProcedureStepDescription": "video5_generic",
    "ProtocolName": "func_task-wolf1",
    "PulseSequenceDetails": "%CustomerSeq%_cmrr_mbep2d_bold",
    "ReceiveCoilActiveElements": "HC1-7;NC1,2",
    "ReceiveCoilName": "HeadNeck_64",
    "ReconMatrixPE": 104,
    "RepetitionTime": 1.49,
    "SAR": 0.0282229,
    "ScanOptions": "FS",
    "ScanningSequence": "EP",
    "SequenceName": "epfid2d1_104",
    "SequenceVariant": "SK_SS",
    "SeriesDescription": "func_task-wolf1",
    "SeriesNumber": 10,
    "ShimSetting": [
      629,
      -7244,
      -8852,
      610,
      34,
      -207,
      -73,
      9
    ],
    "SliceThickness": 2,
    "SliceTiming": [
      0,
      0.785,
      0.0975,
      0.8825,
      0.1975,
      0.98,
      0.295,
      1.0775,
      0.3925,
      1.175,
      0.49,
      1.275,
      0.5875,
      1.3725,
      0.685,
      0,
      0.785,
      0.0975,
      0.8825,
      0.1975,
      0.98,
      0.295,
      1.0775,
      0.3925,
      1.175,
      0.49,
      1.275,
      0.5875,
      1.3725,
      0.685,
      0,
      0.785,
      0.0975,
      0.8825,
      0.1975,
      0.98,
      0.295,
      1.0775,
      0.3925,
      1.175,
      0.49,
      1.275,
      0.5875,
      1.3725,
      0.685,
      0,
      0.785,
      0.0975,
      0.8825,
      0.1975,
      0.98,
      0.295,
      1.0775,
      0.3925,
      1.175,
      0.49,
      1.275,
      0.5875,
      1.3725,
      0.685
    ],
    "SoftwareVersions": "syngo_MR_E11",
    "SpacingBetweenSlices": 2,
    "StationName": "MRC35049",
    "TaskName": "wolf01",
    "TotalReadoutTime": 0.0576811,
    "TxRefAmp": 218.544,
    "dataset": "<unset>",
    "dcmmeta_affine": [
      [
        -1.9995962381362915,
        -0.040139973163604736,
        0.0018669122364372015,
        107.32320404052734
      ],
      [
        -0.03898090124130249,
        1.915103793144226,
        -0.5752025246620178,
        -61.83209228515625
      ],
      [
        -0.009756641462445259,
        0.5751228332519531,
        1.9154995679855347,
        -68.93620300292969
      ],
      [
        0.0,
        0.0,
        0.0,
        1.0
      ]
    ],
    "dcmmeta_reorient_transform": [
      [
        0.0,
        -1.0,
        0.0,
        103.0
      ],
      [
        1.0,
        0.0,
        0.0,
        0.0
      ],
      [
        0.0,
        0.0,
        1.0,
        0.0
      ],
      [
        0.0,
        0.0,
        0.0,
        1.0
      ]
    ],
    "dcmmeta_shape": [
      104,
      104,
      60,
      407
    ],
    "dcmmeta_slice_dim": 2,
    "dcmmeta_version": 0.6,
    "global": {
      "const": {
        "AcquisitionMatrix": [
          104,
          0,
          0,
          104
        ],
        "AngioFlag": "N",
        "BitsAllocated": 16,
        "BitsStored": 16,
        "BodyPartExamined": "BRAIN",
        "Columns": 832,
        "EchoNumbers": 1,
        "EchoTime": 37.0,
        "EchoTrainLength": 104,
        "FlipAngle": 52.0,
        "HighBit": 15,
        "ImageOrientationPatient": [
          0.9997981417939,
          0.019490450298,
          -0.0048783206787,
          -0.0200699856798,
          0.95755189574928,
          -0.2875614066974
        ],
        "ImagePositionPatient": [
          -816.43088363474,
          -846.71042728488,
          203.19756756283
        ],
        "ImageType": [
          "ORIGINAL",
          "PRIMARY",
          "M",
          "MB",
          "ND",
          "MOSAIC"
        ],
        "ImagedNucleus": "1H",
        "ImagingFrequency": 123.259187,
        "InPlanePhaseEncodingDirection": "COL",
        "MRAcquisitionType": "2D",
        "MagneticFieldStrength": 3.0,
        "Manufacturer": "SIEMENS",
        "ManufacturerModelName": "Prisma_fit",
        "Modality": "MR",
        "NumberOfAverages": 1.0,
        "NumberOfPhaseEncodingSteps": 104,
        "PercentPhaseFieldOfView": 100.0,
        "PercentSampling": 100.0,
        "PerformedProcedureStepStartTime": "131101.066000",
        "PhotometricInterpretation": "MONOCHROME2",
        "PixelBandwidth": 2290.0,
        "PixelRepresentation": 0,
        "PixelSpacing": [
          2.0,
          2.0
        ],
        "ProtocolName": "func_task-wolf1",
        "RepetitionTime": 1490.0,
        "Rows": 832,
        "SAR": 0.02822289186432,
        "SamplesPerPixel": 1,
        "ScanOptions": "FS",
        "ScanningSequence": "EP",
        "SequenceName": "epfid2d1_104",
        "SequenceVariant": [
          "SK",
          "SS"
        ],
        "SeriesDescription": "func_task-wolf1",
        "SeriesNumber": 10,
        "SeriesTime": "133101.419000",
        "SliceLocation": -48.140464597987,
        "SliceThickness": 2.0,
        "SmallestImagePixelValue": 0,
        "SoftwareVersions": "syngo MR E11",
        "SpacingBetweenSlices": 2.0000000475686,
        "SpecificCharacterSet": "ISO_IR 100",
        "StudyID": "1",
        "StudyTime": "131100.930000",
        "TransmitCoilName": "Body",
        "VariableFlipAngleFlag": "N",
        "WindowCenterWidthExplanation": "Algo1",
        "dBdt": 0.0
      },
      "slices": {}
    },
    "modality": "bold",
    "session_id": "009",
    "subject_id": "06",
    "task_id": "wolf01",
    "time": {
      "samples": {
        "AcquisitionNumber": [
          1,
          2,
          3,
          4,
          5,
          6,
          7,
          8,
          9,
          10,
          11,
          12,
          13,
          14,
          15,
          16,
          17,
          18,
          19,
          20,
          21,
          22,
          23,
          24,
          25,
          26,
          27,
          28,
          29,
          30,
          31,
          32,
          33,
          34,
          35,
          36,
          37,
          38,
          39,
          40,
          41,
          42,
          43,
          44,
          45,
          46,
          47,
          48,
          49,
          50,
          51,
          52,
          53,
          54,
          55,
          56,
          57,
          58,
          59,
          60,
          61,
          62,
          63,
          64,
          65,
          66,
          67,
          68,
          69,
          70,
          71,
          72,
          73,
          74,
          75,
          76,
          77,
          78,
          79,
          80,
          81,
          82,
          83,
          84,
          85,
          86,
          87,
          88,
          89,
          90,
          91,
          92,
          93,
          94,
          95,
          96,
          97,
          98,
          99,
          100,
          101,
          102,
          103,
          104,
          105,
          106,
          107,
          108,
          109,
          110,
          111,
          112,
          113,
          114,
          115,
          116,
          117,
          118,
          119,
          120,
          121,
          122,
          123,
          124,
          125,
          126,
          127,
          128,
          129,
          130,
          131,
          132,
          133,
          134,
          135,
          136,
          137,
          138,
          139,
          140,
          141,
          142,
          143,
          144,
          145,
          146,
          147,
          148,
          149,
          150,
          151,
          152,
          153,
          154,
          155,
          156,
          157,
          158,
          159,
          160,
          161,
          162,
          163,
          164,
          165,
          166,
          167,
          168,
          169,
          170,
          171,
          172,
          173,
          174,
          175,
          176,
          177,
          178,
          179,
          180,
          181,
          182,
          183,
          184,
          185,
          186,
          187,
          188,
          189,
          190,
          191,
          192,
          193,
          194,
          195,
          196,
          197,
          198,
          199,
          200,
          201,
          202,
          203,
          204,
          205,
          206,
          207,
          208,
          209,
          210,
          211,
          212,
          213,
          214,
          215,
          216,
          217,
          218,
          219,
          220,
          221,
          222,
          223,
          224,
          225,
          226,
          227,
          228,
          229,
          230,
          231,
          232,
          233,
          234,
          235,
          236,
          237,
          238,
          239,
          240,
          241,
          242,
          243,
          244,
          245,
          246,
          247,
          248,
          249,
          250,
          251,
          252,
          253,
          254,
          255,
          256,
          257,
          258,
          259,
          260,
          261,
          262,
          263,
          264,
          265,
          266,
          267,
          268,
          269,
          270,
          271,
          272,
          273,
          274,
          275,
          276,
          277,
          278,
          279,
          280,
          281,
          282,
          283,
          284,
          285,
          286,
          287,
          288,
          289,
          290,
          291,
          292,
          293,
          294,
          295,
          296,
          297,
          298,
          299,
          300,
          301,
          302,
          303,
          304,
          305,
          306,
          307,
          308,
          309,
          310,
          311,
          312,
          313,
          314,
          315,
          316,
          317,
          318,
          319,
          320,
          321,
          322,
          323,
          324,
          325,
          326,
          327,
          328,
          329,
          330,
          331,
          332,
          333,
          334,
          335,
          336,
          337,
          338,
          339,
          340,
          341,
          342,
          343,
          344,
          345,
          346,
          347,
          348,
          349,
          350,
          351,
          352,
          353,
          354,
          355,
          356,
          357,
          358,
          359,
          360,
          361,
          362,
          363,
          364,
          365,
          366,
          367,
          368,
          369,
          370,
          371,
          372,
          373,
          374,
          375,
          376,
          377,
          378,
          379,
          380,
          381,
          382,
          383,
          384,
          385,
          386,
          387,
          388,
          389,
          390,
          391,
          392,
          393,
          394,
          395,
          396,
          397,
          398,
          399,
          400,
          401,
          402,
          403,
          404,
          405,
          406,
          407
        ],
        "AcquisitionTime": [
          "132923.752500",
          "132925.242500",
          "132926.732500",
          "132928.222500",
          "132929.712500",
          "132931.202500",
          "132932.692500",
          "132934.182500",
          "132935.672500",
          "132937.162500",
          "132938.652500",
          "132940.142500",
          "132941.632500",
          "132943.122500",
          "132944.612500",
          "132946.102500",
          "132947.592500",
          "132949.082500",
          "132950.572500",
          "132952.062500",
          "132953.552500",
          "132955.042500",
          "132956.532500",
          "132958.022500",
          "132959.512500",
          "133001.002500",
          "133002.492500",
          "133003.982500",
          "133005.472500",
          "133006.962500",
          "133008.452500",
          "133009.942500",
          "133011.432500",
          "133012.922500",
          "133014.412500",
          "133015.902500",
          "133017.392500",
          "133018.882500",
          "133020.372500",
          "133021.862500",
          "133023.352500",
          "133024.842500",
          "133026.332500",
          "133027.822500",
          "133029.312500",
          "133030.802500",
          "133032.292500",
          "133033.782500",
          "133035.272500",
          "133036.762500",
          "133038.252500",
          "133039.742500",
          "133041.232500",
          "133042.722500",
          "133044.212500",
          "133045.702500",
          "133047.192500",
          "133048.682500",
          "133050.172500",
          "133051.662500",
          "133053.152500",
          "133054.642500",
          "133056.132500",
          "133057.622500",
          "133059.112500",
          "133100.602500",
          "133102.092500",
          "133103.582500",
          "133105.072500",
          "133106.562500",
          "133108.052500",
          "133109.542500",
          "133111.032500",
          "133112.522500",
          "133114.012500",
          "133115.502500",
          "133116.992500",
          "133118.482500",
          "133119.972500",
          "133121.462500",
          "133122.952500",
          "133124.442500",
          "133125.932500",
          "133127.422500",
          "133128.912500",
          "133130.402500",
          "133131.892500",
          "133133.382500",
          "133134.872500",
          "133136.362500",
          "133137.852500",
          "133139.342500",
          "133140.832500",
          "133142.322500",
          "133143.812500",
          "133145.302500",
          "133146.792500",
          "133148.282500",
          "133149.772500",
          "133151.262500",
          "133152.752500",
          "133154.242500",
          "133155.732500",
          "133157.222500",
          "133158.712500",
          "133200.202500",
          "133201.692500",
          "133203.182500",
          "133204.672500",
          "133206.162500",
          "133207.652500",
          "133209.142500",
          "133210.632500",
          "133212.122500",
          "133213.612500",
          "133215.102500",
          "133216.592500",
          "133218.082500",
          "133219.572500",
          "133221.062500",
          "133222.552500",
          "133224.042500",
          "133225.532500",
          "133227.022500",
          "133228.512500",
          "133230.002500",
          "133231.492500",
          "133232.982500",
          "133234.472500",
          "133235.962500",
          "133237.452500",
          "133238.942500",
          "133240.432500",
          "133241.922500",
          "133243.412500",
          "133244.902500",
          "133246.392500",
          "133247.882500",
          "133249.372500",
          "133250.862500",
          "133252.352500",
          "133253.842500",
          "133255.332500",
          "133256.822500",
          "133258.312500",
          "133259.802500",
          "133301.292500",
          "133302.782500",
          "133304.272500",
          "133305.762500",
          "133307.252500",
          "133308.742500",
          "133310.232500",
          "133311.722500",
          "133313.212500",
          "133314.702500",
          "133316.192500",
          "133317.682500",
          "133319.172500",
          "133320.662500",
          "133322.152500",
          "133323.642500",
          "133325.132500",
          "133326.622500",
          "133328.112500",
          "133329.602500",
          "133331.092500",
          "133332.582500",
          "133334.072500",
          "133335.562500",
          "133337.052500",
          "133338.542500",
          "133340.032500",
          "133341.522500",
          "133343.012500",
          "133344.502500",
          "133345.992500",
          "133347.482500",
          "133348.972500",
          "133350.462500",
          "133351.952500",
          "133353.442500",
          "133354.932500",
          "133356.422500",
          "133357.912500",
          "133359.402500",
          "133400.892500",
          "133402.382500",
          "133403.872500",
          "133405.362500",
          "133406.852500",
          "133408.342500",
          "133409.832500",
          "133411.322500",
          "133412.812500",
          "133414.302500",
          "133415.792500",
          "133417.282500",
          "133418.772500",
          "133420.262500",
          "133421.752500",
          "133423.242500",
          "133424.732500",
          "133426.222500",
          "133427.712500",
          "133429.202500",
          "133430.692500",
          "133432.182500",
          "133433.672500",
          "133435.162500",
          "133436.652500",
          "133438.142500",
          "133439.632500",
          "133441.122500",
          "133442.612500",
          "133444.102500",
          "133445.592500",
          "133447.082500",
          "133448.572500",
          "133450.062500",
          "133451.552500",
          "133453.042500",
          "133454.532500",
          "133456.022500",
          "133457.512500",
          "133459.002500",
          "133500.492500",
          "133501.982500",
          "133503.472500",
          "133504.962500",
          "133506.452500",
          "133507.942500",
          "133509.432500",
          "133510.922500",
          "133512.412500",
          "133513.902500",
          "133515.392500",
          "133516.882500",
          "133518.372500",
          "133519.862500",
          "133521.352500",
          "133522.842500",
          "133524.332500",
          "133525.822500",
          "133527.312500",
          "133528.802500",
          "133530.292500",
          "133531.782500",
          "133533.272500",
          "133534.762500",
          "133536.252500",
          "133537.742500",
          "133539.232500",
          "133540.722500",
          "133542.212500",
          "133543.702500",
          "133545.192500",
          "133546.682500",
          "133548.172500",
          "133549.662500",
          "133551.152500",
          "133552.642500",
          "133554.132500",
          "133555.622500",
          "133557.112500",
          "133558.602500",
          "133600.092500",
          "133601.582500",
          "133603.072500",
          "133604.562500",
          "133606.052500",
          "133607.542500",
          "133609.032500",
          "133610.522500",
          "133612.012500",
          "133613.502500",
          "133614.992500",
          "133616.482500",
          "133617.972500",
          "133619.462500",
          "133620.952500",
          "133622.442500",
          "133623.932500",
          "133625.422500",
          "133626.912500",
          "133628.402500",
          "133629.892500",
          "133631.382500",
          "133632.872500",
          "133634.362500",
          "133635.852500",
          "133637.342500",
          "133638.832500",
          "133640.322500",
          "133641.812500",
          "133643.302500",
          "133644.792500",
          "133646.282500",
          "133647.772500",
          "133649.262500",
          "133650.752500",
          "133652.242500",
          "133653.732500",
          "133655.222500",
          "133656.712500",
          "133658.202500",
          "133659.692500",
          "133701.182500",
          "133702.672500",
          "133704.162500",
          "133705.652500",
          "133707.142500",
          "133708.632500",
          "133710.122500",
          "133711.612500",
          "133713.102500",
          "133714.592500",
          "133716.082500",
          "133717.572500",
          "133719.062500",
          "133720.552500",
          "133722.042500",
          "133723.532500",
          "133725.022500",
          "133726.512500",
          "133728.002500",
          "133729.492500",
          "133730.982500",
          "133732.472500",
          "133733.962500",
          "133735.452500",
          "133736.942500",
          "133738.432500",
          "133739.922500",
          "133741.412500",
          "133742.902500",
          "133744.392500",
          "133745.882500",
          "133747.372500",
          "133748.862500",
          "133750.352500",
          "133751.842500",
          "133753.332500",
          "133754.822500",
          "133756.312500",
          "133757.802500",
          "133759.292500",
          "133800.782500",
          "133802.272500",
          "133803.762500",
          "133805.252500",
          "133806.742500",
          "133808.232500",
          "133809.722500",
          "133811.212500",
          "133812.702500",
          "133814.192500",
          "133815.682500",
          "133817.172500",
          "133818.662500",
          "133820.152500",
          "133821.642500",
          "133823.132500",
          "133824.622500",
          "133826.112500",
          "133827.602500",
          "133829.092500",
          "133830.582500",
          "133832.072500",
          "133833.562500",
          "133835.052500",
          "133836.542500",
          "133838.032500",
          "133839.522500",
          "133841.012500",
          "133842.502500",
          "133843.992500",
          "133845.482500",
          "133846.972500",
          "133848.462500",
          "133849.952500",
          "133851.442500",
          "133852.932500",
          "133854.422500",
          "133855.912500",
          "133857.402500",
          "133858.892500",
          "133900.382500",
          "133901.872500",
          "133903.362500",
          "133904.852500",
          "133906.342500",
          "133907.832500",
          "133909.322500",
          "133910.812500",
          "133912.302500",
          "133913.792500",
          "133915.282500",
          "133916.772500",
          "133918.262500",
          "133919.752500",
          "133921.242500",
          "133922.732500",
          "133924.222500",
          "133925.712500",
          "133927.202500",
          "133928.692500"
        ],
        "ContentTime": [
          "133101.422000",
          "133101.425000",
          "133101.428000",
          "133101.431000",
          "133101.435000",
          "133101.438000",
          "133101.441000",
          "133101.444000",
          "133101.447000",
          "133101.450000",
          "133101.453000",
          "133101.456000",
          "133101.459000",
          "133101.462000",
          "133101.465000",
          "133101.468000",
          "133101.471000",
          "133101.473000",
          "133101.476000",
          "133101.479000",
          "133101.482000",
          "133101.492000",
          "133101.494000",
          "133101.497000",
          "133141.383000",
          "133141.386000",
          "133141.389000",
          "133141.392000",
          "133141.395000",
          "133141.398000",
          "133141.401000",
          "133141.404000",
          "133141.407000",
          "133141.410000",
          "133141.413000",
          "133141.416000",
          "133141.419000",
          "133141.421000",
          "133141.424000",
          "133141.427000",
          "133141.439000",
          "133141.442000",
          "133141.445000",
          "133141.448000",
          "133141.451000",
          "133141.454000",
          "133141.457000",
          "133141.460000",
          "133141.463000",
          "133141.466000",
          "133141.469000",
          "133141.472000",
          "133141.475000",
          "133141.478000",
          "133141.481000",
          "133141.484000",
          "133141.487000",
          "133141.491000",
          "133141.494000",
          "133141.497000",
          "133141.505000",
          "133141.508000",
          "133141.517000",
          "133201.383000",
          "133201.386000",
          "133201.389000",
          "133201.392000",
          "133201.395000",
          "133201.398000",
          "133201.401000",
          "133201.403000",
          "133201.406000",
          "133201.409000",
          "133201.412000",
          "133201.416000",
          "133201.420000",
          "133201.424000",
          "133201.428000",
          "133201.431000",
          "133201.434000",
          "133201.459000",
          "133201.462000",
          "133201.465000",
          "133221.383000",
          "133221.386000",
          "133221.389000",
          "133221.392000",
          "133221.395000",
          "133221.408000",
          "133221.412000",
          "133221.415000",
          "133221.418000",
          "133221.421000",
          "133221.424000",
          "133221.427000",
          "133221.430000",
          "133221.433000",
          "133221.436000",
          "133221.439000",
          "133221.442000",
          "133221.445000",
          "133221.448000",
          "133221.451000",
          "133241.383000",
          "133241.386000",
          "133241.389000",
          "133241.392000",
          "133241.395000",
          "133241.398000",
          "133241.401000",
          "133241.404000",
          "133241.407000",
          "133241.410000",
          "133241.413000",
          "133241.416000",
          "133241.419000",
          "133241.433000",
          "133241.436000",
          "133241.439000",
          "133241.441000",
          "133241.444000",
          "133241.447000",
          "133241.450000",
          "133241.453000",
          "133301.383000",
          "133301.386000",
          "133301.389000",
          "133301.392000",
          "133301.395000",
          "133301.398000",
          "133301.401000",
          "133301.404000",
          "133301.407000",
          "133301.410000",
          "133301.413000",
          "133301.416000",
          "133301.419000",
          "133301.422000",
          "133301.424000",
          "133301.427000",
          "133301.430000",
          "133301.433000",
          "133301.436000",
          "133301.439000",
          "133341.383000",
          "133341.386000",
          "133341.389000",
          "133341.392000",
          "133341.395000",
          "133341.398000",
          "133341.401000",
          "133341.404000",
          "133341.414000",
          "133341.417000",
          "133341.420000",
          "133341.423000",
          "133341.426000",
          "133341.429000",
          "133341.432000",
          "133341.435000",
          "133341.438000",
          "133341.441000",
          "133341.444000",
          "133341.447000",
          "133341.450000",
          "133341.453000",
          "133341.456000",
          "133341.459000",
          "133341.462000",
          "133341.465000",
          "133341.468000",
          "133341.471000",
          "133421.383000",
          "133421.386000",
          "133421.389000",
          "133421.392000",
          "133421.395000",
          "133421.398000",
          "133421.401000",
          "133421.404000",
          "133421.406000",
          "133421.409000",
          "133421.412000",
          "133421.415000",
          "133421.418000",
          "133421.421000",
          "133421.424000",
          "133421.427000",
          "133421.430000",
          "133421.433000",
          "133421.436000",
          "133421.439000",
          "133421.442000",
          "133421.445000",
          "133421.448000",
          "133421.451000",
          "133421.454000",
          "133421.457000",
          "133421.460000",
          "133501.383000",
          "133501.386000",
          "133501.389000",
          "133501.392000",
          "133501.395000",
          "133501.398000",
          "133501.401000",
          "133501.404000",
          "133501.407000",
          "133501.410000",
          "133501.413000",
          "133501.416000",
          "133501.419000",
          "133501.422000",
          "133501.425000",
          "133501.428000",
          "133501.431000",
          "133501.434000",
          "133501.437000",
          "133501.440000",
          "133501.443000",
          "133501.448000",
          "133501.452000",
