{
  "aor": 0.0004893596059113301,
  "aqi": 0.006818847931034483,
  "bids_meta": {
    "AcquisitionMatrixPE": 104,
    "AcquisitionNumber": 1,
    "AcquisitionTime": "14:39:52.905000",
    "BandwidthPerPixelPhaseEncode": 17.17,
    "BaseResolution": 104,
    "BodyPartExamined": "BRAIN",
    "CogAtlasID": "trm_4c898da401420",
    "ConsistencyInfo": "N4_VE11C_LATEST_20160120",
    "ConversionSoftware": "dcm2niix",
    "ConversionSoftwareVersion": "v1.0.20171215 (OpenJPEG build) GCC7.3.0",
    "DerivedVendorReportedEchoSpacing": 0.000560011,
    "DeviceSerialNumber": "167006",
    "DwellTime": 2.1e-06,
    "EchoTime": 0.037,
    "EchoTrainLength": 104,
    "EffectiveEchoSpacing": 0.000560011,
    "FlipAngle": 52,
    "ImageComments": "Unaliased_MB4_PE3_LB",
    "ImageOrientationPatientDICOM": [
      0.999798,
      0.0194905,
      -0.00487832,
      -0.02007,
      0.957552,
      -0.287561
    ],
    "ImageType": [
      "ORIGINAL",
      "PRIMARY",
      "M",
      "MB",
      "ND",
      "MOSAIC"
    ],
    "InPlanePhaseEncodingDirectionDICOM": "COL",
    "InstitutionAddress": "Chemin_Queen-Mary_4565_Montreal_District_CA_H3W_1W5",
    "InstitutionName": "IUGM",
    "InstitutionalDepartmentName": "Department",
    "MRAcquisitionType": "2D",
    "MagneticFieldStrength": 3,
    "Manufacturer": "Siemens",
    "ManufacturersModelName": "Prisma_fit",
    "Modality": "MR",
    "MultibandAccelerationFactor": 4,
    "PartialFourier": 1,
    "PatientPosition": "HFS",
    "PercentPhaseFOV": 100,
    "PhaseEncodingDirection": "j-",
    "PhaseEncodingSteps": 104,
    "PhaseResolution": 1,
    "PixelBandwidth": 2290,
    "ProcedureStepDescription": "video5_generic",
    "ProtocolName": "func_task-wolf7",
    "PulseSequenceDetails": "%CustomerSeq%_cmrr_mbep2d_bold",
    "ReceiveCoilActiveElements": "HC1-7;NC1,2",
    "ReceiveCoilName": "HeadNeck_64",
    "ReconMatrixPE": 104,
    "RepetitionTime": 1.49,
    "SAR": 0.0282229,
    "ScanOptions": "FS",
    "ScanningSequence": "EP",
    "SequenceName": "epfid2d1_104",
    "SequenceVariant": "SK_SS",
    "SeriesDescription": "func_task-wolf7",
    "SeriesNumber": 22,
    "ShimSetting": [
      629,
      -7244,
      -8852,
      610,
      34,
      -207,
      -73,
      9
    ],
    "SliceThickness": 2,
    "SliceTiming": [
      0,
      0.785,
      0.1,
      0.8825,
      0.1975,
      0.98,
      0.295,
      1.08,
      0.3925,
      1.1775,
      0.49,
      1.275,
      0.59,
      1.3725,
      0.6875,
      0,
      0.785,
      0.1,
      0.8825,
      0.1975,
      0.98,
      0.295,
      1.08,
      0.3925,
      1.1775,
      0.49,
      1.275,
      0.59,
      1.3725,
      0.6875,
      0,
      0.785,
      0.1,
      0.8825,
      0.1975,
      0.98,
      0.295,
      1.08,
      0.3925,
      1.1775,
      0.49,
      1.275,
      0.59,
      1.3725,
      0.6875,
      0,
      0.785,
      0.1,
      0.8825,
      0.1975,
      0.98,
      0.295,
      1.08,
      0.3925,
      1.1775,
      0.49,
      1.275,
      0.59,
      1.3725,
      0.6875
    ],
    "SoftwareVersions": "syngo_MR_E11",
    "SpacingBetweenSlices": 2,
    "StationName": "MRC35049",
    "TaskName": "wolf07",
    "TotalReadoutTime": 0.0576811,
    "TxRefAmp": 218.544,
    "dataset": "<unset>",
    "dcmmeta_affine": [
      [
        -1.9995962381362915,
        -0.040139973163604736,
        0.0018669122364372015,
        107.32320404052734
      ],
      [
        -0.03898090124130249,
        1.915103793144226,
        -0.5752025246620178,
        -61.83209228515625
      ],
      [
        -0.009756641462445259,
        0.5751228332519531,
        1.9154995679855347,
        -68.93620300292969
      ],
      [
        0.0,
        0.0,
        0.0,
        1.0
      ]
    ],
    "dcmmeta_reorient_transform": [
      [
        0.0,
        -1.0,
        0.0,
        103.0
      ],
      [
        1.0,
        0.0,
        0.0,
        0.0
      ],
      [
        0.0,
        0.0,
        1.0,
        0.0
      ],
      [
        0.0,
        0.0,
        0.0,
        1.0
      ]
    ],
    "dcmmeta_shape": [
      104,
      104,
      60,
      407
    ],
    "dcmmeta_slice_dim": 2,
    "dcmmeta_version": 0.6,
    "global": {
      "const": {
        "AcquisitionMatrix": [
          104,
          0,
          0,
          104
        ],
        "AngioFlag": "N",
        "BitsAllocated": 16,
        "BitsStored": 16,
        "BodyPartExamined": "BRAIN",
        "Columns": 832,
        "EchoNumbers": 1,
        "EchoTime": 37.0,
        "EchoTrainLength": 104,
        "FlipAngle": 52.0,
        "HighBit": 15,
        "ImageOrientationPatient": [
          0.9997981417939,
          0.019490450298,
          -0.0048783206787,
          -0.0200699856798,
          0.95755189574928,
          -0.2875614066974
        ],
        "ImagePositionPatient": [
          -816.43088363474,
          -846.71042728488,
          203.19756756283
        ],
        "ImageType": [
          "ORIGINAL",
          "PRIMARY",
          "M",
          "MB",
          "ND",
          "MOSAIC"
        ],
        "ImagedNucleus": "1H",
        "ImagingFrequency": 123.259209,
        "InPlanePhaseEncodingDirection": "COL",
        "MRAcquisitionType": "2D",
        "MagneticFieldStrength": 3.0,
        "Manufacturer": "SIEMENS",
        "ManufacturerModelName": "Prisma_fit",
        "Modality": "MR",
        "NumberOfAverages": 1.0,
        "NumberOfPhaseEncodingSteps": 104,
        "PercentPhaseFieldOfView": 100.0,
        "PercentSampling": 100.0,
        "PerformedProcedureStepStartTime": "131101.066000",
        "PhotometricInterpretation": "MONOCHROME2",
        "PixelBandwidth": 2290.0,
        "PixelRepresentation": 0,
        "PixelSpacing": [
          2.0,
          2.0
        ],
        "ProtocolName": "func_task-wolf7",
        "RepetitionTime": 1490.0,
        "Rows": 832,
        "SAR": 0.02822289186432,
        "SamplesPerPixel": 1,
        "ScanOptions": "FS",
        "ScanningSequence": "EP",
        "SequenceName": "epfid2d1_104",
        "SequenceVariant": [
          "SK",
          "SS"
        ],
        "SeriesDescription": "func_task-wolf7",
        "SeriesNumber": 22,
        "SeriesTime": "144101.412000",
        "SliceLocation": -48.140464597987,
        "SliceThickness": 2.0,
        "SmallestImagePixelValue": 0,
        "SoftwareVersions": "syngo MR E11",
        "SpacingBetweenSlices": 2.0000000475686,
        "SpecificCharacterSet": "ISO_IR 100",
        "StudyID": "1",
        "StudyTime": "131100.930000",
        "TransmitCoilName": "Body",
        "VariableFlipAngleFlag": "N",
        "WindowCenterWidthExplanation": "Algo1",
        "dBdt": 0.0
      },
      "slices": {}
    },
    "modality": "bold",
    "session_id": "009",
    "subject_id": "06",
    "task_id": "wolf07",
    "time": {
      "samples": {
        "AcquisitionNumber": [
          1,
          2,
          3,
          4,
          5,
          6,
          7,
          8,
          9,
          10,
          11,
          12,
          13,
          14,
          15,
          16,
          17,
          18,
          19,
          20,
          21,
          22,
          23,
          24,
          25,
          26,
          27,
          28,
          29,
          30,
          31,
          32,
          33,
          34,
          35,
          36,
          37,
          38,
          39,
          40,
          41,
          42,
          43,
          44,
          45,
          46,
          47,
          48,
          49,
          50,
          51,
          52,
          53,
          54,
          55,
          56,
          57,
          58,
          59,
          60,
          61,
          62,
          63,
          64,
          65,
          66,
          67,
          68,
          69,
          70,
          71,
          72,
          73,
          74,
          75,
          76,
          77,
          78,
          79,
          80,
          81,
          82,
          83,
          84,
          85,
          86,
          87,
          88,
          89,
          90,
          91,
          92,
          93,
          94,
          95,
          96,
          97,
          98,
          99,
          100,
          101,
          102,
          103,
          104,
          105,
          106,
          107,
          108,
          109,
          110,
          111,
          112,
          113,
          114,
          115,
          116,
          117,
          118,
          119,
          120,
          121,
          122,
          123,
          124,
          125,
          126,
          127,
          128,
          129,
          130,
          131,
          132,
          133,
          134,
          135,
          136,
          137,
          138,
          139,
          140,
          141,
          142,
          143,
          144,
          145,
          146,
          147,
          148,
          149,
          150,
          151,
          152,
          153,
          154,
          155,
          156,
          157,
          158,
          159,
          160,
          161,
          162,
          163,
          164,
          165,
          166,
          167,
          168,
          169,
          170,
          171,
          172,
          173,
          174,
          175,
          176,
          177,
          178,
          179,
          180,
          181,
          182,
          183,
          184,
          185,
          186,
          187,
          188,
          189,
          190,
          191,
          192,
          193,
          194,
          195,
          196,
          197,
          198,
          199,
          200,
          201,
          202,
          203,
          204,
          205,
          206,
          207,
          208,
          209,
          210,
          211,
          212,
          213,
          214,
          215,
          216,
          217,
          218,
          219,
          220,
          221,
          222,
          223,
          224,
          225,
          226,
          227,
          228,
          229,
          230,
          231,
          232,
          233,
          234,
          235,
          236,
          237,
          238,
          239,
          240,
          241,
          242,
          243,
          244,
          245,
          246,
          247,
          248,
          249,
          250,
          251,
          252,
          253,
          254,
          255,
          256,
          257,
          258,
          259,
          260,
          261,
          262,
          263,
          264,
          265,
          266,
          267,
          268,
          269,
          270,
          271,
          272,
          273,
          274,
          275,
          276,
          277,
          278,
          279,
          280,
          281,
          282,
          283,
          284,
          285,
          286,
          287,
          288,
          289,
          290,
          291,
          292,
          293,
          294,
          295,
          296,
          297,
          298,
          299,
          300,
          301,
          302,
          303,
          304,
          305,
          306,
          307,
          308,
          309,
          310,
          311,
          312,
          313,
          314,
          315,
          316,
          317,
          318,
          319,
          320,
          321,
          322,
          323,
          324,
          325,
          326,
          327,
          328,
          329,
          330,
          331,
          332,
          333,
          334,
          335,
          336,
          337,
          338,
          339,
          340,
          341,
          342,
          343,
          344,
          345,
          346,
          347,
          348,
          349,
          350,
          351,
          352,
          353,
          354,
          355,
          356,
          357,
          358,
          359,
          360,
          361,
          362,
          363,
          364,
          365,
          366,
          367,
          368,
          369,
          370,
          371,
          372,
          373,
          374,
          375,
          376,
          377,
          378,
          379,
          380,
          381,
          382,
          383,
          384,
          385,
          386,
          387,
          388,
          389,
          390,
          391,
          392,
          393,
          394,
          395,
          396,
          397,
          398,
          399,
          400,
          401,
          402,
          403,
          404,
          405,
          406,
          407
        ],
        "AcquisitionTime": [
          "143952.905000",
          "143954.395000",
          "143955.885000",
          "143957.375000",
          "143958.865000",
          "144000.355000",
          "144001.845000",
          "144003.335000",
          "144004.825000",
          "144006.315000",
          "144007.805000",
          "144009.295000",
          "144010.785000",
          "144012.275000",
          "144013.765000",
          "144015.255000",
          "144016.745000",
          "144018.235000",
          "144019.725000",
          "144021.215000",
          "144022.705000",
          "144024.195000",
          "144025.685000",
          "144027.175000",
          "144028.665000",
          "144030.155000",
          "144031.645000",
          "144033.135000",
          "144034.625000",
          "144036.115000",
          "144037.605000",
          "144039.095000",
          "144040.585000",
          "144042.075000",
          "144043.565000",
          "144045.055000",
          "144046.545000",
          "144048.035000",
          "144049.525000",
          "144051.015000",
          "144052.505000",
          "144053.995000",
          "144055.485000",
          "144056.975000",
          "144058.465000",
          "144059.955000",
          "144101.445000",
          "144102.935000",
          "144104.425000",
          "144105.915000",
          "144107.405000",
          "144108.895000",
          "144110.385000",
          "144111.875000",
          "144113.365000",
          "144114.855000",
          "144116.345000",
          "144117.835000",
          "144119.325000",
          "144120.815000",
          "144122.305000",
          "144123.795000",
          "144125.285000",
          "144126.775000",
          "144128.265000",
          "144129.755000",
          "144131.245000",
          "144132.735000",
          "144134.225000",
          "144135.715000",
          "144137.205000",
          "144138.695000",
          "144140.185000",
          "144141.675000",
          "144143.165000",
          "144144.655000",
          "144146.145000",
          "144147.635000",
          "144149.125000",
          "144150.615000",
          "144152.105000",
          "144153.595000",
          "144155.085000",
          "144156.575000",
          "144158.065000",
          "144159.555000",
          "144201.045000",
          "144202.535000",
          "144204.025000",
          "144205.515000",
          "144207.005000",
          "144208.495000",
          "144209.985000",
          "144211.475000",
          "144212.965000",
          "144214.455000",
          "144215.945000",
          "144217.435000",
          "144218.925000",
          "144220.415000",
          "144221.905000",
          "144223.395000",
          "144224.885000",
          "144226.375000",
          "144227.865000",
          "144229.355000",
          "144230.845000",
          "144232.335000",
          "144233.825000",
          "144235.315000",
          "144236.805000",
          "144238.295000",
          "144239.785000",
          "144241.275000",
          "144242.765000",
          "144244.255000",
          "144245.745000",
          "144247.235000",
          "144248.725000",
          "144250.215000",
          "144251.705000",
          "144253.195000",
          "144254.685000",
          "144256.175000",
          "144257.665000",
          "144259.155000",
          "144300.645000",
          "144302.135000",
          "144303.625000",
          "144305.115000",
          "144306.605000",
          "144308.095000",
          "144309.585000",
          "144311.075000",
          "144312.565000",
          "144314.055000",
          "144315.545000",
          "144317.035000",
          "144318.525000",
          "144320.015000",
          "144321.505000",
          "144322.995000",
          "144324.485000",
          "144325.975000",
          "144327.465000",
          "144328.955000",
          "144330.445000",
          "144331.935000",
          "144333.425000",
          "144334.915000",
          "144336.405000",
          "144337.895000",
          "144339.385000",
          "144340.875000",
          "144342.365000",
          "144343.855000",
          "144345.345000",
          "144346.835000",
          "144348.325000",
          "144349.815000",
          "144351.305000",
          "144352.795000",
          "144354.285000",
          "144355.775000",
          "144357.265000",
          "144358.755000",
          "144400.245000",
          "144401.735000",
          "144403.225000",
          "144404.715000",
          "144406.205000",
          "144407.695000",
          "144409.185000",
          "144410.675000",
          "144412.165000",
          "144413.655000",
          "144415.145000",
          "144416.635000",
          "144418.125000",
          "144419.615000",
          "144421.105000",
          "144422.595000",
          "144424.085000",
          "144425.575000",
          "144427.065000",
          "144428.555000",
          "144430.045000",
          "144431.535000",
          "144433.025000",
          "144434.515000",
          "144436.005000",
          "144437.495000",
          "144438.985000",
          "144440.475000",
          "144441.965000",
          "144443.455000",
          "144444.945000",
          "144446.435000",
          "144447.925000",
          "144449.415000",
          "144450.905000",
          "144452.395000",
          "144453.885000",
          "144455.375000",
          "144456.865000",
          "144458.355000",
          "144459.845000",
          "144501.335000",
          "144502.825000",
          "144504.315000",
          "144505.805000",
          "144507.295000",
          "144508.785000",
          "144510.275000",
          "144511.765000",
          "144513.255000",
          "144514.745000",
          "144516.235000",
          "144517.725000",
          "144519.215000",
          "144520.705000",
          "144522.195000",
          "144523.685000",
          "144525.175000",
          "144526.665000",
          "144528.155000",
          "144529.645000",
          "144531.135000",
          "144532.625000",
          "144534.115000",
          "144535.605000",
          "144537.095000",
          "144538.585000",
          "144540.075000",
          "144541.565000",
          "144543.055000",
          "144544.545000",
          "144546.035000",
          "144547.525000",
          "144549.015000",
          "144550.505000",
          "144551.995000",
          "144553.485000",
          "144554.975000",
          "144556.465000",
          "144557.955000",
          "144559.445000",
          "144600.935000",
          "144602.425000",
          "144603.915000",
          "144605.405000",
          "144606.895000",
          "144608.385000",
          "144609.875000",
          "144611.365000",
          "144612.855000",
          "144614.345000",
          "144615.835000",
          "144617.325000",
          "144618.815000",
          "144620.305000",
          "144621.795000",
          "144623.285000",
          "144624.775000",
          "144626.265000",
          "144627.755000",
          "144629.245000",
          "144630.735000",
          "144632.225000",
          "144633.715000",
          "144635.205000",
          "144636.695000",
          "144638.185000",
          "144639.675000",
          "144641.165000",
          "144642.655000",
          "144644.145000",
          "144645.635000",
          "144647.125000",
          "144648.615000",
          "144650.105000",
          "144651.595000",
          "144653.085000",
          "144654.575000",
          "144656.065000",
          "144657.555000",
          "144659.045000",
          "144700.535000",
          "144702.025000",
          "144703.515000",
          "144705.005000",
          "144706.495000",
          "144707.985000",
          "144709.475000",
          "144710.965000",
          "144712.455000",
          "144713.945000",
          "144715.435000",
          "144716.925000",
          "144718.415000",
          "144719.905000",
          "144721.395000",
          "144722.885000",
          "144724.375000",
          "144725.865000",
          "144727.355000",
          "144728.845000",
          "144730.335000",
          "144731.825000",
          "144733.315000",
          "144734.805000",
          "144736.295000",
          "144737.785000",
          "144739.275000",
          "144740.765000",
          "144742.255000",
          "144743.745000",
          "144745.235000",
          "144746.725000",
          "144748.215000",
          "144749.705000",
          "144751.195000",
          "144752.685000",
          "144754.175000",
          "144755.665000",
          "144757.155000",
          "144758.645000",
          "144800.135000",
          "144801.625000",
          "144803.115000",
          "144804.605000",
          "144806.095000",
          "144807.585000",
          "144809.075000",
          "144810.565000",
          "144812.055000",
          "144813.545000",
          "144815.035000",
          "144816.525000",
          "144818.015000",
          "144819.505000",
          "144820.995000",
          "144822.485000",
          "144823.975000",
          "144825.465000",
          "144826.955000",
          "144828.445000",
          "144829.935000",
          "144831.425000",
          "144832.915000",
          "144834.405000",
          "144835.895000",
          "144837.385000",
          "144838.875000",
          "144840.365000",
          "144841.855000",
          "144843.345000",
          "144844.835000",
          "144846.325000",
          "144847.815000",
          "144849.305000",
          "144850.795000",
          "144852.285000",
          "144853.775000",
          "144855.265000",
          "144856.755000",
          "144858.245000",
          "144859.735000",
          "144901.225000",
          "144902.715000",
          "144904.205000",
          "144905.695000",
          "144907.185000",
          "144908.675000",
          "144910.165000",
          "144911.655000",
          "144913.145000",
          "144914.635000",
          "144916.125000",
          "144917.615000",
          "144919.105000",
          "144920.595000",
          "144922.085000",
          "144923.575000",
          "144925.065000",
          "144926.555000",
          "144928.045000",
          "144929.535000",
          "144931.025000",
          "144932.515000",
          "144934.005000",
          "144935.495000",
          "144936.985000",
          "144938.475000",
          "144939.965000",
          "144941.455000",
          "144942.945000",
          "144944.435000",
          "144945.925000",
          "144947.415000",
          "144948.905000",
          "144950.395000",
          "144951.885000",
          "144953.375000",
          "144954.865000",
          "144956.355000",
          "144957.845000"
        ],
        "ContentTime": [
          "144101.415000",
          "144101.418000",
          "144101.421000",
          "144101.424000",
          "144101.427000",
          "144101.430000",
          "144101.451000",
          "144101.454000",
          "144101.458000",
          "144101.461000",
          "144101.464000",
          "144101.471000",
          "144121.382000",
          "144121.385000",
          "144121.388000",
          "144121.391000",
          "144121.395000",
          "144121.398000",
          "144121.401000",
          "144121.404000",
          "144121.415000",
          "144121.418000",
          "144121.421000",
          "144121.424000",
          "144121.427000",
          "144121.430000",
          "144121.433000",
          "144121.436000",
          "144121.439000",
          "144121.442000",
          "144121.445000",
          "144121.448000",
          "144121.451000",
          "144141.383000",
          "144141.386000",
          "144141.389000",
          "144141.392000",
          "144141.395000",
          "144141.398000",
          "144141.401000",
          "144141.404000",
          "144141.407000",
          "144141.410000",
          "144141.413000",
          "144141.416000",
          "144141.419000",
          "144141.422000",
          "144141.425000",
          "144141.428000",
          "144141.431000",
          "144141.434000",
          "144141.449000",
          "144141.452000",
          "144201.383000",
          "144201.386000",
          "144201.389000",
          "144201.392000",
          "144201.395000",
          "144201.398000",
          "144201.401000",
          "144201.404000",
          "144201.407000",
          "144201.410000",
          "144201.413000",
          "144201.416000",
          "144201.419000",
          "144201.422000",
          "144201.425000",
          "144201.428000",
          "144201.431000",
          "144201.434000",
          "144201.437000",
          "144201.440000",
          "144221.383000",
          "144221.386000",
          "144221.389000",
          "144221.392000",
          "144221.395000",
          "144221.398000",
          "144221.401000",
          "144221.404000",
          "144221.407000",
          "144221.410000",
          "144221.413000",
          "144221.421000",
          "144221.424000",
          "144221.427000",
          "144221.430000",
          "144221.433000",
          "144221.452000",
          "144221.455000",
          "144221.458000",
          "144221.461000",
          "144301.383000",
          "144301.386000",
          "144301.389000",
          "144301.392000",
          "144301.395000",
          "144301.398000",
          "144301.401000",
          "144301.404000",
          "144301.407000",
          "144301.410000",
          "144301.413000",
          "144301.416000",
          "144301.419000",
          "144301.422000",
          "144301.425000",
          "144301.428000",
          "144301.431000",
          "144301.434000",
          "144301.437000",
          "144301.440000",
          "144301.443000",
          "144301.446000",
          "144301.449000",
          "144301.452000",
          "144301.455000",
          "144301.458000",
          "144301.461000",
          "144301.464000",
          "144301.467000",
          "144301.470000",
          "144301.473000",
          "144301.476000",
          "144341.383000",
          "144341.386000",
          "144341.389000",
          "144341.392000",
          "144341.395000",
          "144341.398000",
          "144341.401000",
          "144341.405000",
          "144341.415000",
          "144341.418000",
          "144341.421000",
          "144341.424000",
          "144341.428000",
          "144341.431000",
          "144341.435000",
          "144341.439000",
          "144341.442000",
          "144341.446000",
          "144341.449000",
          "144341.453000",
          "144341.456000",
          "144341.459000",
          "144341.463000",
          "144341.466000",
          "144341.470000",
          "144341.474000",
          "144341.477000",
          "144421.383000",
          "144421.386000",
          "144421.389000",
          "144421.392000",
          "144421.395000",
          "144421.399000",
          "144421.401000",
          "144421.404000",
          "144421.407000",
          "144421.410000",
          "144421.413000",
          "144421.416000",
          "144421.420000",
          "144421.423000",
          "144421.426000",
          "144421.429000",
          "144421.432000",
          "144421.435000",
          "144421.438000",
          "144421.441000",
          "144421.444000",
          "144421.447000",
          "144421.450000",
          "144421.452000",
          "144421.455000",
          "144421.468000",
          "144421.470000",
          "144501.383000",
          "144501.387000",
          "144501.390000",
          "144501.393000",
          "144501.396000",
          "144501.399000",
          "144501.402000",
          "144501.406000",
          "144501.409000",
          "144501.412000",
          "144501.415000",
          "144501.418000",
          "144501.421000",
          "144501.424000",
          "144501.427000",
          "144501.430000",
          "144501.433000",
          "144501.437000",
          "144501.439000",
          "144501.442000",
          "144501.446000",
          "144501.449000",
          "144501.452000",
          "144501.455000",
          "144501.458000",
          "144501.461000",
          "144501.464000",
          "144541.383000",
          "144541.386000",
          "144541.389000",
          "144541.392000",
          "144541.395000",
          "144541.403000",
          "144541.406000",
          "144541.410000",
          "144541.413000",
          "144541.415000",
          "144541.418000",
          "144541.422000",
          "144541.425000",
          "144541.428000",
          "144541.430000",
          "144541.434000",
          "144541.437000",
