{
  "aor": 0.0004120157068062828,
  "aqi": 0.006634649842931936,
  "bids_meta": {
    "AcquisitionMatrixPE": 104,
    "AcquisitionNumber": 1,
    "AcquisitionTime": "14:11:13.227500",
    "BandwidthPerPixelPhaseEncode": 17.17,
    "BaseResolution": 104,
    "BodyPartExamined": "BRAIN",
    "CogAtlasID": "trm_4c898da401420",
    "ConsistencyInfo": "N4_VE11C_LATEST_20160120",
    "ConversionSoftware": "dcm2niix",
    "ConversionSoftwareVersion": "v1.0.20171215 (OpenJPEG build) GCC7.3.0",
    "DerivedVendorReportedEchoSpacing": 0.000560011,
    "DeviceSerialNumber": "167006",
    "DwellTime": 2.1e-06,
    "EchoTime": 0.037,
    "EchoTrainLength": 104,
    "EffectiveEchoSpacing": 0.000560011,
    "FlipAngle": 52,
    "ImageComments": "Unaliased_MB4_PE3_LB",
    "ImageOrientationPatientDICOM": [
      0.999317,
      0.0368378,
      -0.00279308,
      -0.0359447,
      0.952056,
      -0.303805
    ],
    "ImageType": [
      "ORIGINAL",
      "PRIMARY",
      "M",
      "MB",
      "ND",
      "MOSAIC"
    ],
    "InPlanePhaseEncodingDirectionDICOM": "COL",
    "InstitutionAddress": "Chemin_Queen-Mary_4565_Montreal_District_CA_H3W_1W5",
    "InstitutionName": "IUGM",
    "InstitutionalDepartmentName": "Department",
    "MRAcquisitionType": "2D",
    "MagneticFieldStrength": 3,
    "Manufacturer": "Siemens",
    "ManufacturersModelName": "Prisma_fit",
    "Modality": "MR",
    "MultibandAccelerationFactor": 4,
    "PartialFourier": 1,
    "PatientPosition": "HFS",
    "PercentPhaseFOV": 100,
    "PhaseEncodingDirection": "j-",
    "PhaseEncodingSteps": 104,
    "PhaseResolution": 1,
    "PixelBandwidth": 2290,
    "ProcedureStepDescription": "video5_generic",
    "ProtocolName": "func_task-bourne10",
    "PulseSequenceDetails": "%CustomerSeq%_cmrr_mbep2d_bold",
    "ReceiveCoilActiveElements": "HC1-7;NC1,2",
    "ReceiveCoilName": "HeadNeck_64",
    "ReconMatrixPE": 104,
    "RepetitionTime": 1.49,
    "SAR": 0.0313813,
    "ScanOptions": "FS",
    "ScanningSequence": "EP",
    "SequenceName": "epfid2d1_104",
    "SequenceVariant": "SK_SS",
    "SeriesDescription": "func_task-bourne10",
    "SeriesNumber": 15,
    "ShimSetting": [
      631,
      -7134,
      -8820,
      644,
      58,
      208,
      -10,
      -22
    ],
    "SliceThickness": 2,
    "SliceTiming": [
      0,
      0.785,
      0.0975,
      0.8825,
      0.195,
      0.98,
      0.295,
      1.0775,
      0.3925,
      1.175,
      0.49,
      1.275,
      0.5875,
      1.3725,
      0.685,
      0,
      0.785,
      0.0975,
      0.8825,
      0.195,
      0.98,
      0.295,
      1.0775,
      0.3925,
      1.175,
      0.49,
      1.275,
      0.5875,
      1.3725,
      0.685,
      0,
      0.785,
      0.0975,
      0.8825,
      0.195,
      0.98,
      0.295,
      1.0775,
      0.3925,
      1.175,
      0.49,
      1.275,
      0.5875,
      1.3725,
      0.685,
      0,
      0.785,
      0.0975,
      0.8825,
      0.195,
      0.98,
      0.295,
      1.0775,
      0.3925,
      1.175,
      0.49,
      1.275,
      0.5875,
      1.3725,
      0.685
    ],
    "SoftwareVersions": "syngo_MR_E11",
    "SpacingBetweenSlices": 2,
    "StationName": "MRC35049",
    "TaskName": "bourne10",
    "TotalReadoutTime": 0.0576811,
    "TxRefAmp": 211.797,
    "dataset": "<unset>",
    "dcmmeta_affine": [
      [
        -1.998634696006775,
        -0.0718894749879837,
        0.017064711079001427,
        110.770263671875
      ],
      [
        -0.07367561757564545,
        1.904111623764038,
        -0.6073969602584839,
        -64.73855590820312
      ],
      [
        -0.005586166866123676,
        0.6076109409332275,
        1.905460000038147,
        -66.33470153808594
      ],
      [
        0.0,
        0.0,
        0.0,
        1.0
      ]
    ],
    "dcmmeta_reorient_transform": [
      [
        0.0,
        -1.0,
        0.0,
        103.0
      ],
      [
        1.0,
        0.0,
        0.0,
        0.0
      ],
      [
        0.0,
        0.0,
        1.0,
        0.0
      ],
      [
        0.0,
        0.0,
        0.0,
        1.0
      ]
    ],
    "dcmmeta_shape": [
      104,
      104,
      60,
      382
    ],
    "dcmmeta_slice_dim": 2,
    "dcmmeta_version": 0.6,
    "global": {
      "const": {
        "AcquisitionMatrix": [
          104,
          0,
          0,
          104
        ],
        "AngioFlag": "N",
        "BitsAllocated": 16,
        "BitsStored": 16,
        "BodyPartExamined": "BRAIN",
        "Columns": 832,
        "EchoNumbers": 1,
        "EchoTime": 37.0,
        "EchoTrainLength": 104,
        "FlipAngle": 52.0,
        "HighBit": 15,
        "ImageOrientationPatient": [
          0.99931735432463,
          0.03683780708057,
          -0.0027930834415,
          -0.035944738825,
          0.9520557837452,
          -0.3038054647108
        ],
        "ImagePositionPatient": [
          -804.70090875965,
          -851.29947229727,
          219.45296432224
        ],
        "ImageType": [
          "ORIGINAL",
          "PRIMARY",
          "M",
          "MB",
          "ND",
          "MOSAIC"
        ],
        "ImagedNucleus": "1H",
        "ImagingFrequency": 123.259605,
        "InPlanePhaseEncodingDirection": "COL",
        "MRAcquisitionType": "2D",
        "MagneticFieldStrength": 3.0,
        "Manufacturer": "SIEMENS",
        "ManufacturerModelName": "Prisma_fit",
        "Modality": "MR",
        "NumberOfAverages": 1.0,
        "NumberOfPhaseEncodingSteps": 104,
        "PercentPhaseFieldOfView": 100.0,
        "PercentSampling": 100.0,
        "PerformedProcedureStepStartTime": "131205.871000",
        "PhotometricInterpretation": "MONOCHROME2",
        "PixelBandwidth": 2290.0,
        "PixelRepresentation": 0,
        "PixelSpacing": [
          2.0,
          2.0
        ],
        "ProtocolName": "func_task-bourne10",
        "RepetitionTime": 1490.0,
        "Rows": 832,
        "SAR": 0.0313812751614,
        "SamplesPerPixel": 1,
        "ScanOptions": "FS",
        "ScanningSequence": "EP",
        "SequenceName": "epfid2d1_104",
        "SequenceVariant": [
          "SK",
          "SS"
        ],
        "SeriesDescription": "func_task-bourne10",
        "SeriesNumber": 15,
        "SeriesTime": "141235.757000",
        "SliceLocation": -42.592931618968,
        "SliceThickness": 2.0,
        "SmallestImagePixelValue": 0,
        "SoftwareVersions": "syngo MR E11",
        "SpacingBetweenSlices": 1.9999999840921,
        "SpecificCharacterSet": "ISO_IR 100",
        "StudyID": "1",
        "StudyTime": "131205.779000",
        "TransmitCoilName": "Body",
        "VariableFlipAngleFlag": "N",
        "WindowCenterWidthExplanation": "Algo1",
        "dBdt": 0.0
      },
      "slices": {}
    },
    "modality": "bold",
    "session_id": "002",
    "subject_id": "03",
    "task_id": "bourne10",
    "time": {
      "samples": {
        "AcquisitionNumber": [
          1,
          2,
          3,
          4,
          5,
          6,
          7,
          8,
          9,
          10,
          11,
          12,
          13,
          14,
          15,
          16,
          17,
          18,
          19,
          20,
          21,
          22,
          23,
          24,
          25,
          26,
          27,
          28,
          29,
          30,
          31,
          32,
          33,
          34,
          35,
          36,
          37,
          38,
          39,
          40,
          41,
          42,
          43,
          44,
          45,
          46,
          47,
          48,
          49,
          50,
          51,
          52,
          53,
          54,
          55,
          56,
          57,
          58,
          59,
          60,
          61,
          62,
          63,
          64,
          65,
          66,
          67,
          68,
          69,
          70,
          71,
          72,
          73,
          74,
          75,
          76,
          77,
          78,
          79,
          80,
          81,
          82,
          83,
          84,
          85,
          86,
          87,
          88,
          89,
          90,
          91,
          92,
          93,
          94,
          95,
          96,
          97,
          98,
          99,
          100,
          101,
          102,
          103,
          104,
          105,
          106,
          107,
          108,
          109,
          110,
          111,
          112,
          113,
          114,
          115,
          116,
          117,
          118,
          119,
          120,
          121,
          122,
          123,
          124,
          125,
          126,
          127,
          128,
          129,
          130,
          131,
          132,
          133,
          134,
          135,
          136,
          137,
          138,
          139,
          140,
          141,
          142,
          143,
          144,
          145,
          146,
          147,
          148,
          149,
          150,
          151,
          152,
          153,
          154,
          155,
          156,
          157,
          158,
          159,
          160,
          161,
          162,
          163,
          164,
          165,
          166,
          167,
          168,
          169,
          170,
          171,
          172,
          173,
          174,
          175,
          176,
          177,
          178,
          179,
          180,
          181,
          182,
          183,
          184,
          185,
          186,
          187,
          188,
          189,
          190,
          191,
          192,
          193,
          194,
          195,
          196,
          197,
          198,
          199,
          200,
          201,
          202,
          203,
          204,
          205,
          206,
          207,
          208,
          209,
          210,
          211,
          212,
          213,
          214,
          215,
          216,
          217,
          218,
          219,
          220,
          221,
          222,
          223,
          224,
          225,
          226,
          227,
          228,
          229,
          230,
          231,
          232,
          233,
          234,
          235,
          236,
          237,
          238,
          239,
          240,
          241,
          242,
          243,
          244,
          245,
          246,
          247,
          248,
          249,
          250,
          251,
          252,
          253,
          254,
          255,
          256,
          257,
          258,
          259,
          260,
          261,
          262,
          263,
          264,
          265,
          266,
          267,
          268,
          269,
          270,
          271,
          272,
          273,
          274,
          275,
          276,
          277,
          278,
          279,
          280,
          281,
          282,
          283,
          284,
          285,
          286,
          287,
          288,
          289,
          290,
          291,
          292,
          293,
          294,
          295,
          296,
          297,
          298,
          299,
          300,
          301,
          302,
          303,
          304,
          305,
          306,
          307,
          308,
          309,
          310,
          311,
          312,
          313,
          314,
          315,
          316,
          317,
          318,
          319,
          320,
          321,
          322,
          323,
          324,
          325,
          326,
          327,
          328,
          329,
          330,
          331,
          332,
          333,
          334,
          335,
          336,
          337,
          338,
          339,
          340,
          341,
          342,
          343,
          344,
          345,
          346,
          347,
          348,
          349,
          350,
          351,
          352,
          353,
          354,
          355,
          356,
          357,
          358,
          359,
          360,
          361,
          362,
          363,
          364,
          365,
          366,
          367,
          368,
          369,
          370,
          371,
          372,
          373,
          374,
          375,
          376,
          377,
          378,
          379,
          380,
          381,
          382
        ],
        "AcquisitionTime": [
          "141113.227500",
          "141114.717500",
          "141116.207500",
          "141117.697500",
          "141119.187500",
          "141120.677500",
          "141122.167500",
          "141123.657500",
          "141125.147500",
          "141126.637500",
          "141128.127500",
          "141129.617500",
          "141131.107500",
          "141132.597500",
          "141134.087500",
          "141135.577500",
          "141137.067500",
          "141138.557500",
          "141140.047500",
          "141141.537500",
          "141143.027500",
          "141144.517500",
          "141146.007500",
          "141147.497500",
          "141148.987500",
          "141150.477500",
          "141151.967500",
          "141153.457500",
          "141154.947500",
          "141156.437500",
          "141157.927500",
          "141159.417500",
          "141200.907500",
          "141202.397500",
          "141203.887500",
          "141205.377500",
          "141206.867500",
          "141208.357500",
          "141209.847500",
          "141211.337500",
          "141212.827500",
          "141214.317500",
          "141215.807500",
          "141217.297500",
          "141218.787500",
          "141220.277500",
          "141221.767500",
          "141223.257500",
          "141224.747500",
          "141226.237500",
          "141227.727500",
          "141229.217500",
          "141230.707500",
          "141232.197500",
          "141233.687500",
          "141235.177500",
          "141236.667500",
          "141238.157500",
          "141239.647500",
          "141241.137500",
          "141242.627500",
          "141244.117500",
          "141245.607500",
          "141247.097500",
          "141248.587500",
          "141250.077500",
          "141251.567500",
          "141253.057500",
          "141254.547500",
          "141256.037500",
          "141257.527500",
          "141259.017500",
          "141300.507500",
          "141301.997500",
          "141303.487500",
          "141304.977500",
          "141306.467500",
          "141307.957500",
          "141309.447500",
          "141310.937500",
          "141312.427500",
          "141313.917500",
          "141315.407500",
          "141316.897500",
          "141318.387500",
          "141319.877500",
          "141321.367500",
          "141322.857500",
          "141324.347500",
          "141325.837500",
          "141327.327500",
          "141328.817500",
          "141330.307500",
          "141331.797500",
          "141333.287500",
          "141334.777500",
          "141336.267500",
          "141337.757500",
          "141339.247500",
          "141340.737500",
          "141342.227500",
          "141343.717500",
          "141345.207500",
          "141346.697500",
          "141348.187500",
          "141349.677500",
          "141351.167500",
          "141352.657500",
          "141354.147500",
          "141355.637500",
          "141357.127500",
          "141358.617500",
          "141400.107500",
          "141401.597500",
          "141403.087500",
          "141404.577500",
          "141406.067500",
          "141407.557500",
          "141409.047500",
          "141410.537500",
          "141412.027500",
          "141413.517500",
          "141415.007500",
          "141416.497500",
          "141417.987500",
          "141419.477500",
          "141420.967500",
          "141422.457500",
          "141423.947500",
          "141425.437500",
          "141426.927500",
          "141428.417500",
          "141429.907500",
          "141431.397500",
          "141432.887500",
          "141434.377500",
          "141435.867500",
          "141437.357500",
          "141438.847500",
          "141440.337500",
          "141441.827500",
          "141443.317500",
          "141444.807500",
          "141446.297500",
          "141447.787500",
          "141449.277500",
          "141450.767500",
          "141452.257500",
          "141453.747500",
          "141455.237500",
          "141456.727500",
          "141458.217500",
          "141459.707500",
          "141501.197500",
          "141502.687500",
          "141504.177500",
          "141505.667500",
          "141507.157500",
          "141508.647500",
          "141510.137500",
          "141511.627500",
          "141513.117500",
          "141514.607500",
          "141516.097500",
          "141517.587500",
          "141519.077500",
          "141520.567500",
          "141522.057500",
          "141523.547500",
          "141525.037500",
          "141526.527500",
          "141528.017500",
          "141529.507500",
          "141530.997500",
          "141532.487500",
          "141533.977500",
          "141535.467500",
          "141536.957500",
          "141538.447500",
          "141539.937500",
          "141541.427500",
          "141542.917500",
          "141544.407500",
          "141545.897500",
          "141547.387500",
          "141548.877500",
          "141550.367500",
          "141551.857500",
          "141553.347500",
          "141554.837500",
          "141556.327500",
          "141557.817500",
          "141559.307500",
          "141600.797500",
          "141602.287500",
          "141603.777500",
          "141605.267500",
          "141606.757500",
          "141608.247500",
          "141609.737500",
          "141611.227500",
          "141612.717500",
          "141614.207500",
          "141615.697500",
          "141617.187500",
          "141618.677500",
          "141620.167500",
          "141621.657500",
          "141623.147500",
          "141624.637500",
          "141626.127500",
          "141627.617500",
          "141629.107500",
          "141630.597500",
          "141632.087500",
          "141633.577500",
          "141635.067500",
          "141636.557500",
          "141638.047500",
          "141639.537500",
          "141641.027500",
          "141642.517500",
          "141644.007500",
          "141645.497500",
          "141646.987500",
          "141648.477500",
          "141649.967500",
          "141651.457500",
          "141652.947500",
          "141654.437500",
          "141655.927500",
          "141657.417500",
          "141658.907500",
          "141700.397500",
          "141701.887500",
          "141703.377500",
          "141704.867500",
          "141706.357500",
          "141707.847500",
          "141709.337500",
          "141710.827500",
          "141712.317500",
          "141713.807500",
          "141715.297500",
          "141716.787500",
          "141718.277500",
          "141719.767500",
          "141721.257500",
          "141722.747500",
          "141724.237500",
          "141725.727500",
          "141727.217500",
          "141728.707500",
          "141730.197500",
          "141731.687500",
          "141733.177500",
          "141734.667500",
          "141736.157500",
          "141737.647500",
          "141739.137500",
          "141740.627500",
          "141742.117500",
          "141743.607500",
          "141745.097500",
          "141746.587500",
          "141748.077500",
          "141749.567500",
          "141751.057500",
          "141752.547500",
          "141754.037500",
          "141755.527500",
          "141757.017500",
          "141758.507500",
          "141759.997500",
          "141801.487500",
          "141802.977500",
          "141804.467500",
          "141805.957500",
          "141807.447500",
          "141808.937500",
          "141810.427500",
          "141811.917500",
          "141813.407500",
          "141814.897500",
          "141816.387500",
          "141817.877500",
          "141819.367500",
          "141820.857500",
          "141822.347500",
          "141823.837500",
          "141825.327500",
          "141826.817500",
          "141828.307500",
          "141829.797500",
          "141831.287500",
          "141832.777500",
          "141834.267500",
          "141835.757500",
          "141837.247500",
          "141838.737500",
          "141840.227500",
          "141841.717500",
          "141843.207500",
          "141844.697500",
          "141846.187500",
          "141847.677500",
          "141849.167500",
          "141850.657500",
          "141852.147500",
          "141853.637500",
          "141855.127500",
          "141856.617500",
          "141858.107500",
          "141859.597500",
          "141901.087500",
          "141902.577500",
          "141904.067500",
          "141905.557500",
          "141907.047500",
          "141908.537500",
          "141910.027500",
          "141911.517500",
          "141913.007500",
          "141914.497500",
          "141915.987500",
          "141917.477500",
          "141918.967500",
          "141920.457500",
          "141921.947500",
          "141923.437500",
          "141924.927500",
          "141926.417500",
          "141927.907500",
          "141929.397500",
          "141930.887500",
          "141932.377500",
          "141933.867500",
          "141935.357500",
          "141936.847500",
          "141938.337500",
          "141939.827500",
          "141941.317500",
          "141942.807500",
          "141944.297500",
          "141945.787500",
          "141947.277500",
          "141948.767500",
          "141950.257500",
          "141951.747500",
          "141953.237500",
          "141954.727500",
          "141956.217500",
          "141957.707500",
          "141959.197500",
          "142000.687500",
          "142002.177500",
          "142003.667500",
          "142005.157500",
          "142006.647500",
          "142008.137500",
          "142009.627500",
          "142011.117500",
          "142012.607500",
          "142014.097500",
          "142015.587500",
          "142017.077500",
          "142018.567500",
          "142020.057500",
          "142021.547500",
          "142023.037500",
          "142024.527500",
          "142026.017500",
          "142027.507500",
          "142028.997500",
          "142030.487500",
          "142031.977500",
          "142033.467500",
          "142034.957500",
          "142036.447500",
          "142037.937500",
          "142039.427500",
          "142040.917500"
        ],
        "ContentTime": [
          "141235.759000",
          "141235.769000",
          "141235.772000",
          "141235.775000",
          "141235.778000",
          "141235.787000",
          "141235.793000",
          "141235.796000",
          "141235.799000",
          "141235.802000",
          "141235.805000",
          "141235.808000",
          "141235.811000",
          "141235.814000",
          "141235.817000",
          "141235.820000",
          "141235.823000",
          "141235.826000",
          "141235.829000",
          "141235.832000",
          "141235.835000",
          "141235.837000",
          "141235.840000",
          "141235.843000",
          "141235.846000",
          "141235.849000",
          "141235.856000",
          "141255.716000",
          "141255.719000",
          "141255.722000",
          "141255.725000",
          "141255.728000",
          "141255.731000",
          "141255.734000",
          "141255.736000",
          "141255.745000",
          "141255.748000",
          "141255.751000",
          "141255.754000",
          "141255.757000",
          "141255.760000",
          "141255.763000",
          "141255.766000",
          "141255.769000",
          "141255.772000",
          "141255.775000",
          "141255.777000",
          "141315.716000",
          "141315.719000",
          "141315.722000",
          "141315.725000",
          "141315.728000",
          "141315.731000",
          "141315.734000",
          "141315.737000",
          "141315.740000",
          "141315.742000",
          "141315.745000",
          "141315.748000",
          "141315.761000",
          "141315.764000",
          "141315.767000",
          "141315.770000",
          "141315.773000",
          "141315.776000",
          "141315.779000",
          "141315.782000",
          "141335.716000",
          "141335.719000",
          "141335.722000",
          "141335.725000",
          "141335.728000",
          "141335.731000",
          "141335.734000",
          "141335.737000",
          "141335.740000",
          "141335.743000",
          "141335.745000",
          "141335.748000",
          "141335.751000",
          "141335.754000",
          "141335.758000",
          "141335.761000",
          "141335.764000",
          "141335.767000",
          "141335.770000",
          "141335.773000",
          "141355.715000",
          "141355.718000",
          "141355.721000",
          "141355.724000",
          "141355.727000",
          "141355.730000",
          "141355.733000",
          "141355.736000",
          "141355.739000",
          "141355.742000",
          "141355.745000",
          "141355.748000",
          "141355.750000",
          "141355.753000",
          "141355.756000",
          "141355.759000",
          "141355.762000",
          "141355.765000",
          "141355.768000",
          "141355.771000",
          "141355.774000",
          "141435.716000",
          "141435.719000",
          "141435.722000",
          "141435.725000",
          "141435.728000",
          "141435.731000",
          "141435.734000",
          "141435.737000",
          "141435.748000",
          "141435.751000",
          "141435.754000",
          "141435.757000",
          "141435.760000",
          "141435.763000",
          "141435.766000",
          "141435.768000",
          "141435.771000",
          "141435.774000",
          "141435.777000",
          "141435.780000",
          "141435.783000",
          "141435.786000",
          "141435.789000",
          "141435.792000",
          "141435.795000",
          "141435.798000",
          "141435.801000",
          "141515.716000",
          "141515.720000",
          "141515.723000",
          "141515.726000",
          "141515.729000",
          "141515.733000",
          "141515.750000",
          "141515.753000",
          "141515.756000",
          "141515.759000",
          "141515.762000",
          "141515.765000",
          "141515.768000",
          "141515.771000",
          "141515.774000",
          "141515.777000",
          "141515.780000",
          "141515.783000",
          "141515.786000",
          "141515.789000",
          "141515.792000",
          "141515.795000",
          "141515.798000",
          "141515.801000",
          "141515.804000",
          "141515.807000",
          "141555.716000",
          "141555.719000",
          "141555.722000",
          "141555.725000",
          "141555.728000",
          "141555.731000",
          "141555.734000",
          "141555.737000",
          "141555.740000",
          "141555.743000",
          "141555.746000",
          "141555.749000",
          "141555.752000",
          "141555.755000",
          "141555.758000",
          "141555.761000",
          "141555.764000",
          "141555.766000",
          "141555.769000",
          "141555.772000",
          "141555.775000",
          "141555.778000",
          "141555.781000",
          "141555.784000",
          "141555.787000",
          "141555.790000",
          "141555.793000",
          "141635.715000",
          "141635.718000",
          "141635.721000",
          "141635.724000",
          "141635.727000",
          "141635.730000",
          "141635.733000",
          "141635.736000",
          "141635.739000",
          "141635.742000",
          "141635.745000",
          "141635.748000",
          "141635.751000",
          "141635.754000",
          "141635.757000",
          "141635.760000",
          "141635.763000",
          "141635.766000",
          "141635.768000",
          "141635.771000",
          "141635.774000",
          "141635.777000",
          "141635.780000",
          "141635.783000",
          "141635.786000",
          "141635.789000",
          "141635.792000",
          "141715.716000",
          "141715.719000",
          "141715.722000",
          "141715.725000",
          "141715.728000",
          "141715.731000",
          "141715.734000",
          "141715.737000",
          "141715.740000",
          "141715.743000",
          "141715.746000",
          "141715.749000",
          "141715.752000",
          "141715.755000",
          "141715.758000",
          "141715.761000",
          "141715.764000",
          "141715.767000",
          "141715.770000",
          "141715.773000",
          "141715.776000",
          "141715.779000",
          "141715.782000",
          "141715.784000",
          "141715.787000",
          "141715.790000",
          "141715.793000",
          "141735.716000",
          "141735.719000",
          "141735.722000",
          "141735.725000",
          "141735.728000",
          "141735.731000",
          "141735.734000",
          "141735.737000",
          "141735.740000",
          "141735.743000",
          "141735.746000",
          "141735.749000",
          "141735.752000",
          "141815.716000",
          "141815.719000",
          "141815.722000",
          "141815.725000",
          "141815.728000",
          "141815.736000",
