{
  "aor": 0.0004324197530864198,
  "aqi": 0.005118041185185186,
  "bids_meta": {
    "AcquisitionMatrixPE": 104,
    "AcquisitionNumber": 1,
    "AcquisitionTime": "13:39:51.990000",
    "BandwidthPerPixelPhaseEncode": 17.17,
    "BaseResolution": 104,
    "BodyPartExamined": "BRAIN",
    "CogAtlasID": "trm_4c898da401420",
    "ConsistencyInfo": "N4_VE11C_LATEST_20160120",
    "ConversionSoftware": "dcm2niix",
    "ConversionSoftwareVersion": "v1.0.20171215 (OpenJPEG build) GCC7.3.0",
    "DerivedVendorReportedEchoSpacing": 0.000560011,
    "DeviceSerialNumber": "167006",
    "DwellTime": 2.1e-06,
    "EchoTime": 0.037,
    "EchoTrainLength": 104,
    "EffectiveEchoSpacing": 0.000560011,
    "FlipAngle": 52,
    "ImageComments": "Unaliased_MB4_PE3_LB",
    "ImageOrientationPatientDICOM": [
      0.999317,
      0.0368378,
      -0.00279308,
      -0.0359447,
      0.952056,
      -0.303805
    ],
    "ImageType": [
      "ORIGINAL",
      "PRIMARY",
      "M",
      "MB",
      "ND",
      "MOSAIC"
    ],
    "InPlanePhaseEncodingDirectionDICOM": "COL",
    "InstitutionAddress": "Chemin_Queen-Mary_4565_Montreal_District_CA_H3W_1W5",
    "InstitutionName": "IUGM",
    "InstitutionalDepartmentName": "Department",
    "MRAcquisitionType": "2D",
    "MagneticFieldStrength": 3,
    "Manufacturer": "Siemens",
    "ManufacturersModelName": "Prisma_fit",
    "Modality": "MR",
    "MultibandAccelerationFactor": 4,
    "PartialFourier": 1,
    "PatientPosition": "HFS",
    "PercentPhaseFOV": 100,
    "PhaseEncodingDirection": "j-",
    "PhaseEncodingSteps": 104,
    "PhaseResolution": 1,
    "PixelBandwidth": 2290,
    "ProcedureStepDescription": "video5_generic",
    "ProtocolName": "func_task-bourne7",
    "PulseSequenceDetails": "%CustomerSeq%_cmrr_mbep2d_bold",
    "ReceiveCoilActiveElements": "HC1-7;NC1,2",
    "ReceiveCoilName": "HeadNeck_64",
    "ReconMatrixPE": 104,
    "RepetitionTime": 1.49,
    "SAR": 0.0313813,
    "ScanOptions": "FS",
    "ScanningSequence": "EP",
    "SequenceName": "epfid2d1_104",
    "SequenceVariant": "SK_SS",
    "SeriesDescription": "func_task-bourne7",
    "SeriesNumber": 9,
    "ShimSetting": [
      631,
      -7134,
      -8820,
      644,
      58,
      208,
      -10,
      -22
    ],
    "SliceThickness": 2,
    "SliceTiming": [
      0,
      0.785,
      0.0975,
      0.8825,
      0.1975,
      0.98,
      0.295,
      1.0775,
      0.3925,
      1.1775,
      0.49,
      1.275,
      0.5875,
      1.3725,
      0.6875,
      0,
      0.785,
      0.0975,
      0.8825,
      0.1975,
      0.98,
      0.295,
      1.0775,
      0.3925,
      1.1775,
      0.49,
      1.275,
      0.5875,
      1.3725,
      0.6875,
      0,
      0.785,
      0.0975,
      0.8825,
      0.1975,
      0.98,
      0.295,
      1.0775,
      0.3925,
      1.1775,
      0.49,
      1.275,
      0.5875,
      1.3725,
      0.6875,
      0,
      0.785,
      0.0975,
      0.8825,
      0.1975,
      0.98,
      0.295,
      1.0775,
      0.3925,
      1.1775,
      0.49,
      1.275,
      0.5875,
      1.3725,
      0.6875
    ],
    "SoftwareVersions": "syngo_MR_E11",
    "SpacingBetweenSlices": 2,
    "StationName": "MRC35049",
    "TaskName": "bourne07",
    "TotalReadoutTime": 0.0576811,
    "TxRefAmp": 211.797,
    "dataset": "<unset>",
    "dcmmeta_affine": [
      [
        -1.998634696006775,
        -0.0718894749879837,
        0.017064711079001427,
        110.770263671875
      ],
      [
        -0.07367561757564545,
        1.904111623764038,
        -0.6073969602584839,
        -64.73855590820312
      ],
      [
        -0.005586166866123676,
        0.6076109409332275,
        1.905460000038147,
        -66.33470153808594
      ],
      [
        0.0,
        0.0,
        0.0,
        1.0
      ]
    ],
    "dcmmeta_reorient_transform": [
      [
        0.0,
        -1.0,
        0.0,
        103.0
      ],
      [
        1.0,
        0.0,
        0.0,
        0.0
      ],
      [
        0.0,
        0.0,
        1.0,
        0.0
      ],
      [
        0.0,
        0.0,
        0.0,
        1.0
      ]
    ],
    "dcmmeta_shape": [
      104,
      104,
      60,
      405
    ],
    "dcmmeta_slice_dim": 2,
    "dcmmeta_version": 0.6,
    "global": {
      "const": {
        "AcquisitionMatrix": [
          104,
          0,
          0,
          104
        ],
        "AngioFlag": "N",
        "BitsAllocated": 16,
        "BitsStored": 16,
        "BodyPartExamined": "BRAIN",
        "Columns": 832,
        "EchoNumbers": 1,
        "EchoTime": 37.0,
        "EchoTrainLength": 104,
        "FlipAngle": 52.0,
        "HighBit": 15,
        "ImageOrientationPatient": [
          0.99931735432463,
          0.03683780708057,
          -0.0027930834415,
          -0.035944738825,
          0.9520557837452,
          -0.3038054647108
        ],
        "ImagePositionPatient": [
          -804.70090875965,
          -851.29947229727,
          219.45296432224
        ],
        "ImageType": [
          "ORIGINAL",
          "PRIMARY",
          "M",
          "MB",
          "ND",
          "MOSAIC"
        ],
        "ImagedNucleus": "1H",
        "ImagingFrequency": 123.259591,
        "InPlanePhaseEncodingDirection": "COL",
        "MRAcquisitionType": "2D",
        "MagneticFieldStrength": 3.0,
        "Manufacturer": "SIEMENS",
        "ManufacturerModelName": "Prisma_fit",
        "Modality": "MR",
        "NumberOfAverages": 1.0,
        "NumberOfPhaseEncodingSteps": 104,
        "PercentPhaseFieldOfView": 100.0,
        "PercentSampling": 100.0,
        "PerformedProcedureStepStartTime": "131205.871000",
        "PhotometricInterpretation": "MONOCHROME2",
        "PixelBandwidth": 2290.0,
        "PixelRepresentation": 0,
        "PixelSpacing": [
          2.0,
          2.0
        ],
        "ProtocolName": "func_task-bourne7",
        "RepetitionTime": 1490.0,
        "Rows": 832,
        "SAR": 0.0313812751614,
        "SamplesPerPixel": 1,
        "ScanOptions": "FS",
        "ScanningSequence": "EP",
        "SequenceName": "epfid2d1_104",
        "SequenceVariant": [
          "SK",
          "SS"
        ],
        "SeriesDescription": "func_task-bourne7",
        "SeriesNumber": 9,
        "SeriesTime": "134115.748000",
        "SliceLocation": -42.592931618968,
        "SliceThickness": 2.0,
        "SmallestImagePixelValue": 0,
        "SoftwareVersions": "syngo MR E11",
        "SpacingBetweenSlices": 1.9999999840921,
        "SpecificCharacterSet": "ISO_IR 100",
        "StudyID": "1",
        "StudyTime": "131205.779000",
        "TransmitCoilName": "Body",
        "VariableFlipAngleFlag": "N",
        "WindowCenterWidthExplanation": "Algo1",
        "dBdt": 0.0
      },
      "slices": {}
    },
    "modality": "bold",
    "session_id": "002",
    "subject_id": "03",
    "task_id": "bourne07",
    "time": {
      "samples": {
        "AcquisitionNumber": [
          1,
          2,
          3,
          4,
          5,
          6,
          7,
          8,
          9,
          10,
          11,
          12,
          13,
          14,
          15,
          16,
          17,
          18,
          19,
          20,
          21,
          22,
          23,
          24,
          25,
          26,
          27,
          28,
          29,
          30,
          31,
          32,
          33,
          34,
          35,
          36,
          37,
          38,
          39,
          40,
          41,
          42,
          43,
          44,
          45,
          46,
          47,
          48,
          49,
          50,
          51,
          52,
          53,
          54,
          55,
          56,
          57,
          58,
          59,
          60,
          61,
          62,
          63,
          64,
          65,
          66,
          67,
          68,
          69,
          70,
          71,
          72,
          73,
          74,
          75,
          76,
          77,
          78,
          79,
          80,
          81,
          82,
          83,
          84,
          85,
          86,
          87,
          88,
          89,
          90,
          91,
          92,
          93,
          94,
          95,
          96,
          97,
          98,
          99,
          100,
          101,
          102,
          103,
          104,
          105,
          106,
          107,
          108,
          109,
          110,
          111,
          112,
          113,
          114,
          115,
          116,
          117,
          118,
          119,
          120,
          121,
          122,
          123,
          124,
          125,
          126,
          127,
          128,
          129,
          130,
          131,
          132,
          133,
          134,
          135,
          136,
          137,
          138,
          139,
          140,
          141,
          142,
          143,
          144,
          145,
          146,
          147,
          148,
          149,
          150,
          151,
          152,
          153,
          154,
          155,
          156,
          157,
          158,
          159,
          160,
          161,
          162,
          163,
          164,
          165,
          166,
          167,
          168,
          169,
          170,
          171,
          172,
          173,
          174,
          175,
          176,
          177,
          178,
          179,
          180,
          181,
          182,
          183,
          184,
          185,
          186,
          187,
          188,
          189,
          190,
          191,
          192,
          193,
          194,
          195,
          196,
          197,
          198,
          199,
          200,
          201,
          202,
          203,
          204,
          205,
          206,
          207,
          208,
          209,
          210,
          211,
          212,
          213,
          214,
          215,
          216,
          217,
          218,
          219,
          220,
          221,
          222,
          223,
          224,
          225,
          226,
          227,
          228,
          229,
          230,
          231,
          232,
          233,
          234,
          235,
          236,
          237,
          238,
          239,
          240,
          241,
          242,
          243,
          244,
          245,
          246,
          247,
          248,
          249,
          250,
          251,
          252,
          253,
          254,
          255,
          256,
          257,
          258,
          259,
          260,
          261,
          262,
          263,
          264,
          265,
          266,
          267,
          268,
          269,
          270,
          271,
          272,
          273,
          274,
          275,
          276,
          277,
          278,
          279,
          280,
          281,
          282,
          283,
          284,
          285,
          286,
          287,
          288,
          289,
          290,
          291,
          292,
          293,
          294,
          295,
          296,
          297,
          298,
          299,
          300,
          301,
          302,
          303,
          304,
          305,
          306,
          307,
          308,
          309,
          310,
          311,
          312,
          313,
          314,
          315,
          316,
          317,
          318,
          319,
          320,
          321,
          322,
          323,
          324,
          325,
          326,
          327,
          328,
          329,
          330,
          331,
          332,
          333,
          334,
          335,
          336,
          337,
          338,
          339,
          340,
          341,
          342,
          343,
          344,
          345,
          346,
          347,
          348,
          349,
          350,
          351,
          352,
          353,
          354,
          355,
          356,
          357,
          358,
          359,
          360,
          361,
          362,
          363,
          364,
          365,
          366,
          367,
          368,
          369,
          370,
          371,
          372,
          373,
          374,
          375,
          376,
          377,
          378,
          379,
          380,
          381,
          382,
          383,
          384,
          385,
          386,
          387,
          388,
          389,
          390,
          391,
          392,
          393,
          394,
          395,
          396,
          397,
          398,
          399,
          400,
          401,
          402,
          403,
          404,
          405
        ],
        "AcquisitionTime": [
          "133951.990000",
          "133953.480000",
          "133954.970000",
          "133956.460000",
          "133957.950000",
          "133959.440000",
          "134000.930000",
          "134002.420000",
          "134003.910000",
          "134005.400000",
          "134006.890000",
          "134008.380000",
          "134009.870000",
          "134011.360000",
          "134012.850000",
          "134014.340000",
          "134015.830000",
          "134017.320000",
          "134018.810000",
          "134020.300000",
          "134021.790000",
          "134023.280000",
          "134024.770000",
          "134026.260000",
          "134027.750000",
          "134029.240000",
          "134030.730000",
          "134032.220000",
          "134033.710000",
          "134035.200000",
          "134036.690000",
          "134038.180000",
          "134039.670000",
          "134041.160000",
          "134042.650000",
          "134044.140000",
          "134045.630000",
          "134047.120000",
          "134048.610000",
          "134050.100000",
          "134051.590000",
          "134053.080000",
          "134054.570000",
          "134056.060000",
          "134057.550000",
          "134059.040000",
          "134100.530000",
          "134102.020000",
          "134103.510000",
          "134105.000000",
          "134106.490000",
          "134107.980000",
          "134109.470000",
          "134110.960000",
          "134112.450000",
          "134113.940000",
          "134115.430000",
          "134116.920000",
          "134118.410000",
          "134119.900000",
          "134121.390000",
          "134122.880000",
          "134124.370000",
          "134125.860000",
          "134127.350000",
          "134128.840000",
          "134130.330000",
          "134131.820000",
          "134133.310000",
          "134134.800000",
          "134136.290000",
          "134137.780000",
          "134139.270000",
          "134140.760000",
          "134142.250000",
          "134143.740000",
          "134145.230000",
          "134146.720000",
          "134148.210000",
          "134149.700000",
          "134151.190000",
          "134152.680000",
          "134154.170000",
          "134155.660000",
          "134157.150000",
          "134158.640000",
          "134200.130000",
          "134201.620000",
          "134203.110000",
          "134204.600000",
          "134206.090000",
          "134207.580000",
          "134209.070000",
          "134210.560000",
          "134212.050000",
          "134213.540000",
          "134215.030000",
          "134216.520000",
          "134218.010000",
          "134219.500000",
          "134220.990000",
          "134222.480000",
          "134223.970000",
          "134225.460000",
          "134226.950000",
          "134228.440000",
          "134229.930000",
          "134231.420000",
          "134232.910000",
          "134234.400000",
          "134235.890000",
          "134237.380000",
          "134238.870000",
          "134240.360000",
          "134241.850000",
          "134243.340000",
          "134244.830000",
          "134246.320000",
          "134247.810000",
          "134249.300000",
          "134250.790000",
          "134252.280000",
          "134253.770000",
          "134255.260000",
          "134256.750000",
          "134258.240000",
          "134259.730000",
          "134301.220000",
          "134302.710000",
          "134304.200000",
          "134305.690000",
          "134307.180000",
          "134308.670000",
          "134310.160000",
          "134311.650000",
          "134313.140000",
          "134314.630000",
          "134316.120000",
          "134317.610000",
          "134319.100000",
          "134320.590000",
          "134322.080000",
          "134323.570000",
          "134325.060000",
          "134326.550000",
          "134328.040000",
          "134329.530000",
          "134331.020000",
          "134332.510000",
          "134334.000000",
          "134335.490000",
          "134336.980000",
          "134338.470000",
          "134339.960000",
          "134341.450000",
          "134342.940000",
          "134344.430000",
          "134345.920000",
          "134347.410000",
          "134348.900000",
          "134350.390000",
          "134351.880000",
          "134353.370000",
          "134354.860000",
          "134356.350000",
          "134357.840000",
          "134359.330000",
          "134400.820000",
          "134402.310000",
          "134403.800000",
          "134405.290000",
          "134406.780000",
          "134408.270000",
          "134409.760000",
          "134411.250000",
          "134412.740000",
          "134414.230000",
          "134415.720000",
          "134417.210000",
          "134418.700000",
          "134420.190000",
          "134421.680000",
          "134423.170000",
          "134424.660000",
          "134426.150000",
          "134427.640000",
          "134429.130000",
          "134430.620000",
          "134432.110000",
          "134433.600000",
          "134435.090000",
          "134436.580000",
          "134438.070000",
          "134439.560000",
          "134441.050000",
          "134442.540000",
          "134444.030000",
          "134445.520000",
          "134447.010000",
          "134448.500000",
          "134449.990000",
          "134451.480000",
          "134452.970000",
          "134454.460000",
          "134455.950000",
          "134457.440000",
          "134458.930000",
          "134500.420000",
          "134501.910000",
          "134503.400000",
          "134504.890000",
          "134506.380000",
          "134507.870000",
          "134509.360000",
          "134510.850000",
          "134512.340000",
          "134513.830000",
          "134515.320000",
          "134516.810000",
          "134518.300000",
          "134519.790000",
          "134521.280000",
          "134522.770000",
          "134524.260000",
          "134525.750000",
          "134527.240000",
          "134528.730000",
          "134530.220000",
          "134531.710000",
          "134533.200000",
          "134534.690000",
          "134536.180000",
          "134537.670000",
          "134539.160000",
          "134540.650000",
          "134542.140000",
          "134543.630000",
          "134545.120000",
          "134546.610000",
          "134548.100000",
          "134549.590000",
          "134551.080000",
          "134552.570000",
          "134554.060000",
          "134555.550000",
          "134557.040000",
          "134558.530000",
          "134600.020000",
          "134601.510000",
          "134603.000000",
          "134604.490000",
          "134605.980000",
          "134607.470000",
          "134608.960000",
          "134610.450000",
          "134611.940000",
          "134613.430000",
          "134614.920000",
          "134616.410000",
          "134617.900000",
          "134619.390000",
          "134620.880000",
          "134622.370000",
          "134623.860000",
          "134625.350000",
          "134626.840000",
          "134628.330000",
          "134629.820000",
          "134631.310000",
          "134632.800000",
          "134634.290000",
          "134635.780000",
          "134637.270000",
          "134638.760000",
          "134640.250000",
          "134641.740000",
          "134643.230000",
          "134644.720000",
          "134646.210000",
          "134647.700000",
          "134649.190000",
          "134650.680000",
          "134652.170000",
          "134653.660000",
          "134655.150000",
          "134656.640000",
          "134658.130000",
          "134659.620000",
          "134701.110000",
          "134702.600000",
          "134704.090000",
          "134705.580000",
          "134707.070000",
          "134708.560000",
          "134710.050000",
          "134711.540000",
          "134713.030000",
          "134714.520000",
          "134716.010000",
          "134717.500000",
          "134718.990000",
          "134720.480000",
          "134721.970000",
          "134723.460000",
          "134724.950000",
          "134726.440000",
          "134727.930000",
          "134729.420000",
          "134730.910000",
          "134732.400000",
          "134733.890000",
          "134735.380000",
          "134736.870000",
          "134738.360000",
          "134739.850000",
          "134741.340000",
          "134742.830000",
          "134744.320000",
          "134745.810000",
          "134747.300000",
          "134748.790000",
          "134750.280000",
          "134751.770000",
          "134753.260000",
          "134754.750000",
          "134756.240000",
          "134757.730000",
          "134759.220000",
          "134800.710000",
          "134802.200000",
          "134803.690000",
          "134805.180000",
          "134806.670000",
          "134808.160000",
          "134809.650000",
          "134811.140000",
          "134812.630000",
          "134814.120000",
          "134815.610000",
          "134817.100000",
          "134818.590000",
          "134820.080000",
          "134821.570000",
          "134823.060000",
          "134824.550000",
          "134826.040000",
          "134827.530000",
          "134829.020000",
          "134830.510000",
          "134832.000000",
          "134833.490000",
          "134834.980000",
          "134836.470000",
          "134837.960000",
          "134839.450000",
          "134840.940000",
          "134842.430000",
          "134843.920000",
          "134845.410000",
          "134846.900000",
          "134848.390000",
          "134849.880000",
          "134851.370000",
          "134852.860000",
          "134854.350000",
          "134855.840000",
          "134857.330000",
          "134858.820000",
          "134900.310000",
          "134901.800000",
          "134903.290000",
          "134904.780000",
          "134906.270000",
          "134907.760000",
          "134909.250000",
          "134910.740000",
          "134912.230000",
          "134913.720000",
          "134915.210000",
          "134916.700000",
          "134918.190000",
          "134919.680000",
          "134921.170000",
          "134922.660000",
          "134924.150000",
          "134925.640000",
          "134927.130000",
          "134928.620000",
          "134930.110000",
          "134931.600000",
          "134933.090000",
          "134934.580000",
          "134936.070000",
          "134937.560000",
          "134939.050000",
          "134940.540000",
          "134942.030000",
          "134943.520000",
          "134945.010000",
          "134946.500000",
          "134947.990000",
          "134949.480000",
          "134950.970000",
          "134952.460000",
          "134953.950000"
        ],
        "ContentTime": [
          "134115.750000",
          "134115.754000",
          "134115.757000",
          "134115.760000",
          "134115.763000",
          "134115.766000",
          "134115.768000",
          "134115.771000",
          "134115.774000",
          "134115.777000",
          "134115.780000",
          "134115.783000",
          "134115.786000",
          "134115.789000",
          "134115.792000",
          "134115.795000",
          "134115.798000",
          "134115.808000",
          "134115.811000",
          "134115.814000",
          "134115.817000",
          "134115.829000",
          "134115.832000",
          "134115.835000",
          "134115.838000",
          "134115.841000",
          "134115.844000",
          "134115.847000",
          "134135.715000",
          "134135.720000",
          "134135.723000",
          "134135.726000",
          "134135.729000",
          "134135.732000",
          "134135.735000",
          "134135.738000",
          "134135.741000",
          "134135.744000",
          "134135.747000",
          "134135.750000",
          "134135.753000",
          "134135.756000",
          "134135.758000",
          "134135.770000",
          "134135.773000",
          "134135.775000",
          "134135.778000",
          "134135.781000",
          "134135.784000",
          "134155.715000",
          "134155.725000",
          "134155.728000",
          "134155.731000",
          "134155.734000",
          "134155.737000",
          "134155.739000",
          "134155.743000",
          "134155.746000",
          "134155.748000",
          "134155.751000",
          "134155.754000",
          "134155.757000",
          "134155.760000",
          "134155.763000",
          "134155.766000",
          "134155.769000",
          "134155.772000",
          "134155.775000",
          "134155.778000",
          "134215.716000",
          "134215.719000",
          "134215.722000",
          "134215.725000",
          "134215.728000",
          "134215.731000",
          "134215.734000",
          "134215.737000",
          "134215.740000",
          "134215.743000",
          "134215.756000",
          "134215.759000",
          "134215.762000",
          "134215.765000",
          "134215.768000",
          "134215.771000",
          "134215.773000",
          "134215.777000",
          "134215.780000",
          "134215.783000",
          "134235.716000",
          "134235.719000",
          "134235.722000",
          "134235.725000",
          "134235.728000",
          "134235.731000",
          "134235.734000",
          "134235.737000",
          "134235.740000",
          "134235.743000",
          "134235.746000",
          "134235.748000",
          "134235.751000",
          "134235.754000",
          "134235.757000",
          "134235.760000",
          "134235.763000",
          "134235.766000",
          "134235.778000",
          "134235.781000",
          "134315.716000",
          "134315.720000",
          "134315.723000",
          "134315.726000",
          "134315.730000",
          "134315.733000",
          "134315.736000",
          "134315.740000",
          "134315.746000",
          "134315.750000",
          "134315.753000",
          "134315.756000",
          "134315.760000",
          "134315.763000",
          "134315.766000",
          "134315.770000",
          "134315.773000",
          "134315.776000",
          "134315.779000",
          "134315.782000",
          "134315.785000",
          "134315.789000",
          "134315.792000",
          "134315.795000",
          "134315.798000",
          "134315.802000",
          "134315.805000",
          "134355.715000",
          "134355.718000",
          "134355.721000",
          "134355.724000",
          "134355.727000",
          "134355.730000",
          "134355.733000",
          "134355.736000",
          "134355.739000",
          "134355.742000",
          "134355.747000",
          "134355.751000",
          "134355.755000",
          "134355.759000",
          "134355.762000",
          "134355.765000",
          "134355.768000",
          "134355.771000",
          "134355.773000",
          "134355.776000",
          "134355.779000",
          "134355.782000",
          "134355.785000",
          "134355.788000",
          "134355.791000",
          "134355.794000",
          "134435.716000",
          "134435.719000",
          "134435.722000",
          "134435.725000",
          "134435.728000",
          "134435.731000",
          "134435.734000",
          "134435.737000",
          "134435.740000",
          "134435.743000",
          "134435.745000",
          "134435.748000",
          "134435.751000",
          "134435.754000",
          "134435.762000",
          "134435.765000",
          "134435.768000",
          "134435.771000",
          "134435.774000",
          "134435.777000",
          "134435.780000",
          "134435.783000",
          "134435.787000",
          "134435.789000",
          "134435.792000",
          "134435.795000",
          "134435.798000",
          "134515.716000",
          "134515.719000",
          "134515.722000",
          "134515.725000",
          "134515.728000",
          "134515.731000",
          "134515.734000",
          "134515.737000",
          "134515.740000",
          "134515.743000",
          "134515.746000",
          "134515.749000",
          "134515.752000",
          "134515.755000",
          "134515.758000",
          "134515.761000",
          "134515.764000",
          "134515.767000",
          "134515.770000",
          "134515.773000",
          "134515.776000",
          "134515.779000",
          "134515.782000",
          "134515.784000",
          "134515.787000",
          "134515.790000",
          "134515.793000",
          "134555.716000",
          "134555.719000",
          "134555.722000",
          "134555.725000",
          "134555.728000",
          "134555.731000",
          "134555.734000",
          "134555.737000",
          "134555.740000",
