{
  "aor": 0.000520641975308642,
  "aqi": 0.0058352947160493825,
  "bids_meta": {
    "AcquisitionMatrixPE": 104,
    "AcquisitionNumber": 1,
    "AcquisitionTime": "13:29:14.282500",
    "BandwidthPerPixelPhaseEncode": 17.17,
    "BaseResolution": 104,
    "BodyPartExamined": "BRAIN",
    "CogAtlasID": "trm_4c898da401420",
    "ConsistencyInfo": "N4_VE11C_LATEST_20160120",
    "ConversionSoftware": "dcm2niix",
    "ConversionSoftwareVersion": "v1.0.20171215 (OpenJPEG build) GCC7.3.0",
    "DerivedVendorReportedEchoSpacing": 0.000560011,
    "DeviceSerialNumber": "167006",
    "DwellTime": 2.1e-06,
    "EchoTime": 0.037,
    "EchoTrainLength": 104,
    "EffectiveEchoSpacing": 0.000560011,
    "FlipAngle": 52,
    "ImageComments": "Unaliased_MB4_PE3_LB",
    "ImageOrientationPatientDICOM": [
      0.999317,
      0.0368378,
      -0.00279308,
      -0.0359447,
      0.952056,
      -0.303805
    ],
    "ImageType": [
      "ORIGINAL",
      "PRIMARY",
      "M",
      "MB",
      "ND",
      "MOSAIC"
    ],
    "InPlanePhaseEncodingDirectionDICOM": "COL",
    "InstitutionAddress": "Chemin_Queen-Mary_4565_Montreal_District_CA_H3W_1W5",
    "InstitutionName": "IUGM",
    "InstitutionalDepartmentName": "Department",
    "MRAcquisitionType": "2D",
    "MagneticFieldStrength": 3,
    "Manufacturer": "Siemens",
    "ManufacturersModelName": "Prisma_fit",
    "Modality": "MR",
    "MultibandAccelerationFactor": 4,
    "PartialFourier": 1,
    "PatientPosition": "HFS",
    "PercentPhaseFOV": 100,
    "PhaseEncodingDirection": "j-",
    "PhaseEncodingSteps": 104,
    "PhaseResolution": 1,
    "PixelBandwidth": 2290,
    "ProcedureStepDescription": "video5_generic",
    "ProtocolName": "func_task-bourne6",
    "PulseSequenceDetails": "%CustomerSeq%_cmrr_mbep2d_bold",
    "ReceiveCoilActiveElements": "HC1-7;NC1,2",
    "ReceiveCoilName": "HeadNeck_64",
    "ReconMatrixPE": 104,
    "RepetitionTime": 1.49,
    "SAR": 0.0313813,
    "ScanOptions": "FS",
    "ScanningSequence": "EP",
    "SequenceName": "epfid2d1_104",
    "SequenceVariant": "SK_SS",
    "SeriesDescription": "func_task-bourne6",
    "SeriesNumber": 7,
    "ShimSetting": [
      631,
      -7134,
      -8820,
      644,
      58,
      208,
      -10,
      -22
    ],
    "SliceThickness": 2,
    "SliceTiming": [
      0,
      0.7825,
      0.0975,
      0.88,
      0.195,
      0.9775,
      0.2925,
      1.0775,
      0.39,
      1.175,
      0.49,
      1.2725,
      0.5875,
      1.37,
      0.685,
      0,
      0.7825,
      0.0975,
      0.88,
      0.195,
      0.9775,
      0.2925,
      1.0775,
      0.39,
      1.175,
      0.49,
      1.2725,
      0.5875,
      1.37,
      0.685,
      0,
      0.7825,
      0.0975,
      0.88,
      0.195,
      0.9775,
      0.2925,
      1.0775,
      0.39,
      1.175,
      0.49,
      1.2725,
      0.5875,
      1.37,
      0.685,
      0,
      0.7825,
      0.0975,
      0.88,
      0.195,
      0.9775,
      0.2925,
      1.0775,
      0.39,
      1.175,
      0.49,
      1.2725,
      0.5875,
      1.37,
      0.685
    ],
    "SoftwareVersions": "syngo_MR_E11",
    "SpacingBetweenSlices": 2,
    "StationName": "MRC35049",
    "TaskName": "bourne06",
    "TotalReadoutTime": 0.0576811,
    "TxRefAmp": 211.797,
    "dataset": "<unset>",
    "dcmmeta_affine": [
      [
        -1.998634696006775,
        -0.0718894749879837,
        0.017064711079001427,
        110.770263671875
      ],
      [
        -0.07367561757564545,
        1.904111623764038,
        -0.6073969602584839,
        -64.73855590820312
      ],
      [
        -0.005586166866123676,
        0.6076109409332275,
        1.905460000038147,
        -66.33470153808594
      ],
      [
        0.0,
        0.0,
        0.0,
        1.0
      ]
    ],
    "dcmmeta_reorient_transform": [
      [
        0.0,
        -1.0,
        0.0,
        103.0
      ],
      [
        1.0,
        0.0,
        0.0,
        0.0
      ],
      [
        0.0,
        0.0,
        1.0,
        0.0
      ],
      [
        0.0,
        0.0,
        0.0,
        1.0
      ]
    ],
    "dcmmeta_shape": [
      104,
      104,
      60,
      405
    ],
    "dcmmeta_slice_dim": 2,
    "dcmmeta_version": 0.6,
    "global": {
      "const": {
        "AcquisitionMatrix": [
          104,
          0,
          0,
          104
        ],
        "AngioFlag": "N",
        "BitsAllocated": 16,
        "BitsStored": 16,
        "BodyPartExamined": "BRAIN",
        "Columns": 832,
        "EchoNumbers": 1,
        "EchoTime": 37.0,
        "EchoTrainLength": 104,
        "FlipAngle": 52.0,
        "HighBit": 15,
        "ImageOrientationPatient": [
          0.99931735432463,
          0.03683780708057,
          -0.0027930834415,
          -0.035944738825,
          0.9520557837452,
          -0.3038054647108
        ],
        "ImagePositionPatient": [
          -804.70090875965,
          -851.29947229727,
          219.45296432224
        ],
        "ImageType": [
          "ORIGINAL",
          "PRIMARY",
          "M",
          "MB",
          "ND",
          "MOSAIC"
        ],
        "ImagedNucleus": "1H",
        "ImagingFrequency": 123.259583,
        "InPlanePhaseEncodingDirection": "COL",
        "MRAcquisitionType": "2D",
        "MagneticFieldStrength": 3.0,
        "Manufacturer": "SIEMENS",
        "ManufacturerModelName": "Prisma_fit",
        "Modality": "MR",
        "NumberOfAverages": 1.0,
        "NumberOfPhaseEncodingSteps": 104,
        "PercentPhaseFieldOfView": 100.0,
        "PercentSampling": 100.0,
        "PerformedProcedureStepStartTime": "131205.871000",
        "PhotometricInterpretation": "MONOCHROME2",
        "PixelBandwidth": 2290.0,
        "PixelRepresentation": 0,
        "PixelSpacing": [
          2.0,
          2.0
        ],
        "ProtocolName": "func_task-bourne6",
        "RepetitionTime": 1490.0,
        "Rows": 832,
        "SAR": 0.0313812751614,
        "SamplesPerPixel": 1,
        "ScanOptions": "FS",
        "ScanningSequence": "EP",
        "SequenceName": "epfid2d1_104",
        "SequenceVariant": [
          "SK",
          "SS"
        ],
        "SeriesDescription": "func_task-bourne6",
        "SeriesNumber": 7,
        "SeriesTime": "133033.841000",
        "SliceLocation": -42.592931618968,
        "SliceThickness": 2.0,
        "SmallestImagePixelValue": 0,
        "SoftwareVersions": "syngo MR E11",
        "SpacingBetweenSlices": 1.9999999840921,
        "SpecificCharacterSet": "ISO_IR 100",
        "StudyID": "1",
        "StudyTime": "131205.779000",
        "TransmitCoilName": "Body",
        "VariableFlipAngleFlag": "N",
        "WindowCenterWidthExplanation": "Algo1",
        "dBdt": 0.0
      },
      "slices": {}
    },
    "modality": "bold",
    "session_id": "002",
    "subject_id": "03",
    "task_id": "bourne06",
    "time": {
      "samples": {
        "AcquisitionNumber": [
          1,
          2,
          3,
          4,
          5,
          6,
          7,
          8,
          9,
          10,
          11,
          12,
          13,
          14,
          15,
          16,
          17,
          18,
          19,
          20,
          21,
          22,
          23,
          24,
          25,
          26,
          27,
          28,
          29,
          30,
          31,
          32,
          33,
          34,
          35,
          36,
          37,
          38,
          39,
          40,
          41,
          42,
          43,
          44,
          45,
          46,
          47,
          48,
          49,
          50,
          51,
          52,
          53,
          54,
          55,
          56,
          57,
          58,
          59,
          60,
          61,
          62,
          63,
          64,
          65,
          66,
          67,
          68,
          69,
          70,
          71,
          72,
          73,
          74,
          75,
          76,
          77,
          78,
          79,
          80,
          81,
          82,
          83,
          84,
          85,
          86,
          87,
          88,
          89,
          90,
          91,
          92,
          93,
          94,
          95,
          96,
          97,
          98,
          99,
          100,
          101,
          102,
          103,
          104,
          105,
          106,
          107,
          108,
          109,
          110,
          111,
          112,
          113,
          114,
          115,
          116,
          117,
          118,
          119,
          120,
          121,
          122,
          123,
          124,
          125,
          126,
          127,
          128,
          129,
          130,
          131,
          132,
          133,
          134,
          135,
          136,
          137,
          138,
          139,
          140,
          141,
          142,
          143,
          144,
          145,
          146,
          147,
          148,
          149,
          150,
          151,
          152,
          153,
          154,
          155,
          156,
          157,
          158,
          159,
          160,
          161,
          162,
          163,
          164,
          165,
          166,
          167,
          168,
          169,
          170,
          171,
          172,
          173,
          174,
          175,
          176,
          177,
          178,
          179,
          180,
          181,
          182,
          183,
          184,
          185,
          186,
          187,
          188,
          189,
          190,
          191,
          192,
          193,
          194,
          195,
          196,
          197,
          198,
          199,
          200,
          201,
          202,
          203,
          204,
          205,
          206,
          207,
          208,
          209,
          210,
          211,
          212,
          213,
          214,
          215,
          216,
          217,
          218,
          219,
          220,
          221,
          222,
          223,
          224,
          225,
          226,
          227,
          228,
          229,
          230,
          231,
          232,
          233,
          234,
          235,
          236,
          237,
          238,
          239,
          240,
          241,
          242,
          243,
          244,
          245,
          246,
          247,
          248,
          249,
          250,
          251,
          252,
          253,
          254,
          255,
          256,
          257,
          258,
          259,
          260,
          261,
          262,
          263,
          264,
          265,
          266,
          267,
          268,
          269,
          270,
          271,
          272,
          273,
          274,
          275,
          276,
          277,
          278,
          279,
          280,
          281,
          282,
          283,
          284,
          285,
          286,
          287,
          288,
          289,
          290,
          291,
          292,
          293,
          294,
          295,
          296,
          297,
          298,
          299,
          300,
          301,
          302,
          303,
          304,
          305,
          306,
          307,
          308,
          309,
          310,
          311,
          312,
          313,
          314,
          315,
          316,
          317,
          318,
          319,
          320,
          321,
          322,
          323,
          324,
          325,
          326,
          327,
          328,
          329,
          330,
          331,
          332,
          333,
          334,
          335,
          336,
          337,
          338,
          339,
          340,
          341,
          342,
          343,
          344,
          345,
          346,
          347,
          348,
          349,
          350,
          351,
          352,
          353,
          354,
          355,
          356,
          357,
          358,
          359,
          360,
          361,
          362,
          363,
          364,
          365,
          366,
          367,
          368,
          369,
          370,
          371,
          372,
          373,
          374,
          375,
          376,
          377,
          378,
          379,
          380,
          381,
          382,
          383,
          384,
          385,
          386,
          387,
          388,
          389,
          390,
          391,
          392,
          393,
          394,
          395,
          396,
          397,
          398,
          399,
          400,
          401,
          402,
          403,
          404,
          405
        ],
        "AcquisitionTime": [
          "132914.282500",
          "132915.772500",
          "132917.262500",
          "132918.752500",
          "132920.242500",
          "132921.732500",
          "132923.222500",
          "132924.712500",
          "132926.202500",
          "132927.692500",
          "132929.182500",
          "132930.672500",
          "132932.162500",
          "132933.652500",
          "132935.142500",
          "132936.632500",
          "132938.122500",
          "132939.612500",
          "132941.102500",
          "132942.592500",
          "132944.082500",
          "132945.572500",
          "132947.062500",
          "132948.552500",
          "132950.042500",
          "132951.532500",
          "132953.022500",
          "132954.512500",
          "132956.002500",
          "132957.492500",
          "132958.982500",
          "133000.472500",
          "133001.962500",
          "133003.452500",
          "133004.942500",
          "133006.432500",
          "133007.922500",
          "133009.412500",
          "133010.902500",
          "133012.392500",
          "133013.882500",
          "133015.372500",
          "133016.862500",
          "133018.352500",
          "133019.842500",
          "133021.332500",
          "133022.822500",
          "133024.312500",
          "133025.802500",
          "133027.292500",
          "133028.782500",
          "133030.272500",
          "133031.762500",
          "133033.252500",
          "133034.742500",
          "133036.232500",
          "133037.722500",
          "133039.212500",
          "133040.702500",
          "133042.192500",
          "133043.682500",
          "133045.172500",
          "133046.662500",
          "133048.152500",
          "133049.642500",
          "133051.132500",
          "133052.622500",
          "133054.112500",
          "133055.602500",
          "133057.092500",
          "133058.582500",
          "133100.072500",
          "133101.562500",
          "133103.052500",
          "133104.542500",
          "133106.032500",
          "133107.522500",
          "133109.012500",
          "133110.502500",
          "133111.992500",
          "133113.482500",
          "133114.972500",
          "133116.462500",
          "133117.952500",
          "133119.442500",
          "133120.932500",
          "133122.422500",
          "133123.912500",
          "133125.402500",
          "133126.892500",
          "133128.382500",
          "133129.872500",
          "133131.362500",
          "133132.852500",
          "133134.342500",
          "133135.832500",
          "133137.322500",
          "133138.812500",
          "133140.302500",
          "133141.792500",
          "133143.282500",
          "133144.772500",
          "133146.262500",
          "133147.752500",
          "133149.242500",
          "133150.732500",
          "133152.222500",
          "133153.712500",
          "133155.202500",
          "133156.692500",
          "133158.182500",
          "133159.672500",
          "133201.162500",
          "133202.652500",
          "133204.142500",
          "133205.632500",
          "133207.122500",
          "133208.612500",
          "133210.102500",
          "133211.592500",
          "133213.082500",
          "133214.572500",
          "133216.062500",
          "133217.552500",
          "133219.042500",
          "133220.532500",
          "133222.022500",
          "133223.512500",
          "133225.002500",
          "133226.492500",
          "133227.982500",
          "133229.472500",
          "133230.962500",
          "133232.452500",
          "133233.942500",
          "133235.432500",
          "133236.922500",
          "133238.412500",
          "133239.902500",
          "133241.392500",
          "133242.882500",
          "133244.372500",
          "133245.862500",
          "133247.352500",
          "133248.842500",
          "133250.332500",
          "133251.822500",
          "133253.312500",
          "133254.802500",
          "133256.292500",
          "133257.782500",
          "133259.272500",
          "133300.762500",
          "133302.252500",
          "133303.742500",
          "133305.232500",
          "133306.722500",
          "133308.212500",
          "133309.702500",
          "133311.192500",
          "133312.682500",
          "133314.172500",
          "133315.662500",
          "133317.152500",
          "133318.642500",
          "133320.132500",
          "133321.622500",
          "133323.112500",
          "133324.602500",
          "133326.092500",
          "133327.582500",
          "133329.072500",
          "133330.562500",
          "133332.052500",
          "133333.542500",
          "133335.032500",
          "133336.522500",
          "133338.012500",
          "133339.502500",
          "133340.992500",
          "133342.482500",
          "133343.972500",
          "133345.462500",
          "133346.952500",
          "133348.442500",
          "133349.932500",
          "133351.422500",
          "133352.912500",
          "133354.402500",
          "133355.892500",
          "133357.382500",
          "133358.872500",
          "133400.362500",
          "133401.852500",
          "133403.342500",
          "133404.832500",
          "133406.322500",
          "133407.812500",
          "133409.302500",
          "133410.792500",
          "133412.282500",
          "133413.772500",
          "133415.262500",
          "133416.752500",
          "133418.242500",
          "133419.732500",
          "133421.222500",
          "133422.712500",
          "133424.202500",
          "133425.692500",
          "133427.182500",
          "133428.672500",
          "133430.162500",
          "133431.652500",
          "133433.142500",
          "133434.632500",
          "133436.122500",
          "133437.612500",
          "133439.102500",
          "133440.592500",
          "133442.082500",
          "133443.572500",
          "133445.062500",
          "133446.552500",
          "133448.042500",
          "133449.532500",
          "133451.022500",
          "133452.512500",
          "133454.002500",
          "133455.492500",
          "133456.982500",
          "133458.472500",
          "133459.962500",
          "133501.452500",
          "133502.942500",
          "133504.432500",
          "133505.922500",
          "133507.412500",
          "133508.902500",
          "133510.392500",
          "133511.882500",
          "133513.372500",
          "133514.862500",
          "133516.352500",
          "133517.842500",
          "133519.332500",
          "133520.822500",
          "133522.312500",
          "133523.802500",
          "133525.292500",
          "133526.782500",
          "133528.272500",
          "133529.762500",
          "133531.252500",
          "133532.742500",
          "133534.232500",
          "133535.722500",
          "133537.212500",
          "133538.702500",
          "133540.192500",
          "133541.682500",
          "133543.172500",
          "133544.662500",
          "133546.152500",
          "133547.642500",
          "133549.132500",
          "133550.622500",
          "133552.112500",
          "133553.602500",
          "133555.092500",
          "133556.582500",
          "133558.072500",
          "133559.562500",
          "133601.052500",
          "133602.542500",
          "133604.032500",
          "133605.522500",
          "133607.012500",
          "133608.502500",
          "133609.992500",
          "133611.482500",
          "133612.972500",
          "133614.462500",
          "133615.952500",
          "133617.442500",
          "133618.932500",
          "133620.422500",
          "133621.912500",
          "133623.402500",
          "133624.892500",
          "133626.382500",
          "133627.872500",
          "133629.362500",
          "133630.852500",
          "133632.342500",
          "133633.832500",
          "133635.322500",
          "133636.812500",
          "133638.302500",
          "133639.792500",
          "133641.282500",
          "133642.772500",
          "133644.262500",
          "133645.752500",
          "133647.242500",
          "133648.732500",
          "133650.222500",
          "133651.712500",
          "133653.202500",
          "133654.692500",
          "133656.182500",
          "133657.672500",
          "133659.162500",
          "133700.652500",
          "133702.142500",
          "133703.632500",
          "133705.122500",
          "133706.612500",
          "133708.102500",
          "133709.592500",
          "133711.082500",
          "133712.572500",
          "133714.062500",
          "133715.552500",
          "133717.042500",
          "133718.532500",
          "133720.022500",
          "133721.512500",
          "133723.002500",
          "133724.492500",
          "133725.982500",
          "133727.472500",
          "133728.962500",
          "133730.452500",
          "133731.942500",
          "133733.432500",
          "133734.922500",
          "133736.412500",
          "133737.902500",
          "133739.392500",
          "133740.882500",
          "133742.372500",
          "133743.862500",
          "133745.352500",
          "133746.842500",
          "133748.332500",
          "133749.822500",
          "133751.312500",
          "133752.802500",
          "133754.292500",
          "133755.782500",
          "133757.272500",
          "133758.762500",
          "133800.252500",
          "133801.742500",
          "133803.232500",
          "133804.722500",
          "133806.212500",
          "133807.702500",
          "133809.192500",
          "133810.682500",
          "133812.172500",
          "133813.662500",
          "133815.152500",
          "133816.642500",
          "133818.132500",
          "133819.622500",
          "133821.112500",
          "133822.602500",
          "133824.092500",
          "133825.582500",
          "133827.072500",
          "133828.562500",
          "133830.052500",
          "133831.542500",
          "133833.032500",
          "133834.522500",
          "133836.012500",
          "133837.502500",
          "133838.992500",
          "133840.482500",
          "133841.972500",
          "133843.462500",
          "133844.952500",
          "133846.442500",
          "133847.932500",
          "133849.422500",
          "133850.912500",
          "133852.402500",
          "133853.892500",
          "133855.382500",
          "133856.872500",
          "133858.362500",
          "133859.852500",
          "133901.342500",
          "133902.832500",
          "133904.322500",
          "133905.812500",
          "133907.302500",
          "133908.792500",
          "133910.282500",
          "133911.772500",
          "133913.262500",
          "133914.752500",
          "133916.242500"
        ],
        "ContentTime": [
          "133033.844000",
          "133033.851000",
          "133033.854000",
          "133033.857000",
          "133033.860000",
          "133033.863000",
          "133033.866000",
          "133033.873000",
          "133033.875000",
          "133033.884000",
          "133033.887000",
          "133033.890000",
          "133033.893000",
          "133033.896000",
          "133033.899000",
          "133033.902000",
          "133033.905000",
          "133033.917000",
          "133033.920000",
          "133033.922000",
          "133033.925000",
          "133033.928000",
          "133033.931000",
          "133033.934000",
          "133033.937000",
          "133033.940000",
          "133053.802000",
          "133053.805000",
          "133053.808000",
          "133053.811000",
          "133053.814000",
          "133053.817000",
          "133053.820000",
          "133053.823000",
          "133053.826000",
          "133053.829000",
          "133053.832000",
          "133053.835000",
          "133053.838000",
          "133053.841000",
          "133053.844000",
          "133053.847000",
          "133053.849000",
          "133053.852000",
          "133053.855000",
          "133053.858000",
          "133113.802000",
          "133113.813000",
          "133113.816000",
          "133113.819000",
          "133113.822000",
          "133113.825000",
          "133113.828000",
          "133113.830000",
          "133113.833000",
          "133113.836000",
          "133113.839000",
          "133113.842000",
          "133113.845000",
          "133113.848000",
          "133113.851000",
          "133113.864000",
          "133113.867000",
          "133113.870000",
          "133113.873000",
          "133113.876000",
          "133133.801000",
          "133133.817000",
          "133133.820000",
          "133133.827000",
          "133133.829000",
          "133133.833000",
          "133133.835000",
          "133133.838000",
          "133133.841000",
          "133133.844000",
          "133133.847000",
          "133133.850000",
          "133133.853000",
          "133133.862000",
          "133133.865000",
          "133133.868000",
          "133133.871000",
          "133133.874000",
          "133133.877000",
          "133133.880000",
          "133133.882000",
          "133213.801000",
          "133213.804000",
          "133213.807000",
          "133213.810000",
          "133213.813000",
          "133213.816000",
          "133213.819000",
          "133213.822000",
          "133213.825000",
          "133213.828000",
          "133213.831000",
          "133213.834000",
          "133213.837000",
          "133213.839000",
          "133213.843000",
          "133213.846000",
          "133213.848000",
          "133213.851000",
          "133213.854000",
          "133213.857000",
          "133213.860000",
          "133213.863000",
          "133213.866000",
          "133213.869000",
          "133213.872000",
          "133213.875000",
          "133213.878000",
          "133213.881000",
          "133213.884000",
          "133213.909000",
          "133213.912000",
          "133213.915000",
          "133213.918000",
          "133253.801000",
          "133253.804000",
          "133253.807000",
          "133253.810000",
          "133253.813000",
          "133253.816000",
          "133253.819000",
          "133253.822000",
          "133253.825000",
          "133253.828000",
          "133253.831000",
          "133253.834000",
          "133253.837000",
          "133253.840000",
          "133253.843000",
          "133253.846000",
          "133253.848000",
          "133253.851000",
          "133253.854000",
          "133253.857000",
          "133253.860000",
          "133253.863000",
          "133253.866000",
          "133253.869000",
          "133253.872000",
          "133253.875000",
          "133253.878000",
          "133333.803000",
          "133333.806000",
          "133333.809000",
          "133333.812000",
          "133333.815000",
          "133333.818000",
          "133333.821000",
          "133333.824000",
          "133333.827000",
          "133333.830000",
          "133333.833000",
          "133333.835000",
          "133333.838000",
          "133333.841000",
          "133333.844000",
          "133333.847000",
          "133333.850000",
          "133333.853000",
          "133333.856000",
          "133333.859000",
          "133333.868000",
          "133333.871000",
          "133333.874000",
          "133333.877000",
          "133333.880000",
          "133333.883000",
          "133333.886000",
          "133413.801000",
          "133413.806000",
          "133413.809000",
          "133413.812000",
          "133413.815000",
          "133413.818000",
          "133413.821000",
          "133413.824000",
          "133413.827000",
          "133413.830000",
          "133413.833000",
          "133413.836000",
          "133413.839000",
          "133413.842000",
          "133413.845000",
          "133413.848000",
          "133413.852000",
          "133413.855000",
          "133413.858000",
          "133413.861000",
          "133413.864000",
          "133413.867000",
          "133413.870000",
          "133413.873000",
          "133413.876000",
          "133413.879000",
          "133453.801000",
          "133453.804000",
          "133453.807000",
          "133453.810000",
          "133453.813000",
          "133453.816000",
          "133453.825000",
          "133453.828000",
          "133453.831000",
          "133453.834000",
          "133453.837000",
          "133453.840000",
          "133453.843000",
          "133453.846000",
          "133453.849000",
          "133453.852000",
          "133453.855000",
          "133453.857000",
          "133453.860000",
          "133453.863000",
          "133453.866000",
          "133453.869000",
          "133453.872000",
          "133453.875000",
          "133453.878000",
