{
  "aor": 0.0010171253071253072,
  "aqi": 0.009920541818181817,
  "bids_meta": {
    "AcquisitionMatrixPE": 104,
    "AcquisitionNumber": 1,
    "AcquisitionTime": "14:34:37.092500",
    "BandwidthPerPixelPhaseEncode": 17.17,
    "BaseResolution": 104,
    "BodyPartExamined": "BRAIN",
    "CogAtlasID": "trm_4c898da401420",
    "ConsistencyInfo": "N4_VE11C_LATEST_20160120",
    "ConversionSoftware": "dcm2niix",
    "ConversionSoftwareVersion": "v1.0.20171215 (OpenJPEG build) GCC7.3.0",
    "DerivedVendorReportedEchoSpacing": 0.000560011,
    "DeviceSerialNumber": "167006",
    "DwellTime": 2.1e-06,
    "EchoTime": 0.037,
    "EchoTrainLength": 104,
    "EffectiveEchoSpacing": 0.000560011,
    "FlipAngle": 52,
    "ImageComments": "Unaliased_MB4_PE3_LB",
    "ImageOrientationPatientDICOM": [
      0.999817,
      -0.0189217,
      -0.00264392,
      0.0172773,
      0.954522,
      -0.29764
    ],
    "ImageType": [
      "ORIGINAL",
      "PRIMARY",
      "M",
      "MB",
      "ND",
      "MOSAIC"
    ],
    "InPlanePhaseEncodingDirectionDICOM": "COL",
    "InstitutionAddress": "Chemin_Queen-Mary_4565_Montreal_District_CA_H3W_1W5",
    "InstitutionName": "IUGM",
    "InstitutionalDepartmentName": "Department",
    "MRAcquisitionType": "2D",
    "MagneticFieldStrength": 3,
    "Manufacturer": "Siemens",
    "ManufacturersModelName": "Prisma_fit",
    "Modality": "MR",
    "MultibandAccelerationFactor": 4,
    "PartialFourier": 1,
    "PatientPosition": "HFS",
    "PercentPhaseFOV": 100,
    "PhaseEncodingDirection": "j-",
    "PhaseEncodingSteps": 104,
    "PhaseResolution": 1,
    "PixelBandwidth": 2290,
    "ProcedureStepDescription": "video5_generic",
    "ProtocolName": "func_task-wolf14",
    "PulseSequenceDetails": "%CustomerSeq%_cmrr_mbep2d_bold",
    "ReceiveCoilActiveElements": "HC1-7;NC1,2",
    "ReceiveCoilName": "HeadNeck_64",
    "ReconMatrixPE": 104,
    "RepetitionTime": 1.49,
    "SAR": 0.0287088,
    "ScanOptions": "FS",
    "ScanningSequence": "EP",
    "SequenceName": "epfid2d1_104",
    "SequenceVariant": "SK_SS",
    "SeriesDescription": "func_task-wolf14",
    "SeriesNumber": 18,
    "ShimSetting": [
      631,
      -7247,
      -8881,
      578,
      18,
      -224,
      -69,
      2
    ],
    "SliceThickness": 2,
    "SliceTiming": [
      0,
      0.7825,
      0.0975,
      0.88,
      0.195,
      0.98,
      0.2925,
      1.0775,
      0.39,
      1.175,
      0.49,
      1.2725,
      0.5875,
      1.37,
      0.685,
      0,
      0.7825,
      0.0975,
      0.88,
      0.195,
      0.98,
      0.2925,
      1.0775,
      0.39,
      1.175,
      0.49,
      1.2725,
      0.5875,
      1.37,
      0.685,
      0,
      0.7825,
      0.0975,
      0.88,
      0.195,
      0.98,
      0.2925,
      1.0775,
      0.39,
      1.175,
      0.49,
      1.2725,
      0.5875,
      1.37,
      0.685,
      0,
      0.7825,
      0.0975,
      0.88,
      0.195,
      0.98,
      0.2925,
      1.0775,
      0.39,
      1.175,
      0.49,
      1.2725,
      0.5875,
      1.37,
      0.685
    ],
    "SoftwareVersions": "syngo_MR_E11",
    "SpacingBetweenSlices": 2,
    "StationName": "MRC35049",
    "TaskName": "wolf14",
    "TotalReadoutTime": 0.0576811,
    "TxRefAmp": 221.314,
    "dataset": "<unset>",
    "dcmmeta_affine": [
      [
        -1.9996349811553955,
        0.03455469012260437,
        -0.016311047598719597,
        104.4054183959961
      ],
      [
        0.03784330189228058,
        1.9090434312820435,
        -0.5950808525085449,
        -65.45613098144531
      ],
      [
        -0.00528783118352294,
        0.5952808856964111,
        1.909348726272583,
        -78.90538024902344
      ],
      [
        0.0,
        0.0,
        0.0,
        1.0
      ]
    ],
    "dcmmeta_reorient_transform": [
      [
        0.0,
        -1.0,
        0.0,
        103.0
      ],
      [
        1.0,
        0.0,
        0.0,
        0.0
      ],
      [
        0.0,
        0.0,
        1.0,
        0.0
      ],
      [
        0.0,
        0.0,
        0.0,
        1.0
      ]
    ],
    "dcmmeta_shape": [
      104,
      104,
      60,
      407
    ],
    "dcmmeta_slice_dim": 2,
    "dcmmeta_version": 0.6,
    "global": {
      "const": {
        "AcquisitionMatrix": [
          104,
          0,
          0,
          104
        ],
        "AngioFlag": "N",
        "BitsAllocated": 16,
        "BitsStored": 16,
        "BodyPartExamined": "BRAIN",
        "Columns": 832,
        "EchoNumbers": 1,
        "EchoTime": 37.0,
        "EchoTrainLength": 104,
        "FlipAngle": 52.0,
        "HighBit": 15,
        "ImageOrientationPatient": [
          0.99981747375039,
          -0.0189216514629,
          -0.0026439155239,
          0.01727734414735,
          0.95452169180226,
          -0.2976404429142
        ],
        "ImagePositionPatient": [
          -848.40957715249,
          -812.29216981111,
          201.01556037213
        ],
        "ImageType": [
          "ORIGINAL",
          "PRIMARY",
          "M",
          "MB",
          "ND",
          "MOSAIC"
        ],
        "ImagedNucleus": "1H",
        "ImagingFrequency": 123.259224,
        "InPlanePhaseEncodingDirection": "COL",
        "MRAcquisitionType": "2D",
        "MagneticFieldStrength": 3.0,
        "Manufacturer": "SIEMENS",
        "ManufacturerModelName": "Prisma_fit",
        "Modality": "MR",
        "NumberOfAverages": 1.0,
        "NumberOfPhaseEncodingSteps": 104,
        "PercentPhaseFieldOfView": 100.0,
        "PercentSampling": 100.0,
        "PerformedProcedureStepStartTime": "132340.387000",
        "PhotometricInterpretation": "MONOCHROME2",
        "PixelBandwidth": 2290.0,
        "PixelRepresentation": 0,
        "PixelSpacing": [
          2.0,
          2.0
        ],
        "ProtocolName": "func_task-wolf14",
        "RepetitionTime": 1490.0,
        "Rows": 832,
        "SAR": 0.02870880456193,
        "SamplesPerPixel": 1,
        "ScanOptions": "FS",
        "ScanningSequence": "EP",
        "SequenceName": "epfid2d1_104",
        "SequenceVariant": [
          "SK",
          "SS"
        ],
        "SeriesDescription": "func_task-wolf14",
        "SeriesNumber": 18,
        "SeriesTime": "143606.488000",
        "SliceLocation": -56.704584507715,
        "SliceThickness": 2.0,
        "SmallestImagePixelValue": 0,
        "SoftwareVersions": "syngo MR E11",
        "SpacingBetweenSlices": 1.9999999897188,
        "SpecificCharacterSet": "ISO_IR 100",
        "StudyID": "1",
        "StudyTime": "132340.308000",
        "TransmitCoilName": "Body",
        "VariableFlipAngleFlag": "N",
        "WindowCenterWidthExplanation": "Algo1",
        "dBdt": 0.0
      },
      "slices": {}
    },
    "modality": "bold",
    "session_id": "010",
    "subject_id": "06",
    "task_id": "wolf14",
    "time": {
      "samples": {
        "AcquisitionNumber": [
          1,
          2,
          3,
          4,
          5,
          6,
          7,
          8,
          9,
          10,
          11,
          12,
          13,
          14,
          15,
          16,
          17,
          18,
          19,
          20,
          21,
          22,
          23,
          24,
          25,
          26,
          27,
          28,
          29,
          30,
          31,
          32,
          33,
          34,
          35,
          36,
          37,
          38,
          39,
          40,
          41,
          42,
          43,
          44,
          45,
          46,
          47,
          48,
          49,
          50,
          51,
          52,
          53,
          54,
          55,
          56,
          57,
          58,
          59,
          60,
          61,
          62,
          63,
          64,
          65,
          66,
          67,
          68,
          69,
          70,
          71,
          72,
          73,
          74,
          75,
          76,
          77,
          78,
          79,
          80,
          81,
          82,
          83,
          84,
          85,
          86,
          87,
          88,
          89,
          90,
          91,
          92,
          93,
          94,
          95,
          96,
          97,
          98,
          99,
          100,
          101,
          102,
          103,
          104,
          105,
          106,
          107,
          108,
          109,
          110,
          111,
          112,
          113,
          114,
          115,
          116,
          117,
          118,
          119,
          120,
          121,
          122,
          123,
          124,
          125,
          126,
          127,
          128,
          129,
          130,
          131,
          132,
          133,
          134,
          135,
          136,
          137,
          138,
          139,
          140,
          141,
          142,
          143,
          144,
          145,
          146,
          147,
          148,
          149,
          150,
          151,
          152,
          153,
          154,
          155,
          156,
          157,
          158,
          159,
          160,
          161,
          162,
          163,
          164,
          165,
          166,
          167,
          168,
          169,
          170,
          171,
          172,
          173,
          174,
          175,
          176,
          177,
          178,
          179,
          180,
          181,
          182,
          183,
          184,
          185,
          186,
          187,
          188,
          189,
          190,
          191,
          192,
          193,
          194,
          195,
          196,
          197,
          198,
          199,
          200,
          201,
          202,
          203,
          204,
          205,
          206,
          207,
          208,
          209,
          210,
          211,
          212,
          213,
          214,
          215,
          216,
          217,
          218,
          219,
          220,
          221,
          222,
          223,
          224,
          225,
          226,
          227,
          228,
          229,
          230,
          231,
          232,
          233,
          234,
          235,
          236,
          237,
          238,
          239,
          240,
          241,
          242,
          243,
          244,
          245,
          246,
          247,
          248,
          249,
          250,
          251,
          252,
          253,
          254,
          255,
          256,
          257,
          258,
          259,
          260,
          261,
          262,
          263,
          264,
          265,
          266,
          267,
          268,
          269,
          270,
          271,
          272,
          273,
          274,
          275,
          276,
          277,
          278,
          279,
          280,
          281,
          282,
          283,
          284,
          285,
          286,
          287,
          288,
          289,
          290,
          291,
          292,
          293,
          294,
          295,
          296,
          297,
          298,
          299,
          300,
          301,
          302,
          303,
          304,
          305,
          306,
          307,
          308,
          309,
          310,
          311,
          312,
          313,
          314,
          315,
          316,
          317,
          318,
          319,
          320,
          321,
          322,
          323,
          324,
          325,
          326,
          327,
          328,
          329,
          330,
          331,
          332,
          333,
          334,
          335,
          336,
          337,
          338,
          339,
          340,
          341,
          342,
          343,
          344,
          345,
          346,
          347,
          348,
          349,
          350,
          351,
          352,
          353,
          354,
          355,
          356,
          357,
          358,
          359,
          360,
          361,
          362,
          363,
          364,
          365,
          366,
          367,
          368,
          369,
          370,
          371,
          372,
          373,
          374,
          375,
          376,
          377,
          378,
          379,
          380,
          381,
          382,
          383,
          384,
          385,
          386,
          387,
          388,
          389,
          390,
          391,
          392,
          393,
          394,
          395,
          396,
          397,
          398,
          399,
          400,
          401,
          402,
          403,
          404,
          405,
          406,
          407
        ],
        "AcquisitionTime": [
          "143437.092500",
          "143438.582500",
          "143440.072500",
          "143441.562500",
          "143443.052500",
          "143444.542500",
          "143446.032500",
          "143447.522500",
          "143449.012500",
          "143450.502500",
          "143451.992500",
          "143453.482500",
          "143454.972500",
          "143456.462500",
          "143457.952500",
          "143459.442500",
          "143500.932500",
          "143502.422500",
          "143503.912500",
          "143505.402500",
          "143506.892500",
          "143508.382500",
          "143509.872500",
          "143511.362500",
          "143512.852500",
          "143514.342500",
          "143515.832500",
          "143517.322500",
          "143518.812500",
          "143520.302500",
          "143521.792500",
          "143523.282500",
          "143524.772500",
          "143526.262500",
          "143527.752500",
          "143529.242500",
          "143530.732500",
          "143532.222500",
          "143533.712500",
          "143535.202500",
          "143536.692500",
          "143538.182500",
          "143539.672500",
          "143541.162500",
          "143542.652500",
          "143544.142500",
          "143545.632500",
          "143547.122500",
          "143548.612500",
          "143550.102500",
          "143551.592500",
          "143553.082500",
          "143554.572500",
          "143556.062500",
          "143557.552500",
          "143559.042500",
          "143600.532500",
          "143602.022500",
          "143603.512500",
          "143605.002500",
          "143606.492500",
          "143607.982500",
          "143609.472500",
          "143610.962500",
          "143612.452500",
          "143613.942500",
          "143615.432500",
          "143616.922500",
          "143618.412500",
          "143619.902500",
          "143621.392500",
          "143622.882500",
          "143624.372500",
          "143625.862500",
          "143627.352500",
          "143628.842500",
          "143630.332500",
          "143631.822500",
          "143633.312500",
          "143634.802500",
          "143636.292500",
          "143637.782500",
          "143639.272500",
          "143640.762500",
          "143642.252500",
          "143643.742500",
          "143645.232500",
          "143646.722500",
          "143648.212500",
          "143649.702500",
          "143651.192500",
          "143652.682500",
          "143654.172500",
          "143655.662500",
          "143657.152500",
          "143658.642500",
          "143700.132500",
          "143701.622500",
          "143703.112500",
          "143704.602500",
          "143706.092500",
          "143707.582500",
          "143709.072500",
          "143710.562500",
          "143712.052500",
          "143713.542500",
          "143715.032500",
          "143716.522500",
          "143718.012500",
          "143719.502500",
          "143720.992500",
          "143722.482500",
          "143723.972500",
          "143725.462500",
          "143726.952500",
          "143728.442500",
          "143729.932500",
          "143731.422500",
          "143732.912500",
          "143734.402500",
          "143735.892500",
          "143737.382500",
          "143738.872500",
          "143740.362500",
          "143741.852500",
          "143743.342500",
          "143744.832500",
          "143746.322500",
          "143747.812500",
          "143749.302500",
          "143750.792500",
          "143752.282500",
          "143753.772500",
          "143755.262500",
          "143756.752500",
          "143758.242500",
          "143759.732500",
          "143801.222500",
          "143802.712500",
          "143804.202500",
          "143805.692500",
          "143807.182500",
          "143808.672500",
          "143810.162500",
          "143811.652500",
          "143813.142500",
          "143814.632500",
          "143816.122500",
          "143817.612500",
          "143819.102500",
          "143820.592500",
          "143822.082500",
          "143823.572500",
          "143825.062500",
          "143826.552500",
          "143828.042500",
          "143829.532500",
          "143831.022500",
          "143832.512500",
          "143834.002500",
          "143835.492500",
          "143836.982500",
          "143838.472500",
          "143839.962500",
          "143841.452500",
          "143842.942500",
          "143844.432500",
          "143845.922500",
          "143847.412500",
          "143848.902500",
          "143850.392500",
          "143851.882500",
          "143853.372500",
          "143854.862500",
          "143856.352500",
          "143857.842500",
          "143859.332500",
          "143900.822500",
          "143902.312500",
          "143903.802500",
          "143905.292500",
          "143906.782500",
          "143908.272500",
          "143909.762500",
          "143911.252500",
          "143912.742500",
          "143914.232500",
          "143915.722500",
          "143917.212500",
          "143918.702500",
          "143920.192500",
          "143921.682500",
          "143923.172500",
          "143924.662500",
          "143926.152500",
          "143927.642500",
          "143929.132500",
          "143930.622500",
          "143932.112500",
          "143933.602500",
          "143935.092500",
          "143936.582500",
          "143938.072500",
          "143939.562500",
          "143941.052500",
          "143942.542500",
          "143944.032500",
          "143945.522500",
          "143947.012500",
          "143948.502500",
          "143949.992500",
          "143951.482500",
          "143952.972500",
          "143954.462500",
          "143955.952500",
          "143957.442500",
          "143958.932500",
          "144000.422500",
          "144001.912500",
          "144003.402500",
          "144004.892500",
          "144006.382500",
          "144007.872500",
          "144009.362500",
          "144010.852500",
          "144012.342500",
          "144013.832500",
          "144015.322500",
          "144016.812500",
          "144018.302500",
          "144019.792500",
          "144021.282500",
          "144022.772500",
          "144024.262500",
          "144025.752500",
          "144027.242500",
          "144028.732500",
          "144030.222500",
          "144031.712500",
          "144033.202500",
          "144034.692500",
          "144036.182500",
          "144037.672500",
          "144039.162500",
          "144040.652500",
          "144042.142500",
          "144043.632500",
          "144045.122500",
          "144046.612500",
          "144048.102500",
          "144049.592500",
          "144051.082500",
          "144052.572500",
          "144054.062500",
          "144055.552500",
          "144057.042500",
          "144058.532500",
          "144100.022500",
          "144101.512500",
          "144103.002500",
          "144104.492500",
          "144105.982500",
          "144107.472500",
          "144108.962500",
          "144110.452500",
          "144111.942500",
          "144113.432500",
          "144114.922500",
          "144116.412500",
          "144117.902500",
          "144119.392500",
          "144120.882500",
          "144122.372500",
          "144123.862500",
          "144125.352500",
          "144126.842500",
          "144128.332500",
          "144129.822500",
          "144131.312500",
          "144132.802500",
          "144134.292500",
          "144135.782500",
          "144137.272500",
          "144138.762500",
          "144140.252500",
          "144141.742500",
          "144143.232500",
          "144144.722500",
          "144146.212500",
          "144147.702500",
          "144149.192500",
          "144150.682500",
          "144152.172500",
          "144153.662500",
          "144155.152500",
          "144156.642500",
          "144158.132500",
          "144159.622500",
          "144201.112500",
          "144202.602500",
          "144204.092500",
          "144205.582500",
          "144207.072500",
          "144208.562500",
          "144210.052500",
          "144211.542500",
          "144213.032500",
          "144214.522500",
          "144216.012500",
          "144217.502500",
          "144218.992500",
          "144220.482500",
          "144221.972500",
          "144223.462500",
          "144224.952500",
          "144226.442500",
          "144227.932500",
          "144229.422500",
          "144230.912500",
          "144232.402500",
          "144233.892500",
          "144235.382500",
          "144236.872500",
          "144238.362500",
          "144239.852500",
          "144241.342500",
          "144242.832500",
          "144244.322500",
          "144245.812500",
          "144247.302500",
          "144248.792500",
          "144250.282500",
          "144251.772500",
          "144253.262500",
          "144254.752500",
          "144256.242500",
          "144257.732500",
          "144259.222500",
          "144300.712500",
          "144302.202500",
          "144303.692500",
          "144305.182500",
          "144306.672500",
          "144308.162500",
          "144309.652500",
          "144311.142500",
          "144312.632500",
          "144314.122500",
          "144315.612500",
          "144317.102500",
          "144318.592500",
          "144320.082500",
          "144321.572500",
          "144323.062500",
          "144324.552500",
          "144326.042500",
          "144327.532500",
          "144329.022500",
          "144330.512500",
          "144332.002500",
          "144333.492500",
          "144334.982500",
          "144336.472500",
          "144337.962500",
          "144339.452500",
          "144340.942500",
          "144342.432500",
          "144343.922500",
          "144345.412500",
          "144346.902500",
          "144348.392500",
          "144349.882500",
          "144351.372500",
          "144352.862500",
          "144354.352500",
          "144355.842500",
          "144357.332500",
          "144358.822500",
          "144400.312500",
          "144401.802500",
          "144403.292500",
          "144404.782500",
          "144406.272500",
          "144407.762500",
          "144409.252500",
          "144410.742500",
          "144412.232500",
          "144413.722500",
          "144415.212500",
          "144416.702500",
          "144418.192500",
          "144419.682500",
          "144421.172500",
          "144422.662500",
          "144424.152500",
          "144425.642500",
          "144427.132500",
          "144428.622500",
          "144430.112500",
          "144431.602500",
          "144433.092500",
          "144434.582500",
          "144436.072500",
          "144437.562500",
          "144439.052500",
          "144440.542500",
          "144442.032500"
        ],
        "ContentTime": [
          "143606.491000",
          "143606.495000",
          "143606.498000",
          "143606.501000",
          "143606.504000",
          "143606.514000",
          "143606.517000",
          "143606.520000",
          "143606.523000",
          "143606.526000",
          "143606.529000",
          "143606.532000",
          "143606.535000",
          "143606.539000",
          "143606.541000",
          "143606.544000",
          "143606.547000",
          "143606.551000",
          "143606.554000",
          "143606.556000",
          "143606.560000",
          "143606.563000",
          "143606.566000",
          "143606.569000",
          "143606.571000",
          "143606.575000",
          "143606.578000",
          "143606.581000",
          "143606.584000",
          "143606.587000",
          "143606.590000",
          "143606.593000",
          "143606.596000",
          "143606.599000",
          "143606.602000",
          "143606.612000",
          "143606.615000",
          "143626.454000",
          "143626.457000",
          "143626.460000",
          "143626.463000",
          "143626.466000",
          "143626.469000",
          "143626.472000",
          "143626.475000",
          "143626.478000",
          "143626.481000",
          "143626.484000",
          "143626.487000",
          "143626.490000",
          "143626.493000",
          "143626.506000",
          "143626.509000",
          "143626.512000",
          "143626.515000",
          "143626.518000",
          "143626.521000",
          "143646.455000",
          "143646.458000",
          "143646.461000",
          "143646.464000",
          "143646.467000",
          "143646.470000",
          "143646.474000",
          "143646.478000",
          "143646.481000",
          "143646.485000",
          "143646.489000",
          "143646.492000",
          "143646.495000",
          "143646.498000",
          "143646.501000",
          "143646.504000",
          "143646.507000",
          "143646.510000",
          "143646.513000",
          "143646.516000",
          "143706.455000",
          "143706.458000",
          "143706.461000",
          "143706.464000",
          "143706.467000",
          "143706.470000",
          "143706.473000",
          "143706.476000",
          "143706.479000",
          "143706.482000",
          "143706.485000",
          "143706.489000",
          "143706.493000",
          "143706.496000",
          "143706.499000",
          "143706.502000",
          "143706.505000",
          "143706.508000",
          "143706.511000",
          "143706.514000",
          "143706.517000",
          "143746.455000",
          "143746.458000",
          "143746.461000",
          "143746.464000",
          "143746.467000",
          "143746.471000",
          "143746.473000",
          "143746.476000",
          "143746.480000",
          "143746.483000",
          "143746.485000",
          "143746.488000",
          "143746.504000",
          "143746.507000",
          "143746.510000",
          "143746.513000",
          "143746.516000",
          "143746.519000",
          "143746.522000",
          "143746.525000",
          "143746.528000",
          "143746.531000",
          "143746.534000",
          "143746.537000",
          "143746.540000",
          "143746.543000",
          "143746.546000",
          "143746.549000",
          "143826.455000",
          "143826.458000",
          "143826.461000",
          "143826.464000",
          "143826.467000",
          "143826.470000",
          "143826.473000",
          "143826.476000",
          "143826.479000",
          "143826.482000",
          "143826.485000",
          "143826.488000",
          "143826.491000",
          "143826.494000",
          "143826.497000",
          "143826.500000",
          "143826.503000",
          "143826.506000",
          "143826.509000",
          "143826.513000",
          "143826.516000",
          "143826.519000",
          "143826.522000",
          "143826.525000",
          "143826.528000",
          "143826.531000",
          "143826.534000",
          "143906.455000",
          "143906.458000",
          "143906.461000",
          "143906.464000",
          "143906.467000",
          "143906.470000",
          "143906.473000",
          "143906.476000",
          "143906.479000",
          "143906.482000",
          "143906.485000",
          "143906.488000",
          "143906.491000",
          "143906.494000",
          "143906.497000",
          "143906.500000",
          "143906.503000",
          "143906.507000",
          "143906.509000",
          "143906.512000",
          "143906.515000",
          "143906.519000",
          "143906.521000",
          "143906.524000",
          "143906.527000",
          "143906.530000",
          "143906.533000",
          "143946.455000",
          "143946.458000",
          "143946.461000",
          "143946.464000",
          "143946.467000",
          "143946.470000",
          "143946.473000",
          "143946.476000",
          "143946.479000",
          "143946.482000",
          "143946.485000",
          "143946.488000",
          "143946.491000",
          "143946.494000",
          "143946.497000",
          "143946.500000",
          "143946.503000",
          "143946.506000",
          "143946.509000",
          "143946.512000",
          "143946.515000",
          "143946.518000",
          "143946.521000",
          "143946.524000",
          "143946.527000",
          "143946.530000",
          "143946.533000",
          "144026.455000",
          "144026.458000",
          "144026.461000",
          "144026.465000",
          "144026.468000",
          "144026.470000",
          "144026.473000",
          "144026.477000",
          "144026.480000",
          "144026.482000",
          "144026.485000",
          "144026.489000",
          "144026.492000",
          "144026.494000",
          "144026.497000",
          "144026.501000",
