{
  "aor": 0.0007260000000000001,
  "aqi": 0.013512730222222224,
  "bids_meta": {
    "AcquisitionMatrixPE": 104,
    "AcquisitionNumber": 1,
    "AcquisitionTime": "14:45:15.705000",
    "BandwidthPerPixelPhaseEncode": 17.17,
    "BaseResolution": 104,
    "BodyPartExamined": "BRAIN",
    "CogAtlasID": "trm_4c898da401420",
    "ConsistencyInfo": "N4_VE11C_LATEST_20160120",
    "ConversionSoftware": "dcm2niix",
    "ConversionSoftwareVersion": "v1.0.20171215 (OpenJPEG build) GCC7.3.0",
    "DerivedVendorReportedEchoSpacing": 0.000560011,
    "DeviceSerialNumber": "167006",
    "DwellTime": 2.1e-06,
    "EchoTime": 0.037,
    "EchoTrainLength": 104,
    "EffectiveEchoSpacing": 0.000560011,
    "FlipAngle": 52,
    "ImageComments": "Unaliased_MB4_PE3_LB",
    "ImageOrientationPatientDICOM": [
      0.999817,
      -0.0189217,
      -0.00264392,
      0.0172773,
      0.954522,
      -0.29764
    ],
    "ImageType": [
      "ORIGINAL",
      "PRIMARY",
      "M",
      "MB",
      "ND",
      "MOSAIC"
    ],
    "InPlanePhaseEncodingDirectionDICOM": "COL",
    "InstitutionAddress": "Chemin_Queen-Mary_4565_Montreal_District_CA_H3W_1W5",
    "InstitutionName": "IUGM",
    "InstitutionalDepartmentName": "Department",
    "MRAcquisitionType": "2D",
    "MagneticFieldStrength": 3,
    "Manufacturer": "Siemens",
    "ManufacturersModelName": "Prisma_fit",
    "Modality": "MR",
    "MultibandAccelerationFactor": 4,
    "PartialFourier": 1,
    "PatientPosition": "HFS",
    "PercentPhaseFOV": 100,
    "PhaseEncodingDirection": "j-",
    "PhaseEncodingSteps": 104,
    "PhaseResolution": 1,
    "PixelBandwidth": 2290,
    "ProcedureStepDescription": "video5_generic",
    "ProtocolName": "func_task-wolf15",
    "PulseSequenceDetails": "%CustomerSeq%_cmrr_mbep2d_bold",
    "ReceiveCoilActiveElements": "HC1-7;NC1,2",
    "ReceiveCoilName": "HeadNeck_64",
    "ReconMatrixPE": 104,
    "RepetitionTime": 1.49,
    "SAR": 0.0287088,
    "ScanOptions": "FS",
    "ScanningSequence": "EP",
    "SequenceName": "epfid2d1_104",
    "SequenceVariant": "SK_SS",
    "SeriesDescription": "func_task-wolf15",
    "SeriesNumber": 20,
    "ShimSetting": [
      631,
      -7247,
      -8881,
      578,
      18,
      -224,
      -69,
      2
    ],
    "SliceThickness": 2,
    "SliceTiming": [
      0,
      0.785,
      0.0975,
      0.8825,
      0.1975,
      0.98,
      0.295,
      1.0775,
      0.3925,
      1.1775,
      0.49,
      1.275,
      0.5875,
      1.3725,
      0.6875,
      0,
      0.785,
      0.0975,
      0.8825,
      0.1975,
      0.98,
      0.295,
      1.0775,
      0.3925,
      1.1775,
      0.49,
      1.275,
      0.5875,
      1.3725,
      0.6875,
      0,
      0.785,
      0.0975,
      0.8825,
      0.1975,
      0.98,
      0.295,
      1.0775,
      0.3925,
      1.1775,
      0.49,
      1.275,
      0.5875,
      1.3725,
      0.6875,
      0,
      0.785,
      0.0975,
      0.8825,
      0.1975,
      0.98,
      0.295,
      1.0775,
      0.3925,
      1.1775,
      0.49,
      1.275,
      0.5875,
      1.3725,
      0.6875
    ],
    "SoftwareVersions": "syngo_MR_E11",
    "SpacingBetweenSlices": 2,
    "StationName": "MRC35049",
    "TaskName": "wolf15",
    "TotalReadoutTime": 0.0576811,
    "TxRefAmp": 221.314,
    "dataset": "<unset>",
    "dcmmeta_affine": [
      [
        -1.9996349811553955,
        0.03455469012260437,
        -0.016311047598719597,
        104.4054183959961
      ],
      [
        0.03784330189228058,
        1.9090434312820435,
        -0.5950808525085449,
        -65.45613098144531
      ],
      [
        -0.00528783118352294,
        0.5952808856964111,
        1.909348726272583,
        -78.90538024902344
      ],
      [
        0.0,
        0.0,
        0.0,
        1.0
      ]
    ],
    "dcmmeta_reorient_transform": [
      [
        0.0,
        -1.0,
        0.0,
        103.0
      ],
      [
        1.0,
        0.0,
        0.0,
        0.0
      ],
      [
        0.0,
        0.0,
        1.0,
        0.0
      ],
      [
        0.0,
        0.0,
        0.0,
        1.0
      ]
    ],
    "dcmmeta_shape": [
      104,
      104,
      60,
      407
    ],
    "dcmmeta_slice_dim": 2,
    "dcmmeta_version": 0.6,
    "global": {
      "const": {
        "AcquisitionMatrix": [
          104,
          0,
          0,
          104
        ],
        "AngioFlag": "N",
        "BitsAllocated": 16,
        "BitsStored": 16,
        "BodyPartExamined": "BRAIN",
        "Columns": 832,
        "EchoNumbers": 1,
        "EchoTime": 37.0,
        "EchoTrainLength": 104,
        "FlipAngle": 52.0,
        "HighBit": 15,
        "ImageOrientationPatient": [
          0.99981747375039,
          -0.0189216514629,
          -0.0026439155239,
          0.01727734414735,
          0.95452169180226,
          -0.2976404429142
        ],
        "ImagePositionPatient": [
          -848.40957715249,
          -812.29216981111,
          201.01556037213
        ],
        "ImageType": [
          "ORIGINAL",
          "PRIMARY",
          "M",
          "MB",
          "ND",
          "MOSAIC"
        ],
        "ImagedNucleus": "1H",
        "ImagingFrequency": 123.259227,
        "InPlanePhaseEncodingDirection": "COL",
        "MRAcquisitionType": "2D",
        "MagneticFieldStrength": 3.0,
        "Manufacturer": "SIEMENS",
        "ManufacturerModelName": "Prisma_fit",
        "Modality": "MR",
        "NumberOfAverages": 1.0,
        "NumberOfPhaseEncodingSteps": 104,
        "PercentPhaseFieldOfView": 100.0,
        "PercentSampling": 100.0,
        "PerformedProcedureStepStartTime": "132340.387000",
        "PhotometricInterpretation": "MONOCHROME2",
        "PixelBandwidth": 2290.0,
        "PixelRepresentation": 0,
        "PixelSpacing": [
          2.0,
          2.0
        ],
        "ProtocolName": "func_task-wolf15",
        "RepetitionTime": 1490.0,
        "Rows": 832,
        "SAR": 0.02870880456193,
        "SamplesPerPixel": 1,
        "ScanOptions": "FS",
        "ScanningSequence": "EP",
        "SequenceName": "epfid2d1_104",
        "SequenceVariant": [
          "SK",
          "SS"
        ],
        "SeriesDescription": "func_task-wolf15",
        "SeriesNumber": 20,
        "SeriesTime": "144633.240000",
        "SliceLocation": -56.704584507715,
        "SliceThickness": 2.0,
        "SmallestImagePixelValue": 0,
        "SoftwareVersions": "syngo MR E11",
        "SpacingBetweenSlices": 1.9999999897188,
        "SpecificCharacterSet": "ISO_IR 100",
        "StudyID": "1",
        "StudyTime": "132340.308000",
        "TransmitCoilName": "Body",
        "VariableFlipAngleFlag": "N",
        "WindowCenterWidthExplanation": "Algo1",
        "dBdt": 0.0
      },
      "slices": {}
    },
    "modality": "bold",
    "session_id": "010",
    "subject_id": "06",
    "task_id": "wolf15",
    "time": {
      "samples": {
        "AcquisitionNumber": [
          1,
          2,
          3,
          4,
          5,
          6,
          7,
          8,
          9,
          10,
          11,
          12,
          13,
          14,
          15,
          16,
          17,
          18,
          19,
          20,
          21,
          22,
          23,
          24,
          25,
          26,
          27,
          28,
          29,
          30,
          31,
          32,
          33,
          34,
          35,
          36,
          37,
          38,
          39,
          40,
          41,
          42,
          43,
          44,
          45,
          46,
          47,
          48,
          49,
          50,
          51,
          52,
          53,
          54,
          55,
          56,
          57,
          58,
          59,
          60,
          61,
          62,
          63,
          64,
          65,
          66,
          67,
          68,
          69,
          70,
          71,
          72,
          73,
          74,
          75,
          76,
          77,
          78,
          79,
          80,
          81,
          82,
          83,
          84,
          85,
          86,
          87,
          88,
          89,
          90,
          91,
          92,
          93,
          94,
          95,
          96,
          97,
          98,
          99,
          100,
          101,
          102,
          103,
          104,
          105,
          106,
          107,
          108,
          109,
          110,
          111,
          112,
          113,
          114,
          115,
          116,
          117,
          118,
          119,
          120,
          121,
          122,
          123,
          124,
          125,
          126,
          127,
          128,
          129,
          130,
          131,
          132,
          133,
          134,
          135,
          136,
          137,
          138,
          139,
          140,
          141,
          142,
          143,
          144,
          145,
          146,
          147,
          148,
          149,
          150,
          151,
          152,
          153,
          154,
          155,
          156,
          157,
          158,
          159,
          160,
          161,
          162,
          163,
          164,
          165,
          166,
          167,
          168,
          169,
          170,
          171,
          172,
          173,
          174,
          175,
          176,
          177,
          178,
          179,
          180,
          181,
          182,
          183,
          184,
          185,
          186,
          187,
          188,
          189,
          190,
          191,
          192,
          193,
          194,
          195,
          196,
          197,
          198,
          199,
          200,
          201,
          202,
          203,
          204,
          205,
          206,
          207,
          208,
          209,
          210,
          211,
          212,
          213,
          214,
          215,
          216,
          217,
          218,
          219,
          220,
          221,
          222,
          223,
          224,
          225,
          226,
          227,
          228,
          229,
          230,
          231,
          232,
          233,
          234,
          235,
          236,
          237,
          238,
          239,
          240,
          241,
          242,
          243,
          244,
          245,
          246,
          247,
          248,
          249,
          250,
          251,
          252,
          253,
          254,
          255,
          256,
          257,
          258,
          259,
          260,
          261,
          262,
          263,
          264,
          265,
          266,
          267,
          268,
          269,
          270,
          271,
          272,
          273,
          274,
          275,
          276,
          277,
          278,
          279,
          280,
          281,
          282,
          283,
          284,
          285,
          286,
          287,
          288,
          289,
          290,
          291,
          292,
          293,
          294,
          295,
          296,
          297,
          298,
          299,
          300,
          301,
          302,
          303,
          304,
          305,
          306,
          307,
          308,
          309,
          310,
          311,
          312,
          313,
          314,
          315,
          316,
          317,
          318,
          319,
          320,
          321,
          322,
          323,
          324,
          325,
          326,
          327,
          328,
          329,
          330,
          331,
          332,
          333,
          334,
          335,
          336,
          337,
          338,
          339,
          340,
          341,
          342,
          343,
          344,
          345,
          346,
          347,
          348,
          349,
          350,
          351,
          352,
          353,
          354,
          355,
          356,
          357,
          358,
          359,
          360,
          361,
          362,
          363,
          364,
          365,
          366,
          367,
          368,
          369,
          370,
          371,
          372,
          373,
          374,
          375,
          376,
          377,
          378,
          379,
          380,
          381,
          382,
          383,
          384,
          385,
          386,
          387,
          388,
          389,
          390,
          391,
          392,
          393,
          394,
          395,
          396,
          397,
          398,
          399,
          400,
          401,
          402,
          403,
          404,
          405,
          406,
          407
        ],
        "AcquisitionTime": [
          "144515.705000",
          "144517.195000",
          "144518.685000",
          "144520.175000",
          "144521.665000",
          "144523.155000",
          "144524.645000",
          "144526.135000",
          "144527.625000",
          "144529.115000",
          "144530.605000",
          "144532.095000",
          "144533.585000",
          "144535.075000",
          "144536.565000",
          "144538.055000",
          "144539.545000",
          "144541.035000",
          "144542.525000",
          "144544.015000",
          "144545.505000",
          "144546.995000",
          "144548.485000",
          "144549.975000",
          "144551.465000",
          "144552.955000",
          "144554.445000",
          "144555.935000",
          "144557.425000",
          "144558.915000",
          "144600.405000",
          "144601.895000",
          "144603.385000",
          "144604.875000",
          "144606.365000",
          "144607.855000",
          "144609.345000",
          "144610.835000",
          "144612.325000",
          "144613.815000",
          "144615.305000",
          "144616.795000",
          "144618.285000",
          "144619.775000",
          "144621.265000",
          "144622.755000",
          "144624.245000",
          "144625.735000",
          "144627.225000",
          "144628.715000",
          "144630.205000",
          "144631.695000",
          "144633.185000",
          "144634.675000",
          "144636.165000",
          "144637.655000",
          "144639.145000",
          "144640.635000",
          "144642.125000",
          "144643.615000",
          "144645.105000",
          "144646.595000",
          "144648.085000",
          "144649.575000",
          "144651.065000",
          "144652.555000",
          "144654.045000",
          "144655.535000",
          "144657.025000",
          "144658.515000",
          "144700.005000",
          "144701.495000",
          "144702.985000",
          "144704.475000",
          "144705.965000",
          "144707.455000",
          "144708.945000",
          "144710.435000",
          "144711.925000",
          "144713.415000",
          "144714.905000",
          "144716.395000",
          "144717.885000",
          "144719.375000",
          "144720.865000",
          "144722.355000",
          "144723.845000",
          "144725.335000",
          "144726.825000",
          "144728.315000",
          "144729.805000",
          "144731.295000",
          "144732.785000",
          "144734.275000",
          "144735.765000",
          "144737.255000",
          "144738.745000",
          "144740.235000",
          "144741.725000",
          "144743.215000",
          "144744.705000",
          "144746.195000",
          "144747.685000",
          "144749.175000",
          "144750.665000",
          "144752.155000",
          "144753.645000",
          "144755.135000",
          "144756.625000",
          "144758.115000",
          "144759.605000",
          "144801.095000",
          "144802.585000",
          "144804.075000",
          "144805.565000",
          "144807.055000",
          "144808.545000",
          "144810.035000",
          "144811.525000",
          "144813.015000",
          "144814.505000",
          "144815.995000",
          "144817.485000",
          "144818.975000",
          "144820.465000",
          "144821.955000",
          "144823.445000",
          "144824.935000",
          "144826.425000",
          "144827.915000",
          "144829.405000",
          "144830.895000",
          "144832.385000",
          "144833.875000",
          "144835.365000",
          "144836.855000",
          "144838.345000",
          "144839.835000",
          "144841.325000",
          "144842.815000",
          "144844.305000",
          "144845.795000",
          "144847.285000",
          "144848.775000",
          "144850.265000",
          "144851.755000",
          "144853.245000",
          "144854.735000",
          "144856.225000",
          "144857.715000",
          "144859.205000",
          "144900.695000",
          "144902.185000",
          "144903.675000",
          "144905.165000",
          "144906.655000",
          "144908.145000",
          "144909.635000",
          "144911.125000",
          "144912.615000",
          "144914.105000",
          "144915.595000",
          "144917.085000",
          "144918.575000",
          "144920.065000",
          "144921.555000",
          "144923.045000",
          "144924.535000",
          "144926.025000",
          "144927.515000",
          "144929.005000",
          "144930.495000",
          "144931.985000",
          "144933.475000",
          "144934.965000",
          "144936.455000",
          "144937.945000",
          "144939.435000",
          "144940.925000",
          "144942.415000",
          "144943.905000",
          "144945.395000",
          "144946.885000",
          "144948.375000",
          "144949.865000",
          "144951.355000",
          "144952.845000",
          "144954.335000",
          "144955.825000",
          "144957.315000",
          "144958.805000",
          "145000.295000",
          "145001.785000",
          "145003.275000",
          "145004.765000",
          "145006.255000",
          "145007.745000",
          "145009.235000",
          "145010.725000",
          "145012.215000",
          "145013.705000",
          "145015.195000",
          "145016.685000",
          "145018.175000",
          "145019.665000",
          "145021.155000",
          "145022.645000",
          "145024.135000",
          "145025.625000",
          "145027.115000",
          "145028.605000",
          "145030.095000",
          "145031.585000",
          "145033.075000",
          "145034.565000",
          "145036.055000",
          "145037.545000",
          "145039.035000",
          "145040.525000",
          "145042.015000",
          "145043.505000",
          "145044.995000",
          "145046.485000",
          "145047.975000",
          "145049.465000",
          "145050.955000",
          "145052.445000",
          "145053.935000",
          "145055.425000",
          "145056.915000",
          "145058.405000",
          "145059.895000",
          "145101.385000",
          "145102.875000",
          "145104.365000",
          "145105.855000",
          "145107.345000",
          "145108.835000",
          "145110.325000",
          "145111.815000",
          "145113.305000",
          "145114.795000",
          "145116.285000",
          "145117.775000",
          "145119.265000",
          "145120.755000",
          "145122.245000",
          "145123.735000",
          "145125.225000",
          "145126.715000",
          "145128.205000",
          "145129.695000",
          "145131.185000",
          "145132.675000",
          "145134.165000",
          "145135.655000",
          "145137.145000",
          "145138.635000",
          "145140.125000",
          "145141.615000",
          "145143.105000",
          "145144.595000",
          "145146.085000",
          "145147.575000",
          "145149.065000",
          "145150.555000",
          "145152.045000",
          "145153.535000",
          "145155.025000",
          "145156.515000",
          "145158.005000",
          "145159.495000",
          "145200.985000",
          "145202.475000",
          "145203.965000",
          "145205.455000",
          "145206.945000",
          "145208.435000",
          "145209.925000",
          "145211.415000",
          "145212.905000",
          "145214.395000",
          "145215.885000",
          "145217.375000",
          "145218.865000",
          "145220.355000",
          "145221.845000",
          "145223.335000",
          "145224.825000",
          "145226.315000",
          "145227.805000",
          "145229.295000",
          "145230.785000",
          "145232.275000",
          "145233.765000",
          "145235.255000",
          "145236.745000",
          "145238.235000",
          "145239.725000",
          "145241.215000",
          "145242.705000",
          "145244.195000",
          "145245.685000",
          "145247.175000",
          "145248.665000",
          "145250.155000",
          "145251.645000",
          "145253.135000",
          "145254.625000",
          "145256.115000",
          "145257.605000",
          "145259.095000",
          "145300.585000",
          "145302.075000",
          "145303.565000",
          "145305.055000",
          "145306.545000",
          "145308.035000",
          "145309.525000",
          "145311.015000",
          "145312.505000",
          "145313.995000",
          "145315.485000",
          "145316.975000",
          "145318.465000",
          "145319.955000",
          "145321.445000",
          "145322.935000",
          "145324.425000",
          "145325.915000",
          "145327.405000",
          "145328.895000",
          "145330.385000",
          "145331.875000",
          "145333.365000",
          "145334.855000",
          "145336.345000",
          "145337.835000",
          "145339.325000",
          "145340.815000",
          "145342.305000",
          "145343.795000",
          "145345.285000",
          "145346.775000",
          "145348.265000",
          "145349.755000",
          "145351.245000",
          "145352.735000",
          "145354.225000",
          "145355.715000",
          "145357.205000",
          "145358.695000",
          "145400.185000",
          "145401.675000",
          "145403.165000",
          "145404.655000",
          "145406.145000",
          "145407.635000",
          "145409.125000",
          "145410.615000",
          "145412.105000",
          "145413.595000",
          "145415.085000",
          "145416.575000",
          "145418.065000",
          "145419.555000",
          "145421.045000",
          "145422.535000",
          "145424.025000",
          "145425.515000",
          "145427.005000",
          "145428.495000",
          "145429.985000",
          "145431.475000",
          "145432.965000",
          "145434.455000",
          "145435.945000",
          "145437.435000",
          "145438.925000",
          "145440.415000",
          "145441.905000",
          "145443.395000",
          "145444.885000",
          "145446.375000",
          "145447.865000",
          "145449.355000",
          "145450.845000",
          "145452.335000",
          "145453.825000",
          "145455.315000",
          "145456.805000",
          "145458.295000",
          "145459.785000",
          "145501.275000",
          "145502.765000",
          "145504.255000",
          "145505.745000",
          "145507.235000",
          "145508.725000",
          "145510.215000",
          "145511.705000",
          "145513.195000",
          "145514.685000",
          "145516.175000",
          "145517.665000",
          "145519.155000",
          "145520.645000"
        ],
        "ContentTime": [
          "144633.243000",
          "144633.252000",
          "144633.255000",
          "144633.258000",
          "144633.261000",
          "144633.264000",
          "144633.267000",
          "144633.270000",
          "144633.273000",
          "144633.276000",
          "144633.279000",
          "144633.295000",
          "144633.298000",
          "144633.301000",
          "144633.304000",
          "144633.307000",
          "144633.310000",
          "144633.313000",
          "144633.316000",
          "144633.319000",
          "144633.322000",
          "144633.325000",
          "144653.201000",
          "144653.204000",
          "144653.207000",
          "144653.210000",
          "144653.213000",
          "144653.216000",
          "144653.219000",
          "144653.222000",
          "144653.225000",
          "144653.228000",
          "144653.231000",
          "144653.234000",
          "144653.237000",
          "144653.240000",
          "144653.243000",
          "144653.256000",
          "144653.259000",
          "144653.262000",
          "144653.265000",
          "144653.268000",
          "144713.201000",
          "144713.204000",
          "144713.218000",
          "144713.220000",
          "144713.223000",
          "144713.227000",
          "144713.230000",
          "144713.233000",
          "144713.235000",
          "144713.239000",
          "144713.242000",
          "144713.245000",
          "144713.248000",
          "144713.251000",
          "144713.254000",
          "144713.257000",
          "144713.259000",
          "144713.263000",
          "144713.266000",
          "144713.268000",
          "144733.202000",
          "144733.205000",
          "144733.208000",
          "144733.211000",
          "144733.214000",
          "144733.217000",
          "144733.220000",
          "144733.223000",
          "144733.226000",
          "144733.229000",
          "144733.232000",
          "144733.235000",
          "144733.238000",
          "144733.241000",
          "144733.244000",
          "144733.247000",
          "144733.250000",
          "144733.253000",
          "144733.256000",
          "144733.259000",
          "144753.202000",
          "144753.205000",
          "144753.208000",
          "144753.211000",
          "144753.214000",
          "144753.219000",
          "144753.223000",
          "144753.226000",
          "144753.234000",
          "144753.237000",
          "144753.256000",
          "144753.259000",
          "144753.262000",
          "144753.265000",
          "144753.268000",
          "144753.271000",
          "144753.274000",
          "144753.277000",
          "144753.280000",
          "144753.283000",
          "144833.202000",
          "144833.205000",
          "144833.208000",
          "144833.211000",
          "144833.214000",
          "144833.217000",
          "144833.220000",
          "144833.223000",
          "144833.226000",
          "144833.229000",
          "144833.232000",
          "144833.235000",
          "144833.238000",
          "144833.241000",
          "144833.244000",
          "144833.247000",
          "144833.250000",
          "144833.253000",
          "144833.265000",
          "144833.267000",
          "144833.270000",
          "144833.274000",
          "144833.277000",
          "144833.280000",
          "144833.283000",
          "144833.286000",
          "144833.289000",
          "144833.292000",
          "144833.295000",
          "144833.298000",
          "144913.201000",
          "144913.204000",
          "144913.207000",
          "144913.217000",
          "144913.220000",
          "144913.223000",
          "144913.226000",
          "144913.229000",
          "144913.232000",
          "144913.235000",
          "144913.238000",
          "144913.241000",
          "144913.244000",
          "144913.247000",
          "144913.250000",
          "144913.253000",
          "144913.256000",
          "144913.259000",
          "144913.262000",
          "144913.265000",
          "144913.268000",
          "144913.271000",
          "144913.274000",
          "144913.277000",
          "144913.280000",
          "144913.284000",
          "144913.287000",
          "144953.202000",
          "144953.205000",
          "144953.218000",
          "144953.221000",
          "144953.224000",
          "144953.227000",
          "144953.230000",
          "144953.233000",
          "144953.236000",
          "144953.239000",
          "144953.242000",
          "144953.245000",
          "144953.248000",
          "144953.251000",
          "144953.254000",
          "144953.257000",
          "144953.260000",
          "144953.263000",
          "144953.266000",
          "144953.269000",
          "144953.272000",
          "144953.275000",
          "144953.278000",
          "144953.282000",
          "144953.287000",
          "144953.291000",
          "145033.202000",
          "145033.205000",
          "145033.208000",
          "145033.211000",
          "145033.214000",
          "145033.217000",
          "145033.220000",
          "145033.223000",
          "145033.226000",
          "145033.229000",
          "145033.232000",
          "145033.235000",
          "145033.238000",
          "145033.241000",
          "145033.244000",
          "145033.247000",
          "145033.250000",
          "145033.253000",
          "145033.256000",
          "145033.259000",
          "145033.262000",
          "145033.265000",
          "145033.268000",
          "145033.278000",
          "145033.281000",
          "145033.284000",
          "145033.287000",
          "145113.201000",
          "145113.204000",
          "145113.207000",
          "145113.210000",
          "145113.213000",
          "145113.216000",
          "145113.219000",
          "145113.222000",
          "145113.225000",
          "145113.228000",
