{
  "aor": 0.0008263300492610839,
  "aqi": 0.011759924556650246,
  "bids_meta": {
    "AcquisitionMatrixPE": 104,
    "AcquisitionNumber": 1,
    "AcquisitionTime": "13:48:33.467500",
    "BandwidthPerPixelPhaseEncode": 17.17,
    "BaseResolution": 104,
    "BodyPartExamined": "BRAIN",
    "CogAtlasID": "trm_4c898da401420",
    "ConsistencyInfo": "N4_VE11C_LATEST_20160120",
    "ConversionSoftware": "dcm2niix",
    "ConversionSoftwareVersion": "v1.0.20171215 (OpenJPEG build) GCC7.3.0",
    "DerivedVendorReportedEchoSpacing": 0.000560011,
    "DeviceSerialNumber": "167006",
    "DwellTime": 2.1e-06,
    "EchoTime": 0.037,
    "EchoTrainLength": 104,
    "EffectiveEchoSpacing": 0.000560011,
    "FlipAngle": 52,
    "ImageComments": "Unaliased_MB4_PE3_LB",
    "ImageOrientationPatientDICOM": [
      0.999817,
      -0.0189217,
      -0.00264392,
      0.0172773,
      0.954522,
      -0.29764
    ],
    "ImageType": [
      "ORIGINAL",
      "PRIMARY",
      "M",
      "MB",
      "ND",
      "MOSAIC"
    ],
    "InPlanePhaseEncodingDirectionDICOM": "COL",
    "InstitutionAddress": "Chemin_Queen-Mary_4565_Montreal_District_CA_H3W_1W5",
    "InstitutionName": "IUGM",
    "InstitutionalDepartmentName": "Department",
    "MRAcquisitionType": "2D",
    "MagneticFieldStrength": 3,
    "Manufacturer": "Siemens",
    "ManufacturersModelName": "Prisma_fit",
    "Modality": "MR",
    "MultibandAccelerationFactor": 4,
    "PartialFourier": 1,
    "PatientPosition": "HFS",
    "PercentPhaseFOV": 100,
    "PhaseEncodingDirection": "j-",
    "PhaseEncodingSteps": 104,
    "PhaseResolution": 1,
    "PixelBandwidth": 2290,
    "ProcedureStepDescription": "video5_generic",
    "ProtocolName": "func_task-wolf10",
    "PulseSequenceDetails": "%CustomerSeq%_cmrr_mbep2d_bold",
    "ReceiveCoilActiveElements": "HC1-7;NC1,2",
    "ReceiveCoilName": "HeadNeck_64",
    "ReconMatrixPE": 104,
    "RepetitionTime": 1.49,
    "SAR": 0.0287088,
    "ScanOptions": "FS",
    "ScanningSequence": "EP",
    "SequenceName": "epfid2d1_104",
    "SequenceVariant": "SK_SS",
    "SeriesDescription": "func_task-wolf10",
    "SeriesNumber": 10,
    "ShimSetting": [
      631,
      -7247,
      -8881,
      578,
      18,
      -224,
      -69,
      2
    ],
    "SliceThickness": 2,
    "SliceTiming": [
      0,
      0.7825,
      0.0975,
      0.8825,
      0.195,
      0.98,
      0.2925,
      1.0775,
      0.3925,
      1.175,
      0.49,
      1.2725,
      0.5875,
      1.3725,
      0.685,
      0,
      0.7825,
      0.0975,
      0.8825,
      0.195,
      0.98,
      0.2925,
      1.0775,
      0.3925,
      1.175,
      0.49,
      1.2725,
      0.5875,
      1.3725,
      0.685,
      0,
      0.7825,
      0.0975,
      0.8825,
      0.195,
      0.98,
      0.2925,
      1.0775,
      0.3925,
      1.175,
      0.49,
      1.2725,
      0.5875,
      1.3725,
      0.685,
      0,
      0.7825,
      0.0975,
      0.8825,
      0.195,
      0.98,
      0.2925,
      1.0775,
      0.3925,
      1.175,
      0.49,
      1.2725,
      0.5875,
      1.3725,
      0.685
    ],
    "SoftwareVersions": "syngo_MR_E11",
    "SpacingBetweenSlices": 2,
    "StationName": "MRC35049",
    "TaskName": "wolf10",
    "TotalReadoutTime": 0.0576811,
    "TxRefAmp": 221.314,
    "dataset": "<unset>",
    "dcmmeta_affine": [
      [
        -1.9996349811553955,
        0.03455469012260437,
        -0.016311047598719597,
        104.4054183959961
      ],
      [
        0.03784330189228058,
        1.9090434312820435,
        -0.5950808525085449,
        -65.45613098144531
      ],
      [
        -0.00528783118352294,
        0.5952808856964111,
        1.909348726272583,
        -78.90538024902344
      ],
      [
        0.0,
        0.0,
        0.0,
        1.0
      ]
    ],
    "dcmmeta_reorient_transform": [
      [
        0.0,
        -1.0,
        0.0,
        103.0
      ],
      [
        1.0,
        0.0,
        0.0,
        0.0
      ],
      [
        0.0,
        0.0,
        1.0,
        0.0
      ],
      [
        0.0,
        0.0,
        0.0,
        1.0
      ]
    ],
    "dcmmeta_shape": [
      104,
      104,
      60,
      407
    ],
    "dcmmeta_slice_dim": 2,
    "dcmmeta_version": 0.6,
    "global": {
      "const": {
        "AcquisitionMatrix": [
          104,
          0,
          0,
          104
        ],
        "AngioFlag": "N",
        "BitsAllocated": 16,
        "BitsStored": 16,
        "BodyPartExamined": "BRAIN",
        "Columns": 832,
        "EchoNumbers": 1,
        "EchoTime": 37.0,
        "EchoTrainLength": 104,
        "FlipAngle": 52.0,
        "HighBit": 15,
        "ImageOrientationPatient": [
          0.99981747375039,
          -0.0189216514629,
          -0.0026439155239,
          0.01727734414735,
          0.95452169180226,
          -0.2976404429142
        ],
        "ImagePositionPatient": [
          -848.40957715249,
          -812.29216981111,
          201.01556037213
        ],
        "ImageType": [
          "ORIGINAL",
          "PRIMARY",
          "M",
          "MB",
          "ND",
          "MOSAIC"
        ],
        "ImagedNucleus": "1H",
        "ImagingFrequency": 123.259206,
        "InPlanePhaseEncodingDirection": "COL",
        "MRAcquisitionType": "2D",
        "MagneticFieldStrength": 3.0,
        "Manufacturer": "SIEMENS",
        "ManufacturerModelName": "Prisma_fit",
        "Modality": "MR",
        "NumberOfAverages": 1.0,
        "NumberOfPhaseEncodingSteps": 104,
        "PercentPhaseFieldOfView": 100.0,
        "PercentSampling": 100.0,
        "PerformedProcedureStepStartTime": "132340.387000",
        "PhotometricInterpretation": "MONOCHROME2",
        "PixelBandwidth": 2290.0,
        "PixelRepresentation": 0,
        "PixelSpacing": [
          2.0,
          2.0
        ],
        "ProtocolName": "func_task-wolf10",
        "RepetitionTime": 1490.0,
        "Rows": 832,
        "SAR": 0.02870880456193,
        "SamplesPerPixel": 1,
        "ScanOptions": "FS",
        "ScanningSequence": "EP",
        "SequenceName": "epfid2d1_104",
        "SequenceVariant": [
          "SK",
          "SS"
        ],
        "SeriesDescription": "func_task-wolf10",
        "SeriesNumber": 10,
        "SeriesTime": "134952.976000",
        "SliceLocation": -56.704584507715,
        "SliceThickness": 2.0,
        "SmallestImagePixelValue": 0,
        "SoftwareVersions": "syngo MR E11",
        "SpacingBetweenSlices": 1.9999999897188,
        "SpecificCharacterSet": "ISO_IR 100",
        "StudyID": "1",
        "StudyTime": "132340.308000",
        "TransmitCoilName": "Body",
        "VariableFlipAngleFlag": "N",
        "WindowCenterWidthExplanation": "Algo1",
        "dBdt": 0.0
      },
      "slices": {}
    },
    "modality": "bold",
    "session_id": "010",
    "subject_id": "06",
    "task_id": "wolf10",
    "time": {
      "samples": {
        "AcquisitionNumber": [
          1,
          2,
          3,
          4,
          5,
          6,
          7,
          8,
          9,
          10,
          11,
          12,
          13,
          14,
          15,
          16,
          17,
          18,
          19,
          20,
          21,
          22,
          23,
          24,
          25,
          26,
          27,
          28,
          29,
          30,
          31,
          32,
          33,
          34,
          35,
          36,
          37,
          38,
          39,
          40,
          41,
          42,
          43,
          44,
          45,
          46,
          47,
          48,
          49,
          50,
          51,
          52,
          53,
          54,
          55,
          56,
          57,
          58,
          59,
          60,
          61,
          62,
          63,
          64,
          65,
          66,
          67,
          68,
          69,
          70,
          71,
          72,
          73,
          74,
          75,
          76,
          77,
          78,
          79,
          80,
          81,
          82,
          83,
          84,
          85,
          86,
          87,
          88,
          89,
          90,
          91,
          92,
          93,
          94,
          95,
          96,
          97,
          98,
          99,
          100,
          101,
          102,
          103,
          104,
          105,
          106,
          107,
          108,
          109,
          110,
          111,
          112,
          113,
          114,
          115,
          116,
          117,
          118,
          119,
          120,
          121,
          122,
          123,
          124,
          125,
          126,
          127,
          128,
          129,
          130,
          131,
          132,
          133,
          134,
          135,
          136,
          137,
          138,
          139,
          140,
          141,
          142,
          143,
          144,
          145,
          146,
          147,
          148,
          149,
          150,
          151,
          152,
          153,
          154,
          155,
          156,
          157,
          158,
          159,
          160,
          161,
          162,
          163,
          164,
          165,
          166,
          167,
          168,
          169,
          170,
          171,
          172,
          173,
          174,
          175,
          176,
          177,
          178,
          179,
          180,
          181,
          182,
          183,
          184,
          185,
          186,
          187,
          188,
          189,
          190,
          191,
          192,
          193,
          194,
          195,
          196,
          197,
          198,
          199,
          200,
          201,
          202,
          203,
          204,
          205,
          206,
          207,
          208,
          209,
          210,
          211,
          212,
          213,
          214,
          215,
          216,
          217,
          218,
          219,
          220,
          221,
          222,
          223,
          224,
          225,
          226,
          227,
          228,
          229,
          230,
          231,
          232,
          233,
          234,
          235,
          236,
          237,
          238,
          239,
          240,
          241,
          242,
          243,
          244,
          245,
          246,
          247,
          248,
          249,
          250,
          251,
          252,
          253,
          254,
          255,
          256,
          257,
          258,
          259,
          260,
          261,
          262,
          263,
          264,
          265,
          266,
          267,
          268,
          269,
          270,
          271,
          272,
          273,
          274,
          275,
          276,
          277,
          278,
          279,
          280,
          281,
          282,
          283,
          284,
          285,
          286,
          287,
          288,
          289,
          290,
          291,
          292,
          293,
          294,
          295,
          296,
          297,
          298,
          299,
          300,
          301,
          302,
          303,
          304,
          305,
          306,
          307,
          308,
          309,
          310,
          311,
          312,
          313,
          314,
          315,
          316,
          317,
          318,
          319,
          320,
          321,
          322,
          323,
          324,
          325,
          326,
          327,
          328,
          329,
          330,
          331,
          332,
          333,
          334,
          335,
          336,
          337,
          338,
          339,
          340,
          341,
          342,
          343,
          344,
          345,
          346,
          347,
          348,
          349,
          350,
          351,
          352,
          353,
          354,
          355,
          356,
          357,
          358,
          359,
          360,
          361,
          362,
          363,
          364,
          365,
          366,
          367,
          368,
          369,
          370,
          371,
          372,
          373,
          374,
          375,
          376,
          377,
          378,
          379,
          380,
          381,
          382,
          383,
          384,
          385,
          386,
          387,
          388,
          389,
          390,
          391,
          392,
          393,
          394,
          395,
          396,
          397,
          398,
          399,
          400,
          401,
          402,
          403,
          404,
          405,
          406,
          407
        ],
        "AcquisitionTime": [
          "134833.467500",
          "134834.957500",
          "134836.447500",
          "134837.937500",
          "134839.427500",
          "134840.917500",
          "134842.407500",
          "134843.897500",
          "134845.387500",
          "134846.877500",
          "134848.367500",
          "134849.857500",
          "134851.347500",
          "134852.837500",
          "134854.327500",
          "134855.817500",
          "134857.307500",
          "134858.797500",
          "134900.287500",
          "134901.777500",
          "134903.267500",
          "134904.757500",
          "134906.247500",
          "134907.737500",
          "134909.227500",
          "134910.717500",
          "134912.207500",
          "134913.697500",
          "134915.187500",
          "134916.677500",
          "134918.167500",
          "134919.657500",
          "134921.147500",
          "134922.637500",
          "134924.127500",
          "134925.617500",
          "134927.107500",
          "134928.597500",
          "134930.087500",
          "134931.577500",
          "134933.067500",
          "134934.557500",
          "134936.047500",
          "134937.537500",
          "134939.027500",
          "134940.517500",
          "134942.007500",
          "134943.497500",
          "134944.987500",
          "134946.477500",
          "134947.967500",
          "134949.457500",
          "134950.947500",
          "134952.437500",
          "134953.927500",
          "134955.417500",
          "134956.907500",
          "134958.397500",
          "134959.887500",
          "135001.377500",
          "135002.867500",
          "135004.357500",
          "135005.847500",
          "135007.337500",
          "135008.827500",
          "135010.317500",
          "135011.807500",
          "135013.297500",
          "135014.787500",
          "135016.277500",
          "135017.767500",
          "135019.257500",
          "135020.747500",
          "135022.237500",
          "135023.727500",
          "135025.217500",
          "135026.707500",
          "135028.197500",
          "135029.687500",
          "135031.177500",
          "135032.667500",
          "135034.157500",
          "135035.647500",
          "135037.137500",
          "135038.627500",
          "135040.117500",
          "135041.607500",
          "135043.097500",
          "135044.587500",
          "135046.077500",
          "135047.567500",
          "135049.057500",
          "135050.547500",
          "135052.037500",
          "135053.527500",
          "135055.017500",
          "135056.507500",
          "135057.997500",
          "135059.487500",
          "135100.977500",
          "135102.467500",
          "135103.957500",
          "135105.447500",
          "135106.937500",
          "135108.427500",
          "135109.917500",
          "135111.407500",
          "135112.897500",
          "135114.387500",
          "135115.877500",
          "135117.367500",
          "135118.857500",
          "135120.347500",
          "135121.837500",
          "135123.327500",
          "135124.817500",
          "135126.307500",
          "135127.797500",
          "135129.287500",
          "135130.777500",
          "135132.267500",
          "135133.757500",
          "135135.247500",
          "135136.737500",
          "135138.227500",
          "135139.717500",
          "135141.207500",
          "135142.697500",
          "135144.187500",
          "135145.677500",
          "135147.167500",
          "135148.657500",
          "135150.147500",
          "135151.637500",
          "135153.127500",
          "135154.617500",
          "135156.107500",
          "135157.597500",
          "135159.087500",
          "135200.577500",
          "135202.067500",
          "135203.557500",
          "135205.047500",
          "135206.537500",
          "135208.027500",
          "135209.517500",
          "135211.007500",
          "135212.497500",
          "135213.987500",
          "135215.477500",
          "135216.967500",
          "135218.457500",
          "135219.947500",
          "135221.437500",
          "135222.927500",
          "135224.417500",
          "135225.907500",
          "135227.397500",
          "135228.887500",
          "135230.377500",
          "135231.867500",
          "135233.357500",
          "135234.847500",
          "135236.337500",
          "135237.827500",
          "135239.317500",
          "135240.807500",
          "135242.297500",
          "135243.787500",
          "135245.277500",
          "135246.767500",
          "135248.257500",
          "135249.747500",
          "135251.237500",
          "135252.727500",
          "135254.217500",
          "135255.707500",
          "135257.197500",
          "135258.687500",
          "135300.177500",
          "135301.667500",
          "135303.157500",
          "135304.647500",
          "135306.137500",
          "135307.627500",
          "135309.117500",
          "135310.607500",
          "135312.097500",
          "135313.587500",
          "135315.077500",
          "135316.567500",
          "135318.057500",
          "135319.547500",
          "135321.037500",
          "135322.527500",
          "135324.017500",
          "135325.507500",
          "135326.997500",
          "135328.487500",
          "135329.977500",
          "135331.467500",
          "135332.957500",
          "135334.447500",
          "135335.937500",
          "135337.427500",
          "135338.917500",
          "135340.407500",
          "135341.897500",
          "135343.387500",
          "135344.877500",
          "135346.367500",
          "135347.857500",
          "135349.347500",
          "135350.837500",
          "135352.327500",
          "135353.817500",
          "135355.307500",
          "135356.797500",
          "135358.287500",
          "135359.777500",
          "135401.267500",
          "135402.757500",
          "135404.247500",
          "135405.737500",
          "135407.227500",
          "135408.717500",
          "135410.207500",
          "135411.697500",
          "135413.187500",
          "135414.677500",
          "135416.167500",
          "135417.657500",
          "135419.147500",
          "135420.637500",
          "135422.127500",
          "135423.617500",
          "135425.107500",
          "135426.597500",
          "135428.087500",
          "135429.577500",
          "135431.067500",
          "135432.557500",
          "135434.047500",
          "135435.537500",
          "135437.027500",
          "135438.517500",
          "135440.007500",
          "135441.497500",
          "135442.987500",
          "135444.477500",
          "135445.967500",
          "135447.457500",
          "135448.947500",
          "135450.437500",
          "135451.927500",
          "135453.417500",
          "135454.907500",
          "135456.397500",
          "135457.887500",
          "135459.377500",
          "135500.867500",
          "135502.357500",
          "135503.847500",
          "135505.337500",
          "135506.827500",
          "135508.317500",
          "135509.807500",
          "135511.297500",
          "135512.787500",
          "135514.277500",
          "135515.767500",
          "135517.257500",
          "135518.747500",
          "135520.237500",
          "135521.727500",
          "135523.217500",
          "135524.707500",
          "135526.197500",
          "135527.687500",
          "135529.177500",
          "135530.667500",
          "135532.157500",
          "135533.647500",
          "135535.137500",
          "135536.627500",
          "135538.117500",
          "135539.607500",
          "135541.097500",
          "135542.587500",
          "135544.077500",
          "135545.567500",
          "135547.057500",
          "135548.547500",
          "135550.037500",
          "135551.527500",
          "135553.017500",
          "135554.507500",
          "135555.997500",
          "135557.487500",
          "135558.977500",
          "135600.467500",
          "135601.957500",
          "135603.447500",
          "135604.937500",
          "135606.427500",
          "135607.917500",
          "135609.407500",
          "135610.897500",
          "135612.387500",
          "135613.877500",
          "135615.367500",
          "135616.857500",
          "135618.347500",
          "135619.837500",
          "135621.327500",
          "135622.817500",
          "135624.307500",
          "135625.797500",
          "135627.287500",
          "135628.777500",
          "135630.267500",
          "135631.757500",
          "135633.247500",
          "135634.737500",
          "135636.227500",
          "135637.717500",
          "135639.207500",
          "135640.697500",
          "135642.187500",
          "135643.677500",
          "135645.167500",
          "135646.657500",
          "135648.147500",
          "135649.637500",
          "135651.127500",
          "135652.617500",
          "135654.107500",
          "135655.597500",
          "135657.087500",
          "135658.577500",
          "135700.067500",
          "135701.557500",
          "135703.047500",
          "135704.537500",
          "135706.027500",
          "135707.517500",
          "135709.007500",
          "135710.497500",
          "135711.987500",
          "135713.477500",
          "135714.967500",
          "135716.457500",
          "135717.947500",
          "135719.437500",
          "135720.927500",
          "135722.417500",
          "135723.907500",
          "135725.397500",
          "135726.887500",
          "135728.377500",
          "135729.867500",
          "135731.357500",
          "135732.847500",
          "135734.337500",
          "135735.827500",
          "135737.317500",
          "135738.807500",
          "135740.297500",
          "135741.787500",
          "135743.277500",
          "135744.767500",
          "135746.257500",
          "135747.747500",
          "135749.237500",
          "135750.727500",
          "135752.217500",
          "135753.707500",
          "135755.197500",
          "135756.687500",
          "135758.177500",
          "135759.667500",
          "135801.157500",
          "135802.647500",
          "135804.137500",
          "135805.627500",
          "135807.117500",
          "135808.607500",
          "135810.097500",
          "135811.587500",
          "135813.077500",
          "135814.567500",
          "135816.057500",
          "135817.547500",
          "135819.037500",
          "135820.527500",
          "135822.017500",
          "135823.507500",
          "135824.997500",
          "135826.487500",
          "135827.977500",
          "135829.467500",
          "135830.957500",
          "135832.447500",
          "135833.937500",
          "135835.427500",
          "135836.917500",
          "135838.407500"
        ],
        "ContentTime": [
          "134952.979000",
          "134952.982000",
          "134952.985000",
          "134952.988000",
          "134952.991000",
          "134952.995000",
          "134952.998000",
          "134953.002000",
          "134953.005000",
          "134953.008000",
          "134953.011000",
          "134953.014000",
          "134953.016000",
          "134953.026000",
          "134953.029000",
          "134953.032000",
          "134953.035000",
          "134953.047000",
          "134953.050000",
          "134953.052000",
          "134953.055000",
          "134953.059000",
          "134953.061000",
          "135012.935000",
          "135012.938000",
          "135012.941000",
          "135012.944000",
          "135012.947000",
          "135012.950000",
          "135012.954000",
          "135012.957000",
          "135012.959000",
          "135012.963000",
          "135012.965000",
          "135012.968000",
          "135012.971000",
          "135012.975000",
          "135012.978000",
          "135012.995000",
          "135012.998000",
          "135013.002000",
          "135013.005000",
          "135013.008000",
          "135032.935000",
          "135032.938000",
          "135032.941000",
          "135032.944000",
          "135032.947000",
          "135032.950000",
          "135032.953000",
          "135032.956000",
          "135032.959000",
          "135032.962000",
          "135032.965000",
          "135032.968000",
          "135032.971000",
          "135032.974000",
          "135032.977000",
          "135032.980000",
          "135032.983000",
          "135032.986000",
          "135032.989000",
          "135032.992000",
          "135032.995000",
          "135052.934000",
          "135052.937000",
          "135052.940000",
          "135052.943000",
          "135052.946000",
          "135052.949000",
          "135052.952000",
          "135052.955000",
          "135052.958000",
          "135052.961000",
          "135052.964000",
          "135052.967000",
          "135052.970000",
          "135052.973000",
          "135052.976000",
          "135052.979000",
          "135052.982000",
          "135052.985000",
          "135052.988000",
          "135052.991000",
          "135112.934000",
          "135112.937000",
          "135112.940000",
          "135112.943000",
          "135112.946000",
          "135112.949000",
          "135112.952000",
          "135112.955000",
          "135112.958000",
          "135112.961000",
          "135112.964000",
          "135112.967000",
          "135112.970000",
          "135112.973000",
          "135112.976000",
          "135112.979000",
          "135112.983000",
          "135112.986000",
          "135112.989000",
          "135112.992000",
          "135152.935000",
          "135152.938000",
          "135152.941000",
          "135152.944000",
          "135152.947000",
          "135152.950000",
          "135152.953000",
          "135152.956000",
          "135152.960000",
          "135152.963000",
          "135152.965000",
          "135152.968000",
          "135152.972000",
          "135152.974000",
          "135152.977000",
          "135152.980000",
          "135152.983000",
          "135152.986000",
          "135152.989000",
          "135152.992000",
          "135152.995000",
          "135152.998000",
          "135153.001000",
          "135153.004000",
          "135153.007000",
          "135153.011000",
          "135153.013000",
          "135153.016000",
          "135153.020000",
          "135232.935000",
          "135232.938000",
          "135232.941000",
          "135232.944000",
          "135232.947000",
          "135232.951000",
          "135232.954000",
          "135232.956000",
          "135232.959000",
          "135232.963000",
          "135232.966000",
          "135232.969000",
          "135232.971000",
          "135232.975000",
          "135232.978000",
          "135232.980000",
          "135232.983000",
          "135232.987000",
          "135232.990000",
          "135232.993000",
          "135232.995000",
          "135233.000000",
          "135233.003000",
          "135233.006000",
          "135233.009000",
          "135233.012000",
          "135233.015000",
          "135312.934000",
          "135312.937000",
          "135312.940000",
          "135312.943000",
          "135312.946000",
          "135312.949000",
          "135312.952000",
          "135312.955000",
          "135312.958000",
          "135312.961000",
          "135312.964000",
          "135312.967000",
          "135312.970000",
          "135312.973000",
          "135312.976000",
          "135312.979000",
          "135312.982000",
          "135312.985000",
          "135312.988000",
          "135312.991000",
          "135312.994000",
          "135312.997000",
          "135313.001000",
          "135313.004000",
          "135313.008000",
          "135313.011000",
          "135313.013000",
          "135352.934000",
          "135352.937000",
          "135352.940000",
          "135352.943000",
          "135352.946000",
          "135352.949000",
          "135352.952000",
          "135352.955000",
          "135352.958000",
          "135352.961000",
          "135352.964000",
          "135352.967000",
          "135352.970000",
          "135352.973000",
          "135352.976000",
          "135352.980000",
          "135352.983000",
          "135352.991000",
          "135352.994000",
          "135352.997000",
          "135353.001000",
          "135353.004000",
          "135353.007000",
          "135353.010000",
          "135353.013000",
          "135353.016000",
          "135353.019000",
          "135432.935000",
          "135432.938000",
          "135432.941000",
          "135432.944000",
          "135432.947000",
          "135432.950000",
          "135432.953000",
          "135432.956000",
