{
  "aor": 0.0011832803180914513,
  "aqi": 0.010291142465208746,
  "bids_meta": {
    "AcquisitionMatrixPE": 104,
    "AcquisitionNumber": 1,
    "AcquisitionTime": "15:06:25.792500",
    "BandwidthPerPixelPhaseEncode": 17.17,
    "BaseResolution": 104,
    "BodyPartExamined": "BRAIN",
    "CogAtlasID": "trm_4c898da401420",
    "ConsistencyInfo": "N4_VE11C_LATEST_20160120",
    "ConversionSoftware": "dcm2niix",
    "ConversionSoftwareVersion": "v1.0.20171215 (OpenJPEG build) GCC7.3.0",
    "DerivedVendorReportedEchoSpacing": 0.000560011,
    "DeviceSerialNumber": "167006",
    "DwellTime": 2.1e-06,
    "EchoTime": 0.037,
    "EchoTrainLength": 104,
    "EffectiveEchoSpacing": 0.000560011,
    "FlipAngle": 52,
    "ImageComments": "Unaliased_MB4_PE3_LB",
    "ImageOrientationPatientDICOM": [
      0.999817,
      -0.0189217,
      -0.00264392,
      0.0172773,
      0.954522,
      -0.29764
    ],
    "ImageType": [
      "ORIGINAL",
      "PRIMARY",
      "M",
      "MB",
      "ND",
      "MOSAIC"
    ],
    "InPlanePhaseEncodingDirectionDICOM": "COL",
    "InstitutionAddress": "Chemin_Queen-Mary_4565_Montreal_District_CA_H3W_1W5",
    "InstitutionName": "IUGM",
    "InstitutionalDepartmentName": "Department",
    "MRAcquisitionType": "2D",
    "MagneticFieldStrength": 3,
    "Manufacturer": "Siemens",
    "ManufacturersModelName": "Prisma_fit",
    "Modality": "MR",
    "MultibandAccelerationFactor": 4,
    "PartialFourier": 1,
    "PatientPosition": "HFS",
    "PercentPhaseFOV": 100,
    "PhaseEncodingDirection": "j-",
    "PhaseEncodingSteps": 104,
    "PhaseResolution": 1,
    "PixelBandwidth": 2290,
    "ProcedureStepDescription": "video5_generic",
    "ProtocolName": "func_task-wolf17",
    "PulseSequenceDetails": "%CustomerSeq%_cmrr_mbep2d_bold",
    "ReceiveCoilActiveElements": "HC1-7;NC1,2",
    "ReceiveCoilName": "HeadNeck_64",
    "ReconMatrixPE": 104,
    "RepetitionTime": 1.49,
    "SAR": 0.0287415,
    "ScanOptions": "FS",
    "ScanningSequence": "EP",
    "SequenceName": "epfid2d1_104",
    "SequenceVariant": "SK_SS",
    "SeriesDescription": "func_task-wolf17",
    "SeriesNumber": 24,
    "ShimSetting": [
      631,
      -7247,
      -8881,
      578,
      18,
      -224,
      -69,
      2
    ],
    "SliceThickness": 2,
    "SliceTiming": [
      0,
      0.7825,
      0.0975,
      0.88,
      0.195,
      0.98,
      0.2925,
      1.0775,
      0.39,
      1.175,
      0.49,
      1.2725,
      0.5875,
      1.37,
      0.685,
      0,
      0.7825,
      0.0975,
      0.88,
      0.195,
      0.98,
      0.2925,
      1.0775,
      0.39,
      1.175,
      0.49,
      1.2725,
      0.5875,
      1.37,
      0.685,
      0,
      0.7825,
      0.0975,
      0.88,
      0.195,
      0.98,
      0.2925,
      1.0775,
      0.39,
      1.175,
      0.49,
      1.2725,
      0.5875,
      1.37,
      0.685,
      0,
      0.7825,
      0.0975,
      0.88,
      0.195,
      0.98,
      0.2925,
      1.0775,
      0.39,
      1.175,
      0.49,
      1.2725,
      0.5875,
      1.37,
      0.685
    ],
    "SoftwareVersions": "syngo_MR_E11",
    "SpacingBetweenSlices": 2,
    "StationName": "MRC35049",
    "TaskName": "wolf17",
    "TotalReadoutTime": 0.0576811,
    "TxRefAmp": 221.314,
    "dataset": "<unset>",
    "dcmmeta_affine": [
      [
        -1.9996349811553955,
        0.03455469012260437,
        -0.016311047598719597,
        104.4054183959961
      ],
      [
        0.03784330189228058,
        1.9090434312820435,
        -0.5950808525085449,
        -65.45613098144531
      ],
      [
        -0.00528783118352294,
        0.5952808856964111,
        1.909348726272583,
        -78.90538024902344
      ],
      [
        0.0,
        0.0,
        0.0,
        1.0
      ]
    ],
    "dcmmeta_reorient_transform": [
      [
        0.0,
        -1.0,
        0.0,
        103.0
      ],
      [
        1.0,
        0.0,
        0.0,
        0.0
      ],
      [
        0.0,
        0.0,
        1.0,
        0.0
      ],
      [
        0.0,
        0.0,
        0.0,
        1.0
      ]
    ],
    "dcmmeta_shape": [
      104,
      104,
      60,
      504
    ],
    "dcmmeta_slice_dim": 2,
    "dcmmeta_version": 0.6,
    "global": {
      "const": {
        "AcquisitionMatrix": [
          104,
          0,
          0,
          104
        ],
        "AngioFlag": "N",
        "BitsAllocated": 16,
        "BitsStored": 16,
        "BodyPartExamined": "BRAIN",
        "Columns": 832,
        "EchoNumbers": 1,
        "EchoTime": 37.0,
        "EchoTrainLength": 104,
        "FlipAngle": 52.0,
        "HighBit": 15,
        "ImageOrientationPatient": [
          0.99981747375039,
          -0.0189216514629,
          -0.0026439155239,
          0.01727734414735,
          0.95452169180226,
          -0.2976404429142
        ],
        "ImagePositionPatient": [
          -848.40957715249,
          -812.29216981111,
          201.01556037213
        ],
        "ImageType": [
          "ORIGINAL",
          "PRIMARY",
          "M",
          "MB",
          "ND",
          "MOSAIC"
        ],
        "ImagedNucleus": "1H",
        "ImagingFrequency": 123.259234,
        "InPlanePhaseEncodingDirection": "COL",
        "MRAcquisitionType": "2D",
        "MagneticFieldStrength": 3.0,
        "Manufacturer": "SIEMENS",
        "ManufacturerModelName": "Prisma_fit",
        "Modality": "MR",
        "NumberOfAverages": 1.0,
        "NumberOfPhaseEncodingSteps": 104,
        "PercentPhaseFieldOfView": 100.0,
        "PercentSampling": 100.0,
        "PerformedProcedureStepStartTime": "132340.387000",
        "PhotometricInterpretation": "MONOCHROME2",
        "PixelBandwidth": 2290.0,
        "PixelRepresentation": 0,
        "PixelSpacing": [
          2.0,
          2.0
        ],
        "ProtocolName": "func_task-wolf17",
        "RepetitionTime": 1490.0,
        "Rows": 832,
        "SAR": 0.02874154856414,
        "SamplesPerPixel": 1,
        "ScanOptions": "FS",
        "ScanningSequence": "EP",
        "SequenceName": "epfid2d1_104",
        "SequenceVariant": [
          "SK",
          "SS"
        ],
        "SeriesDescription": "func_task-wolf17",
        "SeriesNumber": 24,
        "SeriesTime": "150746.486000",
        "SliceLocation": -56.704584507715,
        "SliceThickness": 2.0,
        "SmallestImagePixelValue": 0,
        "SoftwareVersions": "syngo MR E11",
        "SpacingBetweenSlices": 1.9999999897188,
        "SpecificCharacterSet": "ISO_IR 100",
        "StudyID": "1",
        "StudyTime": "132340.308000",
        "TransmitCoilName": "Body",
        "VariableFlipAngleFlag": "N",
        "WindowCenterWidthExplanation": "Algo1",
        "dBdt": 0.0
      },
      "slices": {}
    },
    "modality": "bold",
    "session_id": "010",
    "subject_id": "06",
    "task_id": "wolf17",
    "time": {
      "samples": {
        "AcquisitionNumber": [
          1,
          2,
          3,
          4,
          5,
          6,
          7,
          8,
          9,
          10,
          11,
          12,
          13,
          14,
          15,
          16,
          17,
          18,
          19,
          20,
          21,
          22,
          23,
          24,
          25,
          26,
          27,
          28,
          29,
          30,
          31,
          32,
          33,
          34,
          35,
          36,
          37,
          38,
          39,
          40,
          41,
          42,
          43,
          44,
          45,
          46,
          47,
          48,
          49,
          50,
          51,
          52,
          53,
          54,
          55,
          56,
          57,
          58,
          59,
          60,
          61,
          62,
          63,
          64,
          65,
          66,
          67,
          68,
          69,
          70,
          71,
          72,
          73,
          74,
          75,
          76,
          77,
          78,
          79,
          80,
          81,
          82,
          83,
          84,
          85,
          86,
          87,
          88,
          89,
          90,
          91,
          92,
          93,
          94,
          95,
          96,
          97,
          98,
          99,
          100,
          101,
          102,
          103,
          104,
          105,
          106,
          107,
          108,
          109,
          110,
          111,
          112,
          113,
          114,
          115,
          116,
          117,
          118,
          119,
          120,
          121,
          122,
          123,
          124,
          125,
          126,
          127,
          128,
          129,
          130,
          131,
          132,
          133,
          134,
          135,
          136,
          137,
          138,
          139,
          140,
          141,
          142,
          143,
          144,
          145,
          146,
          147,
          148,
          149,
          150,
          151,
          152,
          153,
          154,
          155,
          156,
          157,
          158,
          159,
          160,
          161,
          162,
          163,
          164,
          165,
          166,
          167,
          168,
          169,
          170,
          171,
          172,
          173,
          174,
          175,
          176,
          177,
          178,
          179,
          180,
          181,
          182,
          183,
          184,
          185,
          186,
          187,
          188,
          189,
          190,
          191,
          192,
          193,
          194,
          195,
          196,
          197,
          198,
          199,
          200,
          201,
          202,
          203,
          204,
          205,
          206,
          207,
          208,
          209,
          210,
          211,
          212,
          213,
          214,
          215,
          216,
          217,
          218,
          219,
          220,
          221,
          222,
          223,
          224,
          225,
          226,
          227,
          228,
          229,
          230,
          231,
          232,
          233,
          234,
          235,
          236,
          237,
          238,
          239,
          240,
          241,
          242,
          243,
          244,
          245,
          246,
          247,
          248,
          249,
          250,
          251,
          252,
          253,
          254,
          255,
          256,
          257,
          258,
          259,
          260,
          261,
          262,
          263,
          264,
          265,
          266,
          267,
          268,
          269,
          270,
          271,
          272,
          273,
          274,
          275,
          276,
          277,
          278,
          279,
          280,
          281,
          282,
          283,
          284,
          285,
          286,
          287,
          288,
          289,
          290,
          291,
          292,
          293,
          294,
          295,
          296,
          297,
          298,
          299,
          300,
          301,
          302,
          303,
          304,
          305,
          306,
          307,
          308,
          309,
          310,
          311,
          312,
          313,
          314,
          315,
          316,
          317,
          318,
          319,
          320,
          321,
          322,
          323,
          324,
          325,
          326,
          327,
          328,
          329,
          330,
          331,
          332,
          333,
          334,
          335,
          336,
          337,
          338,
          339,
          340,
          341,
          342,
          343,
          344,
          345,
          346,
          347,
          348,
          349,
          350,
          351,
          352,
          353,
          354,
          355,
          356,
          357,
          358,
          359,
          360,
          361,
          362,
          363,
          364,
          365,
          366,
          367,
          368,
          369,
          370,
          371,
          372,
          373,
          374,
          375,
          376,
          377,
          378,
          379,
          380,
          381,
          382,
          383,
          384,
          385,
          386,
          387,
          388,
          389,
          390,
          391,
          392,
          393,
          394,
          395,
          396,
          397,
          398,
          399,
          400,
          401,
          402,
          403,
          404,
          405,
          406,
          407,
          408,
          409,
          410,
          411,
          412,
          413,
          414,
          415,
          416,
          417,
          418,
          419,
          420,
          421,
          422,
          423,
          424,
          425,
          426,
          427,
          428,
          429,
          430,
          431,
          432,
          433,
          434,
          435,
          436,
          437,
          438,
          439,
          440,
          441,
          442,
          443,
          444,
          445,
          446,
          447,
          448,
          449,
          450,
          451,
          452,
          453,
          454,
          455,
          456,
          457,
          458,
          459,
          460,
          461,
          462,
          463,
          464,
          465,
          466,
          467,
          468,
          469,
          470,
          471,
          472,
          473,
          474,
          475,
          476,
          477,
          478,
          479,
          480,
          481,
          482,
          483,
          484,
          485,
          486,
          487,
          488,
          489,
          490,
          491,
          492,
          493,
          494,
          495,
          496,
          497,
          498,
          499,
          500,
          501,
          502,
          503,
          504
        ],
        "AcquisitionTime": [
          "150625.792500",
          "150627.282500",
          "150628.772500",
          "150630.262500",
          "150631.752500",
          "150633.242500",
          "150634.732500",
          "150636.222500",
          "150637.712500",
          "150639.202500",
          "150640.692500",
          "150642.182500",
          "150643.672500",
          "150645.162500",
          "150646.652500",
          "150648.142500",
          "150649.632500",
          "150651.122500",
          "150652.612500",
          "150654.102500",
          "150655.592500",
          "150657.082500",
          "150658.572500",
          "150700.062500",
          "150701.552500",
          "150703.042500",
          "150704.532500",
          "150706.022500",
          "150707.512500",
          "150709.002500",
          "150710.492500",
          "150711.982500",
          "150713.472500",
          "150714.962500",
          "150716.452500",
          "150717.942500",
          "150719.432500",
          "150720.922500",
          "150722.412500",
          "150723.902500",
          "150725.392500",
          "150726.882500",
          "150728.372500",
          "150729.862500",
          "150731.352500",
          "150732.842500",
          "150734.332500",
          "150735.822500",
          "150737.312500",
          "150738.802500",
          "150740.292500",
          "150741.782500",
          "150743.272500",
          "150744.762500",
          "150746.252500",
          "150747.742500",
          "150749.232500",
          "150750.722500",
          "150752.212500",
          "150753.702500",
          "150755.192500",
          "150756.682500",
          "150758.172500",
          "150759.662500",
          "150801.152500",
          "150802.642500",
          "150804.132500",
          "150805.622500",
          "150807.112500",
          "150808.602500",
          "150810.092500",
          "150811.582500",
          "150813.072500",
          "150814.562500",
          "150816.052500",
          "150817.542500",
          "150819.032500",
          "150820.522500",
          "150822.012500",
          "150823.502500",
          "150824.992500",
          "150826.482500",
          "150827.972500",
          "150829.462500",
          "150830.952500",
          "150832.442500",
          "150833.932500",
          "150835.422500",
          "150836.912500",
          "150838.402500",
          "150839.892500",
          "150841.382500",
          "150842.872500",
          "150844.362500",
          "150845.852500",
          "150847.342500",
          "150848.832500",
          "150850.322500",
          "150851.812500",
          "150853.302500",
          "150854.792500",
          "150856.282500",
          "150857.772500",
          "150859.262500",
          "150900.752500",
          "150902.242500",
          "150903.732500",
          "150905.222500",
          "150906.712500",
          "150908.202500",
          "150909.692500",
          "150911.182500",
          "150912.672500",
          "150914.162500",
          "150915.652500",
          "150917.142500",
          "150918.632500",
          "150920.122500",
          "150921.612500",
          "150923.102500",
          "150924.592500",
          "150926.082500",
          "150927.572500",
          "150929.062500",
          "150930.552500",
          "150932.042500",
          "150933.532500",
          "150935.022500",
          "150936.512500",
          "150938.002500",
          "150939.492500",
          "150940.982500",
          "150942.472500",
          "150943.962500",
          "150945.452500",
          "150946.942500",
          "150948.432500",
          "150949.922500",
          "150951.412500",
          "150952.902500",
          "150954.392500",
          "150955.882500",
          "150957.372500",
          "150958.862500",
          "151000.352500",
          "151001.842500",
          "151003.332500",
          "151004.822500",
          "151006.312500",
          "151007.802500",
          "151009.292500",
          "151010.782500",
          "151012.272500",
          "151013.762500",
          "151015.252500",
          "151016.742500",
          "151018.232500",
          "151019.722500",
          "151021.212500",
          "151022.702500",
          "151024.192500",
          "151025.682500",
          "151027.172500",
          "151028.662500",
          "151030.152500",
          "151031.642500",
          "151033.132500",
          "151034.622500",
          "151036.112500",
          "151037.602500",
          "151039.092500",
          "151040.582500",
          "151042.072500",
          "151043.562500",
          "151045.052500",
          "151046.542500",
          "151048.032500",
          "151049.522500",
          "151051.012500",
          "151052.502500",
          "151053.992500",
          "151055.482500",
          "151056.972500",
          "151058.462500",
          "151059.952500",
          "151101.442500",
          "151102.932500",
          "151104.422500",
          "151105.912500",
          "151107.402500",
          "151108.892500",
          "151110.382500",
          "151111.872500",
          "151113.362500",
          "151114.852500",
          "151116.342500",
          "151117.832500",
          "151119.322500",
          "151120.812500",
          "151122.302500",
          "151123.792500",
          "151125.282500",
          "151126.772500",
          "151128.262500",
          "151129.752500",
          "151131.242500",
          "151132.732500",
          "151134.222500",
          "151135.712500",
          "151137.202500",
          "151138.692500",
          "151140.182500",
          "151141.672500",
          "151143.162500",
          "151144.652500",
          "151146.142500",
          "151147.632500",
          "151149.122500",
          "151150.612500",
          "151152.102500",
          "151153.592500",
          "151155.082500",
          "151156.572500",
          "151158.062500",
          "151159.552500",
          "151201.042500",
          "151202.532500",
          "151204.022500",
          "151205.512500",
          "151207.002500",
          "151208.492500",
          "151209.982500",
          "151211.472500",
          "151212.962500",
          "151214.452500",
          "151215.942500",
          "151217.432500",
          "151218.922500",
          "151220.412500",
          "151221.902500",
          "151223.392500",
          "151224.882500",
          "151226.372500",
          "151227.862500",
          "151229.352500",
          "151230.842500",
          "151232.332500",
          "151233.822500",
          "151235.312500",
          "151236.802500",
          "151238.292500",
          "151239.782500",
          "151241.272500",
          "151242.762500",
          "151244.252500",
          "151245.742500",
          "151247.232500",
          "151248.722500",
          "151250.212500",
          "151251.702500",
          "151253.192500",
          "151254.682500",
          "151256.172500",
          "151257.662500",
          "151259.152500",
          "151300.642500",
          "151302.132500",
          "151303.622500",
          "151305.112500",
          "151306.602500",
          "151308.092500",
          "151309.582500",
          "151311.072500",
          "151312.562500",
          "151314.052500",
          "151315.542500",
          "151317.032500",
          "151318.522500",
          "151320.012500",
          "151321.502500",
          "151322.992500",
          "151324.482500",
          "151325.972500",
          "151327.462500",
          "151328.952500",
          "151330.442500",
          "151331.932500",
          "151333.422500",
          "151334.912500",
          "151336.402500",
          "151337.892500",
          "151339.382500",
          "151340.872500",
          "151342.362500",
          "151343.852500",
          "151345.342500",
          "151346.832500",
          "151348.322500",
          "151349.812500",
          "151351.302500",
          "151352.792500",
          "151354.282500",
          "151355.772500",
          "151357.262500",
          "151358.752500",
          "151400.242500",
          "151401.732500",
          "151403.222500",
          "151404.712500",
          "151406.202500",
          "151407.692500",
          "151409.182500",
          "151410.672500",
          "151412.162500",
          "151413.652500",
          "151415.142500",
          "151416.632500",
          "151418.122500",
          "151419.612500",
          "151421.102500",
          "151422.592500",
          "151424.082500",
          "151425.572500",
          "151427.062500",
          "151428.552500",
          "151430.042500",
          "151431.532500",
          "151433.022500",
          "151434.512500",
          "151436.002500",
          "151437.492500",
          "151438.982500",
          "151440.472500",
          "151441.962500",
          "151443.452500",
          "151444.942500",
          "151446.432500",
          "151447.922500",
          "151449.412500",
          "151450.902500",
          "151452.392500",
          "151453.882500",
          "151455.372500",
          "151456.862500",
          "151458.352500",
          "151459.842500",
          "151501.332500",
          "151502.822500",
          "151504.312500",
          "151505.802500",
          "151507.292500",
          "151508.782500",
          "151510.272500",
          "151511.762500",
          "151513.252500",
          "151514.742500",
          "151516.232500",
          "151517.722500",
          "151519.212500",
          "151520.702500",
          "151522.192500",
          "151523.682500",
          "151525.172500",
          "151526.662500",
          "151528.152500",
          "151529.642500",
          "151531.132500",
          "151532.622500",
          "151534.112500",
          "151535.602500",
          "151537.092500",
          "151538.582500",
          "151540.072500",
          "151541.562500",
          "151543.052500",
          "151544.542500",
          "151546.032500",
          "151547.522500",
          "151549.012500",
          "151550.502500",
          "151551.992500",
          "151553.482500",
          "151554.972500",
          "151556.462500",
          "151557.952500",
          "151559.442500",
          "151600.932500",
          "151602.422500",
          "151603.912500",
          "151605.402500",
          "151606.892500",
          "151608.382500",
          "151609.872500",
          "151611.362500",
          "151612.852500",
          "151614.342500",
          "151615.832500",
          "151617.322500",
          "151618.812500",
          "151620.302500",
          "151621.792500",
          "151623.282500",
          "151624.772500",
          "151626.262500",
          "151627.752500",
          "151629.242500",
          "151630.732500",
          "151632.222500",
          "151633.712500",
          "151635.202500",
          "151636.692500",
          "151638.182500",
          "151639.672500",
          "151641.162500",
          "151642.652500",
          "151644.142500",
          "151645.632500",
          "151647.122500",
          "151648.612500",
          "151650.102500",
          "151651.592500",
          "151653.082500",
          "151654.572500",
          "151656.062500",
          "151657.552500",
          "151659.042500",
          "151700.532500",
          "151702.022500",
          "151703.512500",
          "151705.002500",
          "151706.492500",
          "151707.982500",
          "151709.472500",
          "151710.962500",
          "151712.452500",
          "151713.942500",
          "151715.432500",
          "151716.922500",
          "151718.412500",
          "151719.902500",
          "151721.392500",
          "151722.882500",
          "151724.372500",
          "151725.862500",
          "151727.352500",
          "151728.842500",
          "151730.332500",
          "151731.822500",
          "151733.312500",
          "151734.802500",
          "151736.292500",
          "151737.782500",
          "151739.272500",
          "151740.762500",
          "151742.252500",
          "151743.742500",
          "151745.232500",
          "151746.722500",
          "151748.212500",
          "151749.702500",
          "151751.192500",
          "151752.682500",
          "151754.172500",
          "151755.662500",
          "151757.152500",
          "151758.642500",
          "151800.132500",
          "151801.622500",
          "151803.112500",
          "151804.602500",
          "151806.092500",
          "151807.582500",
          "151809.072500",
          "151810.562500",
          "151812.052500",
          "151813.542500",
          "151815.032500",
          "151816.522500",
          "151818.012500",
          "151819.502500",
          "151820.992500",
          "151822.482500",
          "151823.972500",
          "151825.462500",
          "151826.952500",
          "151828.442500",
          "151829.932500",
          "151831.422500",
          "151832.912500",
          "151834.402500",
          "151835.892500",
          "151837.382500",
          "151838.872500",
          "151840.362500",
          "151841.852500",
          "151843.342500",
          "151844.832500",
          "151846.322500",
          "151847.812500",
          "151849.302500",
          "151850.792500",
          "151852.282500",
          "151853.772500",
          "151855.262500"
        ],
        "ContentTime": [
          "150746.490000",
          "150746.493000",
          "150746.496000",
          "150746.499000",
          "150746.502000",
          "150746.509000",
          "150746.512000",
          "150746.515000",
          "150746.518000",
          "150746.521000",
          "150746.524000",
          "150746.527000",
          "150746.530000",
          "150746.533000",
          "150746.545000",
          "150746.548000",
          "150746.551000",
          "150746.555000",
          "150746.559000",
          "150746.561000",
          "150746.565000",
          "150746.568000",
          "150746.570000",
          "150746.573000",
          "150746.582000",
          "150806.455000",
          "150806.458000",
          "150806.461000",
          "150806.464000",
          "150806.467000",
          "150806.470000",
          "150806.473000",
          "150806.476000",
          "150806.479000",
          "150806.482000",
          "150806.485000",
          "150806.488000",
          "150806.491000",
          "150806.494000",
          "150806.510000",
          "150806.513000",
          "150806.516000",
          "150806.519000",
          "150806.522000",
          "150806.525000",
          "150826.455000",
          "150826.458000",
          "150826.467000",
          "150826.470000",
          "150826.473000",
          "150826.476000",
          "150826.479000",
          "150826.482000",
          "150826.485000",
          "150826.488000",
          "150826.491000",
          "150826.494000",
          "150826.499000",
          "150826.502000",
          "150826.505000",
          "150826.508000",
          "150826.511000",
          "150826.514000",
          "150826.517000",
          "150826.520000",
          "150846.454000",
          "150846.457000",
          "150846.460000",
          "150846.463000",
          "150846.466000",
          "150846.469000",
          "150846.472000",
