{
  "aor": 0.0007614640198511165,
  "aqi": 0.008577566277915633,
  "bids_meta": {
    "AcquisitionMatrixPE": 104,
    "AcquisitionNumber": 1,
    "AcquisitionTime": "13:37:55.552500",
    "BandwidthPerPixelPhaseEncode": 17.17,
    "BaseResolution": 104,
    "BodyPartExamined": "BRAIN",
    "CogAtlasID": "trm_4c898da401420",
    "ConsistencyInfo": "N4_VE11C_LATEST_20160120",
    "ConversionSoftware": "dcm2niix",
    "ConversionSoftwareVersion": "v1.0.20171215 (OpenJPEG build) GCC7.3.0",
    "DerivedVendorReportedEchoSpacing": 0.000560011,
    "DeviceSerialNumber": "167006",
    "DwellTime": 2.1e-06,
    "EchoTime": 0.037,
    "EchoTrainLength": 104,
    "EffectiveEchoSpacing": 0.000560011,
    "FlipAngle": 52,
    "ImageComments": "Unaliased_MB4_PE3_LB",
    "ImageOrientationPatientDICOM": [
      0.999817,
      -0.0189217,
      -0.00264392,
      0.0172773,
      0.954522,
      -0.29764
    ],
    "ImageType": [
      "ORIGINAL",
      "PRIMARY",
      "M",
      "MB",
      "ND",
      "MOSAIC"
    ],
    "InPlanePhaseEncodingDirectionDICOM": "COL",
    "InstitutionAddress": "Chemin_Queen-Mary_4565_Montreal_District_CA_H3W_1W5",
    "InstitutionName": "IUGM",
    "InstitutionalDepartmentName": "Department",
    "MRAcquisitionType": "2D",
    "MagneticFieldStrength": 3,
    "Manufacturer": "Siemens",
    "ManufacturersModelName": "Prisma_fit",
    "Modality": "MR",
    "MultibandAccelerationFactor": 4,
    "PartialFourier": 1,
    "PatientPosition": "HFS",
    "PercentPhaseFOV": 100,
    "PhaseEncodingDirection": "j-",
    "PhaseEncodingSteps": 104,
    "PhaseResolution": 1,
    "PixelBandwidth": 2290,
    "ProcedureStepDescription": "video5_generic",
    "ProtocolName": "func_task-wolf9",
    "PulseSequenceDetails": "%CustomerSeq%_cmrr_mbep2d_bold",
    "ReceiveCoilActiveElements": "HC1-7;NC1,2",
    "ReceiveCoilName": "HeadNeck_64",
    "ReconMatrixPE": 104,
    "RepetitionTime": 1.49,
    "SAR": 0.0287088,
    "ScanOptions": "FS",
    "ScanningSequence": "EP",
    "SequenceName": "epfid2d1_104",
    "SequenceVariant": "SK_SS",
    "SeriesDescription": "func_task-wolf9",
    "SeriesNumber": 8,
    "ShimSetting": [
      631,
      -7247,
      -8881,
      578,
      18,
      -224,
      -69,
      2
    ],
    "SliceThickness": 2,
    "SliceTiming": [
      0,
      0.785,
      0.1,
      0.8825,
      0.1975,
      0.98,
      0.295,
      1.08,
      0.3925,
      1.1775,
      0.49,
      1.275,
      0.59,
      1.3725,
      0.6875,
      0,
      0.785,
      0.1,
      0.8825,
      0.1975,
      0.98,
      0.295,
      1.08,
      0.3925,
      1.1775,
      0.49,
      1.275,
      0.59,
      1.3725,
      0.6875,
      0,
      0.785,
      0.1,
      0.8825,
      0.1975,
      0.98,
      0.295,
      1.08,
      0.3925,
      1.1775,
      0.49,
      1.275,
      0.59,
      1.3725,
      0.6875,
      0,
      0.785,
      0.1,
      0.8825,
      0.1975,
      0.98,
      0.295,
      1.08,
      0.3925,
      1.1775,
      0.49,
      1.275,
      0.59,
      1.3725,
      0.6875
    ],
    "SoftwareVersions": "syngo_MR_E11",
    "SpacingBetweenSlices": 2,
    "StationName": "MRC35049",
    "TaskName": "wolf09",
    "TotalReadoutTime": 0.0576811,
    "TxRefAmp": 221.314,
    "dataset": "<unset>",
    "dcmmeta_affine": [
      [
        -1.9996349811553955,
        0.03455469012260437,
        -0.016311047598719597,
        104.4054183959961
      ],
      [
        0.03784330189228058,
        1.9090434312820435,
        -0.5950808525085449,
        -65.45613098144531
      ],
      [
        -0.00528783118352294,
        0.5952808856964111,
        1.909348726272583,
        -78.90538024902344
      ],
      [
        0.0,
        0.0,
        0.0,
        1.0
      ]
    ],
    "dcmmeta_reorient_transform": [
      [
        0.0,
        -1.0,
        0.0,
        103.0
      ],
      [
        1.0,
        0.0,
        0.0,
        0.0
      ],
      [
        0.0,
        0.0,
        1.0,
        0.0
      ],
      [
        0.0,
        0.0,
        0.0,
        1.0
      ]
    ],
    "dcmmeta_shape": [
      104,
      104,
      60,
      407
    ],
    "dcmmeta_slice_dim": 2,
    "dcmmeta_version": 0.6,
    "global": {
      "const": {
        "AcquisitionMatrix": [
          104,
          0,
          0,
          104
        ],
        "AngioFlag": "N",
        "BitsAllocated": 16,
        "BitsStored": 16,
        "BodyPartExamined": "BRAIN",
        "Columns": 832,
        "EchoNumbers": 1,
        "EchoTime": 37.0,
        "EchoTrainLength": 104,
        "FlipAngle": 52.0,
        "HighBit": 15,
        "ImageOrientationPatient": [
          0.99981747375039,
          -0.0189216514629,
          -0.0026439155239,
          0.01727734414735,
          0.95452169180226,
          -0.2976404429142
        ],
        "ImagePositionPatient": [
          -848.40957715249,
          -812.29216981111,
          201.01556037213
        ],
        "ImageType": [
          "ORIGINAL",
          "PRIMARY",
          "M",
          "MB",
          "ND",
          "MOSAIC"
        ],
        "ImagedNucleus": "1H",
        "ImagingFrequency": 123.259197,
        "InPlanePhaseEncodingDirection": "COL",
        "MRAcquisitionType": "2D",
        "MagneticFieldStrength": 3.0,
        "Manufacturer": "SIEMENS",
        "ManufacturerModelName": "Prisma_fit",
        "Modality": "MR",
        "NumberOfAverages": 1.0,
        "NumberOfPhaseEncodingSteps": 104,
        "PercentPhaseFieldOfView": 100.0,
        "PercentSampling": 100.0,
        "PerformedProcedureStepStartTime": "132340.387000",
        "PhotometricInterpretation": "MONOCHROME2",
        "PixelBandwidth": 2290.0,
        "PixelRepresentation": 0,
        "PixelSpacing": [
          2.0,
          2.0
        ],
        "ProtocolName": "func_task-wolf9",
        "RepetitionTime": 1490.0,
        "Rows": 832,
        "SAR": 0.02870880456193,
        "SamplesPerPixel": 1,
        "ScanOptions": "FS",
        "ScanningSequence": "EP",
        "SequenceName": "epfid2d1_104",
        "SequenceVariant": [
          "SK",
          "SS"
        ],
        "SeriesDescription": "func_task-wolf9",
        "SeriesNumber": 8,
        "SeriesTime": "133853.234000",
        "SliceLocation": -56.704584507715,
        "SliceThickness": 2.0,
        "SmallestImagePixelValue": 0,
        "SoftwareVersions": "syngo MR E11",
        "SpacingBetweenSlices": 1.9999999897188,
        "SpecificCharacterSet": "ISO_IR 100",
        "StudyID": "1",
        "StudyTime": "132340.308000",
        "TransmitCoilName": "Body",
        "VariableFlipAngleFlag": "N",
        "WindowCenterWidthExplanation": "Algo1",
        "dBdt": 0.0
      },
      "slices": {}
    },
    "modality": "bold",
    "session_id": "010",
    "subject_id": "06",
    "task_id": "wolf09",
    "time": {
      "samples": {
        "AcquisitionNumber": [
          1,
          2,
          3,
          4,
          5,
          6,
          7,
          8,
          9,
          10,
          11,
          12,
          13,
          14,
          15,
          16,
          17,
          18,
          19,
          20,
          21,
          22,
          23,
          24,
          25,
          26,
          27,
          28,
          29,
          30,
          31,
          32,
          33,
          34,
          35,
          36,
          37,
          38,
          39,
          40,
          41,
          42,
          43,
          44,
          45,
          46,
          47,
          48,
          49,
          50,
          51,
          52,
          53,
          54,
          55,
          56,
          57,
          58,
          59,
          60,
          61,
          62,
          63,
          64,
          65,
          66,
          67,
          68,
          69,
          70,
          71,
          72,
          73,
          74,
          75,
          76,
          77,
          78,
          79,
          80,
          81,
          82,
          83,
          84,
          85,
          86,
          87,
          88,
          89,
          90,
          91,
          92,
          93,
          94,
          95,
          96,
          97,
          98,
          99,
          100,
          101,
          102,
          103,
          104,
          105,
          106,
          107,
          108,
          109,
          110,
          111,
          112,
          113,
          114,
          115,
          116,
          117,
          118,
          119,
          120,
          121,
          122,
          123,
          124,
          125,
          126,
          127,
          128,
          129,
          130,
          131,
          132,
          133,
          134,
          135,
          136,
          137,
          138,
          139,
          140,
          141,
          142,
          143,
          144,
          145,
          146,
          147,
          148,
          149,
          150,
          151,
          152,
          153,
          154,
          155,
          156,
          157,
          158,
          159,
          160,
          161,
          162,
          163,
          164,
          165,
          166,
          167,
          168,
          169,
          170,
          171,
          172,
          173,
          174,
          175,
          176,
          177,
          178,
          179,
          180,
          181,
          182,
          183,
          184,
          185,
          186,
          187,
          188,
          189,
          190,
          191,
          192,
          193,
          194,
          195,
          196,
          197,
          198,
          199,
          200,
          201,
          202,
          203,
          204,
          205,
          206,
          207,
          208,
          209,
          210,
          211,
          212,
          213,
          214,
          215,
          216,
          217,
          218,
          219,
          220,
          221,
          222,
          223,
          224,
          225,
          226,
          227,
          228,
          229,
          230,
          231,
          232,
          233,
          234,
          235,
          236,
          237,
          238,
          239,
          240,
          241,
          242,
          243,
          244,
          245,
          246,
          247,
          248,
          249,
          250,
          251,
          252,
          253,
          254,
          255,
          256,
          257,
          258,
          259,
          260,
          261,
          262,
          263,
          264,
          265,
          266,
          267,
          268,
          269,
          270,
          271,
          272,
          273,
          274,
          275,
          276,
          277,
          278,
          279,
          280,
          281,
          282,
          283,
          284,
          285,
          286,
          287,
          288,
          289,
          290,
          291,
          292,
          293,
          294,
          295,
          296,
          297,
          298,
          299,
          300,
          301,
          302,
          303,
          304,
          305,
          306,
          307,
          308,
          309,
          310,
          311,
          312,
          313,
          314,
          315,
          316,
          317,
          318,
          319,
          320,
          321,
          322,
          323,
          324,
          325,
          326,
          327,
          328,
          329,
          330,
          331,
          332,
          333,
          334,
          335,
          336,
          337,
          338,
          339,
          340,
          341,
          342,
          343,
          344,
          345,
          346,
          347,
          348,
          349,
          350,
          351,
          352,
          353,
          354,
          355,
          356,
          357,
          358,
          359,
          360,
          361,
          362,
          363,
          364,
          365,
          366,
          367,
          368,
          369,
          370,
          371,
          372,
          373,
          374,
          375,
          376,
          377,
          378,
          379,
          380,
          381,
          382,
          383,
          384,
          385,
          386,
          387,
          388,
          389,
          390,
          391,
          392,
          393,
          394,
          395,
          396,
          397,
          398,
          399,
          400,
          401,
          402,
          403,
          404,
          405,
          406,
          407
        ],
        "AcquisitionTime": [
          "133755.552500",
          "133757.042500",
          "133758.532500",
          "133800.022500",
          "133801.512500",
          "133803.002500",
          "133804.492500",
          "133805.982500",
          "133807.472500",
          "133808.962500",
          "133810.452500",
          "133811.942500",
          "133813.432500",
          "133814.922500",
          "133816.412500",
          "133817.902500",
          "133819.392500",
          "133820.882500",
          "133822.372500",
          "133823.862500",
          "133825.352500",
          "133826.842500",
          "133828.332500",
          "133829.822500",
          "133831.312500",
          "133832.802500",
          "133834.292500",
          "133835.782500",
          "133837.272500",
          "133838.762500",
          "133840.252500",
          "133841.742500",
          "133843.232500",
          "133844.722500",
          "133846.212500",
          "133847.702500",
          "133849.192500",
          "133850.682500",
          "133852.172500",
          "133853.662500",
          "133855.152500",
          "133856.642500",
          "133858.132500",
          "133859.622500",
          "133901.112500",
          "133902.602500",
          "133904.092500",
          "133905.582500",
          "133907.072500",
          "133908.562500",
          "133910.052500",
          "133911.542500",
          "133913.032500",
          "133914.522500",
          "133916.012500",
          "133917.502500",
          "133918.992500",
          "133920.482500",
          "133921.972500",
          "133923.462500",
          "133924.952500",
          "133926.442500",
          "133927.932500",
          "133929.422500",
          "133930.912500",
          "133932.402500",
          "133933.892500",
          "133935.382500",
          "133936.872500",
          "133938.362500",
          "133939.852500",
          "133941.342500",
          "133942.832500",
          "133944.322500",
          "133945.812500",
          "133947.302500",
          "133948.792500",
          "133950.282500",
          "133951.772500",
          "133953.262500",
          "133954.752500",
          "133956.242500",
          "133957.732500",
          "133959.222500",
          "134000.712500",
          "134002.202500",
          "134003.692500",
          "134005.182500",
          "134006.672500",
          "134008.162500",
          "134009.652500",
          "134011.142500",
          "134012.632500",
          "134014.122500",
          "134015.612500",
          "134017.102500",
          "134018.592500",
          "134020.082500",
          "134021.572500",
          "134023.062500",
          "134024.552500",
          "134026.042500",
          "134027.532500",
          "134029.022500",
          "134030.512500",
          "134032.002500",
          "134033.492500",
          "134034.982500",
          "134036.472500",
          "134037.962500",
          "134039.452500",
          "134040.942500",
          "134042.432500",
          "134043.922500",
          "134045.412500",
          "134046.902500",
          "134048.392500",
          "134049.882500",
          "134051.372500",
          "134052.862500",
          "134054.352500",
          "134055.842500",
          "134057.332500",
          "134058.822500",
          "134100.312500",
          "134101.802500",
          "134103.292500",
          "134104.782500",
          "134106.272500",
          "134107.762500",
          "134109.252500",
          "134110.742500",
          "134112.232500",
          "134113.722500",
          "134115.212500",
          "134116.702500",
          "134118.192500",
          "134119.682500",
          "134121.172500",
          "134122.662500",
          "134124.152500",
          "134125.642500",
          "134127.132500",
          "134128.622500",
          "134130.112500",
          "134131.602500",
          "134133.092500",
          "134134.582500",
          "134136.072500",
          "134137.562500",
          "134139.052500",
          "134140.542500",
          "134142.032500",
          "134143.522500",
          "134145.012500",
          "134146.502500",
          "134147.992500",
          "134149.482500",
          "134150.972500",
          "134152.462500",
          "134153.952500",
          "134155.442500",
          "134156.932500",
          "134158.422500",
          "134159.912500",
          "134201.402500",
          "134202.892500",
          "134204.382500",
          "134205.872500",
          "134207.362500",
          "134208.852500",
          "134210.342500",
          "134211.832500",
          "134213.322500",
          "134214.812500",
          "134216.302500",
          "134217.792500",
          "134219.282500",
          "134220.772500",
          "134222.262500",
          "134223.752500",
          "134225.242500",
          "134226.732500",
          "134228.222500",
          "134229.712500",
          "134231.202500",
          "134232.692500",
          "134234.182500",
          "134235.672500",
          "134237.162500",
          "134238.652500",
          "134240.142500",
          "134241.632500",
          "134243.122500",
          "134244.612500",
          "134246.102500",
          "134247.592500",
          "134249.082500",
          "134250.572500",
          "134252.062500",
          "134253.552500",
          "134255.042500",
          "134256.532500",
          "134258.022500",
          "134259.512500",
          "134301.002500",
          "134302.492500",
          "134303.982500",
          "134305.472500",
          "134306.962500",
          "134308.452500",
          "134309.942500",
          "134311.432500",
          "134312.922500",
          "134314.412500",
          "134315.902500",
          "134317.392500",
          "134318.882500",
          "134320.372500",
          "134321.862500",
          "134323.352500",
          "134324.842500",
          "134326.332500",
          "134327.822500",
          "134329.312500",
          "134330.802500",
          "134332.292500",
          "134333.782500",
          "134335.272500",
          "134336.762500",
          "134338.252500",
          "134339.742500",
          "134341.232500",
          "134342.722500",
          "134344.212500",
          "134345.702500",
          "134347.192500",
          "134348.682500",
          "134350.172500",
          "134351.662500",
          "134353.152500",
          "134354.642500",
          "134356.132500",
          "134357.622500",
          "134359.112500",
          "134400.602500",
          "134402.092500",
          "134403.582500",
          "134405.072500",
          "134406.562500",
          "134408.052500",
          "134409.542500",
          "134411.032500",
          "134412.522500",
          "134414.012500",
          "134415.502500",
          "134416.992500",
          "134418.482500",
          "134419.972500",
          "134421.462500",
          "134422.952500",
          "134424.442500",
          "134425.932500",
          "134427.422500",
          "134428.912500",
          "134430.402500",
          "134431.892500",
          "134433.382500",
          "134434.872500",
          "134436.362500",
          "134437.852500",
          "134439.342500",
          "134440.832500",
          "134442.322500",
          "134443.812500",
          "134445.302500",
          "134446.792500",
          "134448.282500",
          "134449.772500",
          "134451.262500",
          "134452.752500",
          "134454.242500",
          "134455.732500",
          "134457.222500",
          "134458.712500",
          "134500.202500",
          "134501.692500",
          "134503.182500",
          "134504.672500",
          "134506.162500",
          "134507.652500",
          "134509.142500",
          "134510.632500",
          "134512.122500",
          "134513.612500",
          "134515.102500",
          "134516.592500",
          "134518.082500",
          "134519.572500",
          "134521.062500",
          "134522.552500",
          "134524.042500",
          "134525.532500",
          "134527.022500",
          "134528.512500",
          "134530.002500",
          "134531.492500",
          "134532.982500",
          "134534.472500",
          "134535.962500",
          "134537.452500",
          "134538.942500",
          "134540.432500",
          "134541.922500",
          "134543.412500",
          "134544.902500",
          "134546.392500",
          "134547.882500",
          "134549.372500",
          "134550.862500",
          "134552.352500",
          "134553.842500",
          "134555.332500",
          "134556.822500",
          "134558.312500",
          "134559.802500",
          "134601.292500",
          "134602.782500",
          "134604.272500",
          "134605.762500",
          "134607.252500",
          "134608.742500",
          "134610.232500",
          "134611.722500",
          "134613.212500",
          "134614.702500",
          "134616.192500",
          "134617.682500",
          "134619.172500",
          "134620.662500",
          "134622.152500",
          "134623.642500",
          "134625.132500",
          "134626.622500",
          "134628.112500",
          "134629.602500",
          "134631.092500",
          "134632.582500",
          "134634.072500",
          "134635.562500",
          "134637.052500",
          "134638.542500",
          "134640.032500",
          "134641.522500",
          "134643.012500",
          "134644.502500",
          "134645.992500",
          "134647.482500",
          "134648.972500",
          "134650.462500",
          "134651.952500",
          "134653.442500",
          "134654.932500",
          "134656.422500",
          "134657.912500",
          "134659.402500",
          "134700.892500",
          "134702.382500",
          "134703.872500",
          "134705.362500",
          "134706.852500",
          "134708.342500",
          "134709.832500",
          "134711.322500",
          "134712.812500",
          "134714.302500",
          "134715.792500",
          "134717.282500",
          "134718.772500",
          "134720.262500",
          "134721.752500",
          "134723.242500",
          "134724.732500",
          "134726.222500",
          "134727.712500",
          "134729.202500",
          "134730.692500",
          "134732.182500",
          "134733.672500",
          "134735.162500",
          "134736.652500",
          "134738.142500",
          "134739.632500",
          "134741.122500",
          "134742.612500",
          "134744.102500",
          "134745.592500",
          "134747.082500",
          "134748.572500",
          "134750.062500",
          "134751.552500",
          "134753.042500",
          "134754.532500",
          "134756.022500",
          "134757.512500",
          "134759.002500",
          "134800.492500"
        ],
        "ContentTime": [
          "133853.237000",
          "133853.250000",
          "133853.253000",
          "133853.256000",
          "133913.201000",
          "133913.204000",
          "133913.207000",
          "133913.210000",
          "133913.213000",
          "133913.216000",
          "133913.219000",
          "133913.222000",
          "133913.225000",
          "133913.228000",
          "133913.231000",
          "133913.234000",
          "133913.237000",
          "133913.245000",
          "133913.248000",
          "133913.255000",
          "133913.258000",
          "133913.261000",
          "133913.264000",
          "133913.272000",
          "133933.201000",
          "133933.205000",
          "133933.207000",
          "133933.210000",
          "133933.213000",
          "133933.217000",
          "133933.220000",
          "133933.222000",
          "133933.225000",
          "133933.235000",
          "133933.238000",
          "133933.241000",
          "133933.243000",
          "133933.247000",
          "133933.250000",
          "133933.253000",
          "133933.256000",
          "133933.259000",
          "133933.262000",
          "133933.265000",
          "133953.201000",
          "133953.204000",
          "133953.207000",
          "133953.210000",
          "133953.213000",
          "133953.216000",
          "133953.219000",
          "133953.222000",
          "133953.225000",
          "133953.228000",
          "133953.231000",
          "133953.234000",
          "133953.237000",
          "133953.240000",
          "133953.243000",
          "133953.246000",
          "133953.249000",
          "133953.252000",
          "133953.255000",
          "133953.258000",
          "134013.201000",
          "134013.204000",
          "134013.207000",
          "134013.210000",
          "134013.213000",
          "134013.217000",
          "134013.220000",
          "134013.223000",
          "134013.226000",
          "134013.229000",
          "134013.232000",
          "134013.235000",
          "134013.238000",
          "134013.248000",
          "134013.251000",
          "134013.254000",
          "134013.257000",
          "134013.260000",
          "134013.263000",
          "134013.266000",
          "134033.202000",
          "134033.205000",
          "134033.208000",
          "134033.211000",
          "134033.214000",
          "134033.217000",
          "134033.220000",
          "134033.223000",
          "134033.226000",
          "134033.229000",
          "134033.232000",
          "134033.235000",
          "134033.238000",
          "134033.241000",
          "134033.244000",
          "134033.247000",
          "134033.250000",
          "134033.253000",
          "134033.256000",
          "134033.259000",
          "134113.202000",
          "134113.205000",
          "134113.208000",
          "134113.211000",
          "134113.214000",
          "134113.217000",
          "134113.220000",
          "134113.223000",
          "134113.226000",
          "134113.229000",
          "134113.232000",
          "134113.235000",
          "134113.238000",
          "134113.242000",
          "134113.245000",
          "134113.256000",
          "134113.259000",
          "134113.262000",
          "134113.265000",
          "134113.268000",
          "134113.271000",
          "134113.274000",
          "134113.277000",
          "134113.280000",
          "134113.283000",
          "134113.286000",
          "134113.289000",
          "134113.292000",
          "134153.201000",
          "134153.205000",
          "134153.208000",
          "134153.211000",
          "134153.214000",
          "134153.217000",
          "134153.220000",
          "134153.223000",
          "134153.226000",
          "134153.229000",
          "134153.232000",
          "134153.235000",
          "134153.238000",
          "134153.241000",
          "134153.244000",
          "134153.247000",
          "134153.250000",
          "134153.254000",
          "134153.256000",
          "134153.260000",
          "134153.263000",
          "134153.266000",
          "134153.269000",
          "134153.272000",
          "134153.275000",
          "134153.278000",
          "134233.201000",
          "134233.204000",
          "134233.207000",
          "134233.210000",
          "134233.213000",
          "134233.216000",
          "134233.219000",
          "134233.222000",
          "134233.225000",
          "134233.228000",
          "134233.231000",
          "134233.234000",
          "134233.237000",
          "134233.240000",
          "134233.243000",
          "134233.246000",
          "134233.249000",
          "134233.252000",
          "134233.255000",
          "134233.258000",
          "134233.261000",
          "134233.264000",
          "134233.268000",
          "134233.271000",
          "134233.274000",
          "134233.278000",
          "134233.281000",
          "134313.202000",
          "134313.205000",
          "134313.208000",
          "134313.211000",
          "134313.214000",
          "134313.218000",
          "134313.221000",
          "134313.224000",
          "134313.227000",
          "134313.230000",
          "134313.234000",
          "134313.237000",
          "134313.240000",
          "134313.243000",
          "134313.246000",
          "134313.249000",
          "134313.252000",
          "134313.255000",
          "134313.258000",
          "134313.261000",
          "134313.264000",
          "134313.267000",
          "134313.270000",
          "134313.273000",
          "134313.281000",
          "134313.284000",
          "134313.287000",
          "134353.201000",
          "134353.204000",
          "134353.207000",
          "134353.210000",
          "134353.213000",
          "134353.216000",
          "134353.219000",
          "134353.222000",
          "134353.225000",
          "134353.228000",
          "134353.231000",
