{
  "aor": 0.0013891625615763546,
  "aqi": 0.007199385738916256,
  "bids_meta": {
    "AcquisitionMatrixPE": 104,
    "AcquisitionNumber": 1,
    "AcquisitionTime": "10:50:7.775000",
    "BandwidthPerPixelPhaseEncode": 17.17,
    "BaseResolution": 104,
    "BodyPartExamined": "BRAIN",
    "CogAtlasID": "trm_4c898da401420",
    "ConsistencyInfo": "N4_VE11C_LATEST_20160120",
    "ConversionSoftware": "dcm2niix",
    "ConversionSoftwareVersion": "v1.0.20171215 (OpenJPEG build) GCC7.3.0",
    "DerivedVendorReportedEchoSpacing": 0.000560011,
    "DeviceSerialNumber": "167006",
    "DwellTime": 2.1e-06,
    "EchoTime": 0.037,
    "EchoTrainLength": 104,
    "EffectiveEchoSpacing": 0.000560011,
    "FlipAngle": 52,
    "ImageComments": "Unaliased_MB4_PE3_LB",
    "ImageOrientationPatientDICOM": [
      0.993989,
      0.107125,
      0.0225781,
      -0.0986878,
      0.966037,
      -0.238815
    ],
    "ImageType": [
      "ORIGINAL",
      "PRIMARY",
      "M",
      "MB",
      "ND",
      "MOSAIC"
    ],
    "InPlanePhaseEncodingDirectionDICOM": "COL",
    "InstitutionAddress": "Chemin_Queen-Mary_4565_Montreal_District_CA_H3W_1W5",
    "InstitutionName": "IUGM",
    "InstitutionalDepartmentName": "Department",
    "MRAcquisitionType": "2D",
    "MagneticFieldStrength": 3,
    "Manufacturer": "Siemens",
    "ManufacturersModelName": "Prisma_fit",
    "Modality": "MR",
    "MultibandAccelerationFactor": 4,
    "PartialFourier": 1,
    "PatientPosition": "HFS",
    "PercentPhaseFOV": 100,
    "PhaseEncodingDirection": "j-",
    "PhaseEncodingSteps": 104,
    "PhaseResolution": 1,
    "PixelBandwidth": 2290,
    "ProcedureStepDescription": "video5_generic",
    "ProtocolName": "func_task-wolf10",
    "PulseSequenceDetails": "%CustomerSeq%_cmrr_mbep2d_bold",
    "ReceiveCoilActiveElements": "HC1-7;NC1,2",
    "ReceiveCoilName": "HeadNeck_64",
    "ReconMatrixPE": 104,
    "RepetitionTime": 1.49,
    "SAR": 0.0383047,
    "ScanOptions": "FS",
    "ScanningSequence": "EP",
    "SequenceName": "epfid2d1_104",
    "SequenceVariant": "SK_SS",
    "SeriesDescription": "func_task-wolf10",
    "SeriesNumber": 13,
    "ShimSetting": [
      631,
      -7202,
      -8855,
      720,
      98,
      -15,
      -10,
      -19
    ],
    "SliceThickness": 2,
    "SliceTiming": [
      0,
      0.785,
      0.0975,
      0.8825,
      0.195,
      0.98,
      0.295,
      1.0775,
      0.3925,
      1.175,
      0.49,
      1.275,
      0.5875,
      1.3725,
      0.685,
      0,
      0.785,
      0.0975,
      0.8825,
      0.195,
      0.98,
      0.295,
      1.0775,
      0.3925,
      1.175,
      0.49,
      1.275,
      0.5875,
      1.3725,
      0.685,
      0,
      0.785,
      0.0975,
      0.8825,
      0.195,
      0.98,
      0.295,
      1.0775,
      0.3925,
      1.175,
      0.49,
      1.275,
      0.5875,
      1.3725,
      0.685,
      0,
      0.785,
      0.0975,
      0.8825,
      0.195,
      0.98,
      0.295,
      1.0775,
      0.3925,
      1.175,
      0.49,
      1.275,
      0.5875,
      1.3725,
      0.685
    ],
    "SoftwareVersions": "syngo_MR_E11",
    "SpacingBetweenSlices": 2,
    "StationName": "MRC35049",
    "TaskName": "wolf10",
    "TotalReadoutTime": 0.0576811,
    "TxRefAmp": 250.862,
    "dataset": "<unset>",
    "dcmmeta_affine": [
      [
        -1.9879783391952515,
        -0.19737555086612701,
        0.09478862583637238,
        112.99169921875
      ],
      [
        -0.2142496407032013,
        1.9320745468139648,
        -0.47030311822891235,
        -63.158912658691406
      ],
      [
        0.04515617713332176,
        0.4776304364204407,
        1.9416049718856812,
        -69.38528442382812
      ],
      [
        0.0,
        0.0,
        0.0,
        1.0
      ]
    ],
    "dcmmeta_reorient_transform": [
      [
        0.0,
        -1.0,
        0.0,
        103.0
      ],
      [
        1.0,
        0.0,
        0.0,
        0.0
      ],
      [
        0.0,
        0.0,
        1.0,
        0.0
      ],
      [
        0.0,
        0.0,
        0.0,
        1.0
      ]
    ],
    "dcmmeta_shape": [
      104,
      104,
      60,
      406
    ],
    "dcmmeta_slice_dim": 2,
    "dcmmeta_version": 0.6,
    "global": {
      "const": {
        "AcquisitionMatrix": [
          104,
          0,
          0,
          104
        ],
        "AngioFlag": "N",
        "BitsAllocated": 16,
        "BitsStored": 16,
        "BodyPartExamined": "BRAIN",
        "Columns": 832,
        "EchoNumbers": 1,
        "EchoTime": 37.0,
        "EchoTrainLength": 104,
        "FlipAngle": 52.0,
        "HighBit": 15,
        "ImageOrientationPatient": [
          0.99398918644081,
          0.10712482034636,
          0.02257808903561,
          -0.0986877721317,
          0.96603727494534,
          -0.2388152152772
        ],
        "ImagePositionPatient": [
          -744.44144783562,
          -917.10676988365,
          137.23127999977
        ],
        "ImageType": [
          "ORIGINAL",
          "PRIMARY",
          "M",
          "MB",
          "ND",
          "MOSAIC"
        ],
        "ImagedNucleus": "1H",
        "ImagingFrequency": 123.259469,
        "InPlanePhaseEncodingDirection": "COL",
        "MRAcquisitionType": "2D",
        "MagneticFieldStrength": 3.0,
        "Manufacturer": "SIEMENS",
        "ManufacturerModelName": "Prisma_fit",
        "Modality": "MR",
        "NumberOfAverages": 1.0,
        "NumberOfPhaseEncodingSteps": 104,
        "PercentPhaseFieldOfView": 100.0,
        "PercentSampling": 100.0,
        "PerformedProcedureStepStartTime": "095620.166000",
        "PhotometricInterpretation": "MONOCHROME2",
        "PixelBandwidth": 2290.0,
        "PixelRepresentation": 0,
        "PixelSpacing": [
          2.0,
          2.0
        ],
        "ProtocolName": "func_task-wolf10",
        "RepetitionTime": 1490.0,
        "Rows": 832,
        "SAR": 0.03830468811409,
        "SamplesPerPixel": 1,
        "ScanOptions": "FS",
        "ScanningSequence": "EP",
        "SequenceName": "epfid2d1_104",
        "SequenceVariant": [
          "SK",
          "SS"
        ],
        "SeriesDescription": "func_task-wolf10",
        "SeriesNumber": 13,
        "SeriesTime": "105124.010000",
        "SliceLocation": -47.152325382309,
        "SliceThickness": 2.0,
        "SmallestImagePixelValue": 0,
        "SoftwareVersions": "syngo MR E11",
        "SpacingBetweenSlices": 1.9999999715828,
        "SpecificCharacterSet": "ISO_IR 100",
        "StudyID": "1",
        "StudyTime": "095620.006000",
        "TransmitCoilName": "Body",
        "VariableFlipAngleFlag": "N",
        "WindowCenterWidthExplanation": "Algo1",
        "dBdt": 0.0
      },
      "slices": {}
    },
    "modality": "bold",
    "session_id": "004",
    "subject_id": "01",
    "task_id": "wolf10",
    "time": {
      "samples": {
        "AcquisitionNumber": [
          1,
          2,
          3,
          4,
          5,
          6,
          7,
          8,
          9,
          10,
          11,
          12,
          13,
          14,
          15,
          16,
          17,
          18,
          19,
          20,
          21,
          22,
          23,
          24,
          25,
          26,
          27,
          28,
          29,
          30,
          31,
          32,
          33,
          34,
          35,
          36,
          37,
          38,
          39,
          40,
          41,
          42,
          43,
          44,
          45,
          46,
          47,
          48,
          49,
          50,
          51,
          52,
          53,
          54,
          55,
          56,
          57,
          58,
          59,
          60,
          61,
          62,
          63,
          64,
          65,
          66,
          67,
          68,
          69,
          70,
          71,
          72,
          73,
          74,
          75,
          76,
          77,
          78,
          79,
          80,
          81,
          82,
          83,
          84,
          85,
          86,
          87,
          88,
          89,
          90,
          91,
          92,
          93,
          94,
          95,
          96,
          97,
          98,
          99,
          100,
          101,
          102,
          103,
          104,
          105,
          106,
          107,
          108,
          109,
          110,
          111,
          112,
          113,
          114,
          115,
          116,
          117,
          118,
          119,
          120,
          121,
          122,
          123,
          124,
          125,
          126,
          127,
          128,
          129,
          130,
          131,
          132,
          133,
          134,
          135,
          136,
          137,
          138,
          139,
          140,
          141,
          142,
          143,
          144,
          145,
          146,
          147,
          148,
          149,
          150,
          151,
          152,
          153,
          154,
          155,
          156,
          157,
          158,
          159,
          160,
          161,
          162,
          163,
          164,
          165,
          166,
          167,
          168,
          169,
          170,
          171,
          172,
          173,
          174,
          175,
          176,
          177,
          178,
          179,
          180,
          181,
          182,
          183,
          184,
          185,
          186,
          187,
          188,
          189,
          190,
          191,
          192,
          193,
          194,
          195,
          196,
          197,
          198,
          199,
          200,
          201,
          202,
          203,
          204,
          205,
          206,
          207,
          208,
          209,
          210,
          211,
          212,
          213,
          214,
          215,
          216,
          217,
          218,
          219,
          220,
          221,
          222,
          223,
          224,
          225,
          226,
          227,
          228,
          229,
          230,
          231,
          232,
          233,
          234,
          235,
          236,
          237,
          238,
          239,
          240,
          241,
          242,
          243,
          244,
          245,
          246,
          247,
          248,
          249,
          250,
          251,
          252,
          253,
          254,
          255,
          256,
          257,
          258,
          259,
          260,
          261,
          262,
          263,
          264,
          265,
          266,
          267,
          268,
          269,
          270,
          271,
          272,
          273,
          274,
          275,
          276,
          277,
          278,
          279,
          280,
          281,
          282,
          283,
          284,
          285,
          286,
          287,
          288,
          289,
          290,
          291,
          292,
          293,
          294,
          295,
          296,
          297,
          298,
          299,
          300,
          301,
          302,
          303,
          304,
          305,
          306,
          307,
          308,
          309,
          310,
          311,
          312,
          313,
          314,
          315,
          316,
          317,
          318,
          319,
          320,
          321,
          322,
          323,
          324,
          325,
          326,
          327,
          328,
          329,
          330,
          331,
          332,
          333,
          334,
          335,
          336,
          337,
          338,
          339,
          340,
          341,
          342,
          343,
          344,
          345,
          346,
          347,
          348,
          349,
          350,
          351,
          352,
          353,
          354,
          355,
          356,
          357,
          358,
          359,
          360,
          361,
          362,
          363,
          364,
          365,
          366,
          367,
          368,
          369,
          370,
          371,
          372,
          373,
          374,
          375,
          376,
          377,
          378,
          379,
          380,
          381,
          382,
          383,
          384,
          385,
          386,
          387,
          388,
          389,
          390,
          391,
          392,
          393,
          394,
          395,
          396,
          397,
          398,
          399,
          400,
          401,
          402,
          403,
          404,
          405,
          406
        ],
        "AcquisitionTime": [
          "105007.775000",
          "105009.265000",
          "105010.755000",
          "105012.245000",
          "105013.735000",
          "105015.225000",
          "105016.715000",
          "105018.205000",
          "105019.695000",
          "105021.185000",
          "105022.675000",
          "105024.165000",
          "105025.655000",
          "105027.145000",
          "105028.635000",
          "105030.125000",
          "105031.615000",
          "105033.105000",
          "105034.595000",
          "105036.085000",
          "105037.575000",
          "105039.065000",
          "105040.555000",
          "105042.045000",
          "105043.535000",
          "105045.025000",
          "105046.515000",
          "105048.005000",
          "105049.495000",
          "105050.985000",
          "105052.475000",
          "105053.965000",
          "105055.455000",
          "105056.945000",
          "105058.435000",
          "105059.925000",
          "105101.415000",
          "105102.905000",
          "105104.395000",
          "105105.885000",
          "105107.375000",
          "105108.865000",
          "105110.355000",
          "105111.845000",
          "105113.335000",
          "105114.825000",
          "105116.315000",
          "105117.805000",
          "105119.295000",
          "105120.785000",
          "105122.275000",
          "105123.765000",
          "105125.255000",
          "105126.745000",
          "105128.235000",
          "105129.725000",
          "105131.215000",
          "105132.705000",
          "105134.195000",
          "105135.685000",
          "105137.175000",
          "105138.665000",
          "105140.155000",
          "105141.645000",
          "105143.135000",
          "105144.625000",
          "105146.115000",
          "105147.605000",
          "105149.095000",
          "105150.585000",
          "105152.075000",
          "105153.565000",
          "105155.055000",
          "105156.545000",
          "105158.035000",
          "105159.525000",
          "105201.015000",
          "105202.505000",
          "105203.995000",
          "105205.485000",
          "105206.975000",
          "105208.465000",
          "105209.955000",
          "105211.445000",
          "105212.935000",
          "105214.425000",
          "105215.915000",
          "105217.405000",
          "105218.895000",
          "105220.385000",
          "105221.875000",
          "105223.365000",
          "105224.855000",
          "105226.345000",
          "105227.835000",
          "105229.325000",
          "105230.815000",
          "105232.305000",
          "105233.795000",
          "105235.285000",
          "105236.775000",
          "105238.265000",
          "105239.755000",
          "105241.245000",
          "105242.735000",
          "105244.225000",
          "105245.715000",
          "105247.205000",
          "105248.695000",
          "105250.185000",
          "105251.675000",
          "105253.165000",
          "105254.655000",
          "105256.145000",
          "105257.635000",
          "105259.125000",
          "105300.615000",
          "105302.105000",
          "105303.595000",
          "105305.085000",
          "105306.575000",
          "105308.065000",
          "105309.555000",
          "105311.045000",
          "105312.535000",
          "105314.025000",
          "105315.515000",
          "105317.005000",
          "105318.495000",
          "105319.985000",
          "105321.475000",
          "105322.965000",
          "105324.455000",
          "105325.945000",
          "105327.435000",
          "105328.925000",
          "105330.415000",
          "105331.905000",
          "105333.395000",
          "105334.885000",
          "105336.375000",
          "105337.865000",
          "105339.355000",
          "105340.845000",
          "105342.335000",
          "105343.825000",
          "105345.315000",
          "105346.805000",
          "105348.295000",
          "105349.785000",
          "105351.275000",
          "105352.765000",
          "105354.255000",
          "105355.745000",
          "105357.235000",
          "105358.725000",
          "105400.215000",
          "105401.705000",
          "105403.195000",
          "105404.685000",
          "105406.175000",
          "105407.665000",
          "105409.155000",
          "105410.645000",
          "105412.135000",
          "105413.625000",
          "105415.115000",
          "105416.605000",
          "105418.095000",
          "105419.585000",
          "105421.075000",
          "105422.565000",
          "105424.055000",
          "105425.545000",
          "105427.035000",
          "105428.525000",
          "105430.015000",
          "105431.505000",
          "105432.995000",
          "105434.485000",
          "105435.975000",
          "105437.465000",
          "105438.955000",
          "105440.445000",
          "105441.935000",
          "105443.425000",
          "105444.915000",
          "105446.405000",
          "105447.895000",
          "105449.385000",
          "105450.875000",
          "105452.365000",
          "105453.855000",
          "105455.345000",
          "105456.835000",
          "105458.325000",
          "105459.815000",
          "105501.305000",
          "105502.795000",
          "105504.285000",
          "105505.775000",
          "105507.265000",
          "105508.755000",
          "105510.245000",
          "105511.735000",
          "105513.225000",
          "105514.715000",
          "105516.205000",
          "105517.695000",
          "105519.185000",
          "105520.675000",
          "105522.165000",
          "105523.655000",
          "105525.145000",
          "105526.635000",
          "105528.125000",
          "105529.615000",
          "105531.105000",
          "105532.595000",
          "105534.085000",
          "105535.575000",
          "105537.065000",
          "105538.555000",
          "105540.045000",
          "105541.535000",
          "105543.025000",
          "105544.515000",
          "105546.005000",
          "105547.495000",
          "105548.985000",
          "105550.475000",
          "105551.965000",
          "105553.455000",
          "105554.945000",
          "105556.435000",
          "105557.925000",
          "105559.415000",
          "105600.905000",
          "105602.395000",
          "105603.885000",
          "105605.375000",
          "105606.865000",
          "105608.355000",
          "105609.845000",
          "105611.335000",
          "105612.825000",
          "105614.315000",
          "105615.805000",
          "105617.295000",
          "105618.785000",
          "105620.275000",
          "105621.765000",
          "105623.255000",
          "105624.745000",
          "105626.235000",
          "105627.725000",
          "105629.215000",
          "105630.705000",
          "105632.195000",
          "105633.685000",
          "105635.175000",
          "105636.665000",
          "105638.155000",
          "105639.645000",
          "105641.135000",
          "105642.625000",
          "105644.115000",
          "105645.605000",
          "105647.095000",
          "105648.585000",
          "105650.075000",
          "105651.565000",
          "105653.055000",
          "105654.545000",
          "105656.035000",
          "105657.525000",
          "105659.015000",
          "105700.505000",
          "105701.995000",
          "105703.485000",
          "105704.975000",
          "105706.465000",
          "105707.955000",
          "105709.445000",
          "105710.935000",
          "105712.425000",
          "105713.915000",
          "105715.405000",
          "105716.895000",
          "105718.385000",
          "105719.875000",
          "105721.365000",
          "105722.855000",
          "105724.345000",
          "105725.835000",
          "105727.325000",
          "105728.815000",
          "105730.305000",
          "105731.795000",
          "105733.285000",
          "105734.775000",
          "105736.265000",
          "105737.755000",
          "105739.245000",
          "105740.735000",
          "105742.225000",
          "105743.715000",
          "105745.205000",
          "105746.695000",
          "105748.185000",
          "105749.675000",
          "105751.165000",
          "105752.655000",
          "105754.145000",
          "105755.635000",
          "105757.125000",
          "105758.615000",
          "105800.105000",
          "105801.595000",
          "105803.085000",
          "105804.575000",
          "105806.065000",
          "105807.555000",
          "105809.045000",
          "105810.535000",
          "105812.025000",
          "105813.515000",
          "105815.005000",
          "105816.495000",
          "105817.985000",
          "105819.475000",
          "105820.965000",
          "105822.455000",
          "105823.945000",
          "105825.435000",
          "105826.925000",
          "105828.415000",
          "105829.905000",
          "105831.395000",
          "105832.885000",
          "105834.375000",
          "105835.865000",
          "105837.355000",
          "105838.845000",
          "105840.335000",
          "105841.825000",
          "105843.315000",
          "105844.805000",
          "105846.295000",
          "105847.785000",
          "105849.275000",
          "105850.765000",
          "105852.255000",
          "105853.745000",
          "105855.235000",
          "105856.725000",
          "105858.215000",
          "105859.705000",
          "105901.195000",
          "105902.685000",
          "105904.175000",
          "105905.665000",
          "105907.155000",
          "105908.645000",
          "105910.135000",
          "105911.625000",
          "105913.115000",
          "105914.605000",
          "105916.095000",
          "105917.585000",
          "105919.075000",
          "105920.565000",
          "105922.055000",
          "105923.545000",
          "105925.035000",
          "105926.525000",
          "105928.015000",
          "105929.505000",
          "105930.995000",
          "105932.485000",
          "105933.975000",
          "105935.465000",
          "105936.955000",
          "105938.445000",
          "105939.935000",
          "105941.425000",
          "105942.915000",
          "105944.405000",
          "105945.895000",
          "105947.385000",
          "105948.875000",
          "105950.365000",
          "105951.855000",
          "105953.345000",
          "105954.835000",
          "105956.325000",
          "105957.815000",
          "105959.305000",
          "110000.795000",
          "110002.285000",
          "110003.775000",
          "110005.265000",
          "110006.755000",
          "110008.245000",
          "110009.735000",
          "110011.225000"
        ],
        "ContentTime": [
          "105124.012000",
          "105124.015000",
          "105124.018000",
          "105124.021000",
          "105124.024000",
          "105124.031000",
          "105124.034000",
          "105124.037000",
          "105124.039000",
          "105124.042000",
          "105124.045000",
          "105124.053000",
          "105124.056000",
          "105124.058000",
          "105124.063000",
          "105124.066000",
          "105124.069000",
          "105124.071000",
          "105124.074000",
          "105124.077000",
          "105124.080000",
          "105124.083000",
          "105143.977000",
          "105143.980000",
          "105143.983000",
          "105143.985000",
          "105143.988000",
          "105143.991000",
          "105143.994000",
          "105143.997000",
          "105144.001000",
          "105144.004000",
          "105144.007000",
          "105144.009000",
          "105144.012000",
          "105144.015000",
          "105144.018000",
          "105144.021000",
          "105144.023000",
          "105144.026000",
          "105144.029000",
          "105144.032000",
          "105203.977000",
          "105203.981000",
          "105203.983000",
          "105203.986000",
          "105203.989000",
          "105203.992000",
          "105203.995000",
          "105203.998000",
          "105204.001000",
          "105204.014000",
          "105204.017000",
          "105204.019000",
          "105204.022000",
          "105204.025000",
          "105204.028000",
          "105204.031000",
          "105204.034000",
          "105204.036000",
          "105204.039000",
          "105204.042000",
          "105223.976000",
          "105223.979000",
          "105223.982000",
          "105223.985000",
          "105223.987000",
          "105223.990000",
          "105223.993000",
          "105223.996000",
          "105224.000000",
          "105224.003000",
          "105224.006000",
          "105224.009000",
          "105224.011000",
          "105224.014000",
          "105224.017000",
          "105224.020000",
          "105224.023000",
          "105224.026000",
          "105224.028000",
          "105224.031000",
          "105243.976000",
          "105243.979000",
          "105243.982000",
          "105243.985000",
          "105243.987000",
          "105243.990000",
          "105243.993000",
          "105243.996000",
          "105244.000000",
          "105244.003000",
          "105244.005000",
          "105244.008000",
          "105244.011000",
          "105244.014000",
          "105244.017000",
          "105244.020000",
          "105244.022000",
          "105244.025000",
          "105244.028000",
          "105244.031000",
          "105244.034000",
          "105323.976000",
          "105323.979000",
          "105323.991000",
          "105323.994000",
          "105323.997000",
          "105324.001000",
          "105324.004000",
          "105324.007000",
          "105324.009000",
          "105324.012000",
          "105324.015000",
          "105324.018000",
          "105324.021000",
          "105324.024000",
          "105324.027000",
          "105324.030000",
          "105324.032000",
          "105324.035000",
          "105324.038000",
          "105324.041000",
          "105324.044000",
          "105324.047000",
          "105324.049000",
          "105324.052000",
          "105324.055000",
          "105324.058000",
          "105324.061000",
          "105324.064000",
          "105403.977000",
          "105403.980000",
          "105403.983000",
          "105403.986000",
          "105403.989000",
          "105403.992000",
          "105403.994000",
          "105403.997000",
          "105404.001000",
          "105404.004000",
          "105404.007000",
          "105404.010000",
          "105404.013000",
          "105404.016000",
          "105404.019000",
          "105404.022000",
          "105404.025000",
          "105404.027000",
          "105404.030000",
          "105404.033000",
          "105404.036000",
          "105404.039000",
          "105404.042000",
          "105404.045000",
          "105404.048000",
          "105404.050000",
          "105404.053000",
          "105443.976000",
          "105443.981000",
          "105443.984000",
          "105443.987000",
          "105443.990000",
          "105443.992000",
          "105443.995000",
          "105443.998000",
          "105444.005000",
          "105444.008000",
          "105444.011000",
          "105444.014000",
          "105444.017000",
          "105444.020000",
          "105444.023000",
          "105444.026000",
          "105444.029000",
          "105444.032000",
          "105444.035000",
          "105444.037000",
          "105444.040000",
          "105444.043000",
          "105444.046000",
          "105444.049000",
          "105444.052000",
          "105444.055000",
          "105444.058000",
          "105523.976000",
          "105523.979000",
          "105523.982000",
          "105523.985000",
          "105523.988000",
          "105523.990000",
          "105523.993000",
          "105523.996000",
          "105524.000000",
          "105524.003000",
          "105524.006000",
          "105524.009000",
          "105524.012000",
          "105524.015000",
          "105524.017000",
          "105524.020000",
          "105524.023000",
          "105524.026000",
          "105524.029000",
          "105524.032000",
          "105524.035000",
          "105524.038000",
          "105524.040000",
          "105524.043000",
          "105524.046000",
          "105524.049000",
          "105524.052000",
          "105603.977000",
          "105603.980000",
          "105603.984000",
          "105603.987000",
          "105603.990000",
          "105603.993000",
          "105603.996000",
          "105603.998000",
          "105604.002000",
          "105604.005000",
          "105604.008000",
          "105604.011000",
