{
  "aor": 0.0005336206896551724,
  "aqi": 0.006675939507389163,
  "bids_meta": {
    "AcquisitionMatrixPE": 104,
    "AcquisitionNumber": 1,
    "AcquisitionTime": "10:28:56.435000",
    "BandwidthPerPixelPhaseEncode": 17.17,
    "BaseResolution": 104,
    "BodyPartExamined": "BRAIN",
    "CogAtlasID": "trm_4c898da401420",
    "ConsistencyInfo": "N4_VE11C_LATEST_20160120",
    "ConversionSoftware": "dcm2niix",
    "ConversionSoftwareVersion": "v1.0.20171215 (OpenJPEG build) GCC7.3.0",
    "DerivedVendorReportedEchoSpacing": 0.000560011,
    "DeviceSerialNumber": "167006",
    "DwellTime": 2.1e-06,
    "EchoTime": 0.037,
    "EchoTrainLength": 104,
    "EffectiveEchoSpacing": 0.000560011,
    "FlipAngle": 52,
    "ImageComments": "Unaliased_MB4_PE3_LB",
    "ImageOrientationPatientDICOM": [
      0.993989,
      0.107125,
      0.0225781,
      -0.0986878,
      0.966037,
      -0.238815
    ],
    "ImageType": [
      "ORIGINAL",
      "PRIMARY",
      "M",
      "MB",
      "ND",
      "MOSAIC"
    ],
    "InPlanePhaseEncodingDirectionDICOM": "COL",
    "InstitutionAddress": "Chemin_Queen-Mary_4565_Montreal_District_CA_H3W_1W5",
    "InstitutionName": "IUGM",
    "InstitutionalDepartmentName": "Department",
    "MRAcquisitionType": "2D",
    "MagneticFieldStrength": 3,
    "Manufacturer": "Siemens",
    "ManufacturersModelName": "Prisma_fit",
    "Modality": "MR",
    "MultibandAccelerationFactor": 4,
    "PartialFourier": 1,
    "PatientPosition": "HFS",
    "PercentPhaseFOV": 100,
    "PhaseEncodingDirection": "j-",
    "PhaseEncodingSteps": 104,
    "PhaseResolution": 1,
    "PixelBandwidth": 2290,
    "ProcedureStepDescription": "video5_generic",
    "ProtocolName": "func_task-wolf8",
    "PulseSequenceDetails": "%CustomerSeq%_cmrr_mbep2d_bold",
    "ReceiveCoilActiveElements": "HC1-7;NC1,2",
    "ReceiveCoilName": "HeadNeck_64",
    "ReconMatrixPE": 104,
    "RepetitionTime": 1.49,
    "SAR": 0.0383047,
    "ScanOptions": "FS",
    "ScanningSequence": "EP",
    "SequenceName": "epfid2d1_104",
    "SequenceVariant": "SK_SS",
    "SeriesDescription": "func_task-wolf8",
    "SeriesNumber": 9,
    "ShimSetting": [
      631,
      -7202,
      -8855,
      720,
      98,
      -15,
      -10,
      -19
    ],
    "SliceThickness": 2,
    "SliceTiming": [
      0,
      0.7825,
      0.0975,
      0.88,
      0.195,
      0.9775,
      0.2925,
      1.0775,
      0.39,
      1.175,
      0.49,
      1.2725,
      0.5875,
      1.37,
      0.685,
      0,
      0.7825,
      0.0975,
      0.88,
      0.195,
      0.9775,
      0.2925,
      1.0775,
      0.39,
      1.175,
      0.49,
      1.2725,
      0.5875,
      1.37,
      0.685,
      0,
      0.7825,
      0.0975,
      0.88,
      0.195,
      0.9775,
      0.2925,
      1.0775,
      0.39,
      1.175,
      0.49,
      1.2725,
      0.5875,
      1.37,
      0.685,
      0,
      0.7825,
      0.0975,
      0.88,
      0.195,
      0.9775,
      0.2925,
      1.0775,
      0.39,
      1.175,
      0.49,
      1.2725,
      0.5875,
      1.37,
      0.685
    ],
    "SoftwareVersions": "syngo_MR_E11",
    "SpacingBetweenSlices": 2,
    "StationName": "MRC35049",
    "TaskName": "wolf08",
    "TotalReadoutTime": 0.0576811,
    "TxRefAmp": 250.862,
    "dataset": "<unset>",
    "dcmmeta_affine": [
      [
        -1.9879783391952515,
        -0.19737555086612701,
        0.09478862583637238,
        112.99169921875
      ],
      [
        -0.2142496407032013,
        1.9320745468139648,
        -0.47030311822891235,
        -63.158912658691406
      ],
      [
        0.04515617713332176,
        0.4776304364204407,
        1.9416049718856812,
        -69.38528442382812
      ],
      [
        0.0,
        0.0,
        0.0,
        1.0
      ]
    ],
    "dcmmeta_reorient_transform": [
      [
        0.0,
        -1.0,
        0.0,
        103.0
      ],
      [
        1.0,
        0.0,
        0.0,
        0.0
      ],
      [
        0.0,
        0.0,
        1.0,
        0.0
      ],
      [
        0.0,
        0.0,
        0.0,
        1.0
      ]
    ],
    "dcmmeta_shape": [
      104,
      104,
      60,
      406
    ],
    "dcmmeta_slice_dim": 2,
    "dcmmeta_version": 0.6,
    "global": {
      "const": {
        "AcquisitionMatrix": [
          104,
          0,
          0,
          104
        ],
        "AngioFlag": "N",
        "BitsAllocated": 16,
        "BitsStored": 16,
        "BodyPartExamined": "BRAIN",
        "Columns": 832,
        "EchoNumbers": 1,
        "EchoTime": 37.0,
        "EchoTrainLength": 104,
        "FlipAngle": 52.0,
        "HighBit": 15,
        "ImageOrientationPatient": [
          0.99398918644081,
          0.10712482034636,
          0.02257808903561,
          -0.0986877721317,
          0.96603727494534,
          -0.2388152152772
        ],
        "ImagePositionPatient": [
          -744.44144783562,
          -917.10676988365,
          137.23127999977
        ],
        "ImageType": [
          "ORIGINAL",
          "PRIMARY",
          "M",
          "MB",
          "ND",
          "MOSAIC"
        ],
        "ImagedNucleus": "1H",
        "ImagingFrequency": 123.259457,
        "InPlanePhaseEncodingDirection": "COL",
        "MRAcquisitionType": "2D",
        "MagneticFieldStrength": 3.0,
        "Manufacturer": "SIEMENS",
        "ManufacturerModelName": "Prisma_fit",
        "Modality": "MR",
        "NumberOfAverages": 1.0,
        "NumberOfPhaseEncodingSteps": 104,
        "PercentPhaseFieldOfView": 100.0,
        "PercentSampling": 100.0,
        "PerformedProcedureStepStartTime": "095620.166000",
        "PhotometricInterpretation": "MONOCHROME2",
        "PixelBandwidth": 2290.0,
        "PixelRepresentation": 0,
        "PixelSpacing": [
          2.0,
          2.0
        ],
        "ProtocolName": "func_task-wolf8",
        "RepetitionTime": 1490.0,
        "Rows": 832,
        "SAR": 0.03830468811409,
        "SamplesPerPixel": 1,
        "ScanOptions": "FS",
        "ScanningSequence": "EP",
        "SequenceName": "epfid2d1_104",
        "SequenceVariant": [
          "SK",
          "SS"
        ],
        "SeriesDescription": "func_task-wolf8",
        "SeriesNumber": 9,
        "SeriesTime": "103000.224000",
        "SliceLocation": -47.152325382309,
        "SliceThickness": 2.0,
        "SmallestImagePixelValue": 0,
        "SoftwareVersions": "syngo MR E11",
        "SpacingBetweenSlices": 1.9999999715828,
        "SpecificCharacterSet": "ISO_IR 100",
        "StudyID": "1",
        "StudyTime": "095620.006000",
        "TransmitCoilName": "Body",
        "VariableFlipAngleFlag": "N",
        "WindowCenterWidthExplanation": "Algo1",
        "dBdt": 0.0
      },
      "slices": {}
    },
    "modality": "bold",
    "session_id": "004",
    "subject_id": "01",
    "task_id": "wolf08",
    "time": {
      "samples": {
        "AcquisitionNumber": [
          1,
          2,
          3,
          4,
          5,
          6,
          7,
          8,
          9,
          10,
          11,
          12,
          13,
          14,
          15,
          16,
          17,
          18,
          19,
          20,
          21,
          22,
          23,
          24,
          25,
          26,
          27,
          28,
          29,
          30,
          31,
          32,
          33,
          34,
          35,
          36,
          37,
          38,
          39,
          40,
          41,
          42,
          43,
          44,
          45,
          46,
          47,
          48,
          49,
          50,
          51,
          52,
          53,
          54,
          55,
          56,
          57,
          58,
          59,
          60,
          61,
          62,
          63,
          64,
          65,
          66,
          67,
          68,
          69,
          70,
          71,
          72,
          73,
          74,
          75,
          76,
          77,
          78,
          79,
          80,
          81,
          82,
          83,
          84,
          85,
          86,
          87,
          88,
          89,
          90,
          91,
          92,
          93,
          94,
          95,
          96,
          97,
          98,
          99,
          100,
          101,
          102,
          103,
          104,
          105,
          106,
          107,
          108,
          109,
          110,
          111,
          112,
          113,
          114,
          115,
          116,
          117,
          118,
          119,
          120,
          121,
          122,
          123,
          124,
          125,
          126,
          127,
          128,
          129,
          130,
          131,
          132,
          133,
          134,
          135,
          136,
          137,
          138,
          139,
          140,
          141,
          142,
          143,
          144,
          145,
          146,
          147,
          148,
          149,
          150,
          151,
          152,
          153,
          154,
          155,
          156,
          157,
          158,
          159,
          160,
          161,
          162,
          163,
          164,
          165,
          166,
          167,
          168,
          169,
          170,
          171,
          172,
          173,
          174,
          175,
          176,
          177,
          178,
          179,
          180,
          181,
          182,
          183,
          184,
          185,
          186,
          187,
          188,
          189,
          190,
          191,
          192,
          193,
          194,
          195,
          196,
          197,
          198,
          199,
          200,
          201,
          202,
          203,
          204,
          205,
          206,
          207,
          208,
          209,
          210,
          211,
          212,
          213,
          214,
          215,
          216,
          217,
          218,
          219,
          220,
          221,
          222,
          223,
          224,
          225,
          226,
          227,
          228,
          229,
          230,
          231,
          232,
          233,
          234,
          235,
          236,
          237,
          238,
          239,
          240,
          241,
          242,
          243,
          244,
          245,
          246,
          247,
          248,
          249,
          250,
          251,
          252,
          253,
          254,
          255,
          256,
          257,
          258,
          259,
          260,
          261,
          262,
          263,
          264,
          265,
          266,
          267,
          268,
          269,
          270,
          271,
          272,
          273,
          274,
          275,
          276,
          277,
          278,
          279,
          280,
          281,
          282,
          283,
          284,
          285,
          286,
          287,
          288,
          289,
          290,
          291,
          292,
          293,
          294,
          295,
          296,
          297,
          298,
          299,
          300,
          301,
          302,
          303,
          304,
          305,
          306,
          307,
          308,
          309,
          310,
          311,
          312,
          313,
          314,
          315,
          316,
          317,
          318,
          319,
          320,
          321,
          322,
          323,
          324,
          325,
          326,
          327,
          328,
          329,
          330,
          331,
          332,
          333,
          334,
          335,
          336,
          337,
          338,
          339,
          340,
          341,
          342,
          343,
          344,
          345,
          346,
          347,
          348,
          349,
          350,
          351,
          352,
          353,
          354,
          355,
          356,
          357,
          358,
          359,
          360,
          361,
          362,
          363,
          364,
          365,
          366,
          367,
          368,
          369,
          370,
          371,
          372,
          373,
          374,
          375,
          376,
          377,
          378,
          379,
          380,
          381,
          382,
          383,
          384,
          385,
          386,
          387,
          388,
          389,
          390,
          391,
          392,
          393,
          394,
          395,
          396,
          397,
          398,
          399,
          400,
          401,
          402,
          403,
          404,
          405,
          406
        ],
        "AcquisitionTime": [
          "102856.435000",
          "102857.925000",
          "102859.415000",
          "102900.905000",
          "102902.395000",
          "102903.885000",
          "102905.375000",
          "102906.865000",
          "102908.355000",
          "102909.845000",
          "102911.335000",
          "102912.825000",
          "102914.315000",
          "102915.805000",
          "102917.295000",
          "102918.785000",
          "102920.275000",
          "102921.765000",
          "102923.255000",
          "102924.745000",
          "102926.235000",
          "102927.725000",
          "102929.215000",
          "102930.705000",
          "102932.195000",
          "102933.685000",
          "102935.175000",
          "102936.665000",
          "102938.155000",
          "102939.645000",
          "102941.135000",
          "102942.625000",
          "102944.115000",
          "102945.605000",
          "102947.095000",
          "102948.585000",
          "102950.075000",
          "102951.565000",
          "102953.055000",
          "102954.545000",
          "102956.035000",
          "102957.525000",
          "102959.015000",
          "103000.505000",
          "103001.995000",
          "103003.485000",
          "103004.975000",
          "103006.465000",
          "103007.955000",
          "103009.445000",
          "103010.935000",
          "103012.425000",
          "103013.915000",
          "103015.405000",
          "103016.895000",
          "103018.385000",
          "103019.875000",
          "103021.365000",
          "103022.855000",
          "103024.345000",
          "103025.835000",
          "103027.325000",
          "103028.815000",
          "103030.305000",
          "103031.795000",
          "103033.285000",
          "103034.775000",
          "103036.265000",
          "103037.755000",
          "103039.245000",
          "103040.735000",
          "103042.225000",
          "103043.715000",
          "103045.205000",
          "103046.695000",
          "103048.185000",
          "103049.675000",
          "103051.165000",
          "103052.655000",
          "103054.145000",
          "103055.635000",
          "103057.125000",
          "103058.615000",
          "103100.105000",
          "103101.595000",
          "103103.085000",
          "103104.575000",
          "103106.065000",
          "103107.555000",
          "103109.045000",
          "103110.535000",
          "103112.025000",
          "103113.515000",
          "103115.005000",
          "103116.495000",
          "103117.985000",
          "103119.475000",
          "103120.965000",
          "103122.455000",
          "103123.945000",
          "103125.435000",
          "103126.925000",
          "103128.415000",
          "103129.905000",
          "103131.395000",
          "103132.885000",
          "103134.375000",
          "103135.865000",
          "103137.355000",
          "103138.845000",
          "103140.335000",
          "103141.825000",
          "103143.315000",
          "103144.805000",
          "103146.295000",
          "103147.785000",
          "103149.275000",
          "103150.765000",
          "103152.255000",
          "103153.745000",
          "103155.235000",
          "103156.725000",
          "103158.215000",
          "103159.705000",
          "103201.195000",
          "103202.685000",
          "103204.175000",
          "103205.665000",
          "103207.155000",
          "103208.645000",
          "103210.135000",
          "103211.625000",
          "103213.115000",
          "103214.605000",
          "103216.095000",
          "103217.585000",
          "103219.075000",
          "103220.565000",
          "103222.055000",
          "103223.545000",
          "103225.035000",
          "103226.525000",
          "103228.015000",
          "103229.505000",
          "103230.995000",
          "103232.485000",
          "103233.975000",
          "103235.465000",
          "103236.955000",
          "103238.445000",
          "103239.935000",
          "103241.425000",
          "103242.915000",
          "103244.405000",
          "103245.895000",
          "103247.385000",
          "103248.875000",
          "103250.365000",
          "103251.855000",
          "103253.345000",
          "103254.835000",
          "103256.325000",
          "103257.815000",
          "103259.305000",
          "103300.795000",
          "103302.285000",
          "103303.775000",
          "103305.265000",
          "103306.755000",
          "103308.245000",
          "103309.735000",
          "103311.225000",
          "103312.715000",
          "103314.205000",
          "103315.695000",
          "103317.185000",
          "103318.675000",
          "103320.165000",
          "103321.655000",
          "103323.145000",
          "103324.635000",
          "103326.125000",
          "103327.615000",
          "103329.105000",
          "103330.595000",
          "103332.085000",
          "103333.575000",
          "103335.065000",
          "103336.555000",
          "103338.045000",
          "103339.535000",
          "103341.025000",
          "103342.515000",
          "103344.005000",
          "103345.495000",
          "103346.985000",
          "103348.475000",
          "103349.965000",
          "103351.455000",
          "103352.945000",
          "103354.435000",
          "103355.925000",
          "103357.415000",
          "103358.905000",
          "103400.395000",
          "103401.885000",
          "103403.375000",
          "103404.865000",
          "103406.355000",
          "103407.845000",
          "103409.335000",
          "103410.825000",
          "103412.315000",
          "103413.805000",
          "103415.295000",
          "103416.785000",
          "103418.275000",
          "103419.765000",
          "103421.255000",
          "103422.745000",
          "103424.235000",
          "103425.725000",
          "103427.215000",
          "103428.705000",
          "103430.195000",
          "103431.685000",
          "103433.175000",
          "103434.665000",
          "103436.155000",
          "103437.645000",
          "103439.135000",
          "103440.625000",
          "103442.115000",
          "103443.605000",
          "103445.095000",
          "103446.585000",
          "103448.075000",
          "103449.565000",
          "103451.055000",
          "103452.545000",
          "103454.035000",
          "103455.525000",
          "103457.015000",
          "103458.505000",
          "103459.995000",
          "103501.485000",
          "103502.975000",
          "103504.465000",
          "103505.955000",
          "103507.445000",
          "103508.935000",
          "103510.425000",
          "103511.915000",
          "103513.405000",
          "103514.895000",
          "103516.385000",
          "103517.875000",
          "103519.365000",
          "103520.855000",
          "103522.345000",
          "103523.835000",
          "103525.325000",
          "103526.815000",
          "103528.305000",
          "103529.795000",
          "103531.285000",
          "103532.775000",
          "103534.265000",
          "103535.755000",
          "103537.245000",
          "103538.735000",
          "103540.225000",
          "103541.715000",
          "103543.205000",
          "103544.695000",
          "103546.185000",
          "103547.675000",
          "103549.165000",
          "103550.655000",
          "103552.145000",
          "103553.635000",
          "103555.125000",
          "103556.615000",
          "103558.105000",
          "103559.595000",
          "103601.085000",
          "103602.575000",
          "103604.065000",
          "103605.555000",
          "103607.045000",
          "103608.535000",
          "103610.025000",
          "103611.515000",
          "103613.005000",
          "103614.495000",
          "103615.985000",
          "103617.475000",
          "103618.965000",
          "103620.455000",
          "103621.945000",
          "103623.435000",
          "103624.925000",
          "103626.415000",
          "103627.905000",
          "103629.395000",
          "103630.885000",
          "103632.375000",
          "103633.865000",
          "103635.355000",
          "103636.845000",
          "103638.335000",
          "103639.825000",
          "103641.315000",
          "103642.805000",
          "103644.295000",
          "103645.785000",
          "103647.275000",
          "103648.765000",
          "103650.255000",
          "103651.745000",
          "103653.235000",
          "103654.725000",
          "103656.215000",
          "103657.705000",
          "103659.195000",
          "103700.685000",
          "103702.175000",
          "103703.665000",
          "103705.155000",
          "103706.645000",
          "103708.135000",
          "103709.625000",
          "103711.115000",
          "103712.605000",
          "103714.095000",
          "103715.585000",
          "103717.075000",
          "103718.565000",
          "103720.055000",
          "103721.545000",
          "103723.035000",
          "103724.525000",
          "103726.015000",
          "103727.505000",
          "103728.995000",
          "103730.485000",
          "103731.975000",
          "103733.465000",
          "103734.955000",
          "103736.445000",
          "103737.935000",
          "103739.425000",
          "103740.915000",
          "103742.405000",
          "103743.895000",
          "103745.385000",
          "103746.875000",
          "103748.365000",
          "103749.855000",
          "103751.345000",
          "103752.835000",
          "103754.325000",
          "103755.815000",
          "103757.305000",
          "103758.795000",
          "103800.285000",
          "103801.775000",
          "103803.265000",
          "103804.755000",
          "103806.245000",
          "103807.735000",
          "103809.225000",
          "103810.715000",
          "103812.205000",
          "103813.695000",
          "103815.185000",
          "103816.675000",
          "103818.165000",
          "103819.655000",
          "103821.145000",
          "103822.635000",
          "103824.125000",
          "103825.615000",
          "103827.105000",
          "103828.595000",
          "103830.085000",
          "103831.575000",
          "103833.065000",
          "103834.555000",
          "103836.045000",
          "103837.535000",
          "103839.025000",
          "103840.515000",
          "103842.005000",
          "103843.495000",
          "103844.985000",
          "103846.475000",
          "103847.965000",
          "103849.455000",
          "103850.945000",
          "103852.435000",
          "103853.925000",
          "103855.415000",
          "103856.905000",
          "103858.395000",
          "103859.885000"
        ],
        "ContentTime": [
          "103000.227000",
          "103000.230000",
          "103000.233000",
          "103000.236000",
          "103000.238000",
          "103000.241000",
          "103000.244000",
          "103000.247000",
          "103000.250000",
          "103000.253000",
          "103020.193000",
          "103020.196000",
          "103020.199000",
          "103020.202000",
          "103020.205000",
          "103020.207000",
          "103020.210000",
          "103020.213000",
          "103020.216000",
          "103020.219000",
          "103020.222000",
          "103020.225000",
          "103020.235000",
          "103020.237000",
          "103020.240000",
          "103020.243000",
          "103020.252000",
          "103020.255000",
          "103020.258000",
          "103020.261000",
          "103040.193000",
          "103040.203000",
          "103040.206000",
          "103040.209000",
          "103040.211000",
          "103040.214000",
          "103040.217000",
          "103040.220000",
          "103040.223000",
          "103040.226000",
          "103040.229000",
          "103040.232000",
          "103040.235000",
          "103040.238000",
          "103040.241000",
          "103040.244000",
          "103040.246000",
          "103040.249000",
          "103040.252000",
          "103040.255000",
          "103100.194000",
          "103100.197000",
          "103100.200000",
          "103100.203000",
          "103100.206000",
          "103100.208000",
          "103100.219000",
          "103100.221000",
          "103100.224000",
          "103100.227000",
          "103100.230000",
          "103100.233000",
          "103100.236000",
          "103100.239000",
          "103100.242000",
          "103100.245000",
          "103100.248000",
          "103100.251000",
          "103100.254000",
          "103100.257000",
          "103100.259000",
          "103120.193000",
          "103120.196000",
          "103120.199000",
          "103120.202000",
          "103120.204000",
          "103120.207000",
          "103120.210000",
          "103120.213000",
          "103120.216000",
          "103120.219000",
          "103120.222000",
          "103120.224000",
          "103120.227000",
          "103120.230000",
          "103120.233000",
          "103120.236000",
          "103120.238000",
          "103120.241000",
          "103120.247000",
          "103120.249000",
          "103200.193000",
          "103200.196000",
          "103200.199000",
          "103200.202000",
          "103200.205000",
          "103200.208000",
          "103200.211000",
          "103200.214000",
          "103200.217000",
          "103200.219000",
          "103200.222000",
          "103200.225000",
          "103200.228000",
          "103200.231000",
          "103200.234000",
          "103200.237000",
          "103200.239000",
          "103200.242000",
          "103200.245000",
          "103200.248000",
          "103200.256000",
          "103200.259000",
          "103200.262000",
          "103200.264000",
          "103200.267000",
          "103200.270000",
          "103200.273000",
          "103200.276000",
          "103200.279000",
          "103200.282000",
          "103200.285000",
          "103240.193000",
          "103240.196000",
          "103240.199000",
          "103240.202000",
          "103240.205000",
          "103240.208000",
          "103240.211000",
          "103240.214000",
          "103240.217000",
          "103240.219000",
          "103240.222000",
          "103240.225000",
          "103240.228000",
          "103240.231000",
          "103240.234000",
          "103240.237000",
          "103240.240000",
          "103240.242000",
          "103240.245000",
          "103240.248000",
          "103240.251000",
          "103240.254000",
          "103240.257000",
          "103240.260000",
          "103240.262000",
          "103240.265000",
          "103240.268000",
          "103320.194000",
          "103320.197000",
          "103320.200000",
          "103320.203000",
          "103320.206000",
          "103320.209000",
          "103320.211000",
          "103320.214000",
          "103320.217000",
          "103320.220000",
          "103320.223000",
          "103320.226000",
          "103320.229000",
          "103320.231000",
          "103320.234000",
          "103320.246000",
          "103320.249000",
          "103320.251000",
          "103320.254000",
          "103320.257000",
          "103320.260000",
          "103320.263000",
          "103320.266000",
          "103320.269000",
          "103320.278000",
          "103320.281000",
          "103320.284000",
          "103400.193000",
          "103400.196000",
          "103400.203000",
          "103400.205000",
          "103400.208000",
          "103400.211000",
          "103400.214000",
          "103400.217000",
          "103400.220000",
          "103400.222000",
          "103400.225000",
          "103400.228000",
          "103400.231000",
          "103400.241000",
          "103400.244000",
          "103400.247000",
          "103400.250000",
          "103400.253000",
          "103400.256000",
          "103400.272000",
          "103400.275000",
          "103400.278000",
          "103400.281000",
          "103400.284000",
          "103400.287000",
          "103400.290000",
          "103400.293000",
          "103440.193000",
          "103440.205000",
          "103440.208000",
          "103440.211000",
          "103440.214000",
          "103440.217000",
          "103440.220000",
          "103440.223000",
          "103440.226000",
          "103440.229000",
          "103440.232000",
          "103440.235000",
          "103440.238000",
          "103440.241000",
          "103440.243000",
          "103440.246000",
          "103440.249000",
          "103440.252000",
          "103440.255000",
          "103440.258000",
          "103440.261000",
