{
  "aor": 0.0003531527093596059,
  "aqi": 0.0067071681034482755,
  "bids_meta": {
    "AcquisitionMatrixPE": 104,
    "AcquisitionNumber": 1,
    "AcquisitionTime": "10:18:19.960000",
    "BandwidthPerPixelPhaseEncode": 17.17,
    "BaseResolution": 104,
    "BodyPartExamined": "BRAIN",
    "CogAtlasID": "trm_4c898da401420",
    "ConsistencyInfo": "N4_VE11C_LATEST_20160120",
    "ConversionSoftware": "dcm2niix",
    "ConversionSoftwareVersion": "v1.0.20171215 (OpenJPEG build) GCC7.3.0",
    "DerivedVendorReportedEchoSpacing": 0.000560011,
    "DeviceSerialNumber": "167006",
    "DwellTime": 2.1e-06,
    "EchoTime": 0.037,
    "EchoTrainLength": 104,
    "EffectiveEchoSpacing": 0.000560011,
    "FlipAngle": 52,
    "ImageComments": "Unaliased_MB4_PE3_LB",
    "ImageOrientationPatientDICOM": [
      0.993989,
      0.107125,
      0.0225781,
      -0.0986878,
      0.966037,
      -0.238815
    ],
    "ImageType": [
      "ORIGINAL",
      "PRIMARY",
      "M",
      "MB",
      "ND",
      "MOSAIC"
    ],
    "InPlanePhaseEncodingDirectionDICOM": "COL",
    "InstitutionAddress": "Chemin_Queen-Mary_4565_Montreal_District_CA_H3W_1W5",
    "InstitutionName": "IUGM",
    "InstitutionalDepartmentName": "Department",
    "MRAcquisitionType": "2D",
    "MagneticFieldStrength": 3,
    "Manufacturer": "Siemens",
    "ManufacturersModelName": "Prisma_fit",
    "Modality": "MR",
    "MultibandAccelerationFactor": 4,
    "PartialFourier": 1,
    "PatientPosition": "HFS",
    "PercentPhaseFOV": 100,
    "PhaseEncodingDirection": "j-",
    "PhaseEncodingSteps": 104,
    "PhaseResolution": 1,
    "PixelBandwidth": 2290,
    "ProcedureStepDescription": "video5_generic",
    "ProtocolName": "func_task-wolf7",
    "PulseSequenceDetails": "%CustomerSeq%_cmrr_mbep2d_bold",
    "ReceiveCoilActiveElements": "HC1-7;NC1,2",
    "ReceiveCoilName": "HeadNeck_64",
    "ReconMatrixPE": 104,
    "RepetitionTime": 1.49,
    "SAR": 0.0383047,
    "ScanOptions": "FS",
    "ScanningSequence": "EP",
    "SequenceName": "epfid2d1_104",
    "SequenceVariant": "SK_SS",
    "SeriesDescription": "func_task-wolf7",
    "SeriesNumber": 7,
    "ShimSetting": [
      631,
      -7202,
      -8855,
      720,
      98,
      -15,
      -10,
      -19
    ],
    "SliceThickness": 2,
    "SliceTiming": [
      0,
      0.785,
      0.0975,
      0.8825,
      0.195,
      0.98,
      0.295,
      1.0775,
      0.3925,
      1.175,
      0.49,
      1.275,
      0.5875,
      1.3725,
      0.685,
      0,
      0.785,
      0.0975,
      0.8825,
      0.195,
      0.98,
      0.295,
      1.0775,
      0.3925,
      1.175,
      0.49,
      1.275,
      0.5875,
      1.3725,
      0.685,
      0,
      0.785,
      0.0975,
      0.8825,
      0.195,
      0.98,
      0.295,
      1.0775,
      0.3925,
      1.175,
      0.49,
      1.275,
      0.5875,
      1.3725,
      0.685,
      0,
      0.785,
      0.0975,
      0.8825,
      0.195,
      0.98,
      0.295,
      1.0775,
      0.3925,
      1.175,
      0.49,
      1.275,
      0.5875,
      1.3725,
      0.685
    ],
    "SoftwareVersions": "syngo_MR_E11",
    "SpacingBetweenSlices": 2,
    "StationName": "MRC35049",
    "TaskName": "wolf07",
    "TotalReadoutTime": 0.0576811,
    "TxRefAmp": 250.862,
    "dataset": "<unset>",
    "dcmmeta_affine": [
      [
        -1.9879783391952515,
        -0.19737555086612701,
        0.09478862583637238,
        112.99169921875
      ],
      [
        -0.2142496407032013,
        1.9320745468139648,
        -0.47030311822891235,
        -63.158912658691406
      ],
      [
        0.04515617713332176,
        0.4776304364204407,
        1.9416049718856812,
        -69.38528442382812
      ],
      [
        0.0,
        0.0,
        0.0,
        1.0
      ]
    ],
    "dcmmeta_reorient_transform": [
      [
        0.0,
        -1.0,
        0.0,
        103.0
      ],
      [
        1.0,
        0.0,
        0.0,
        0.0
      ],
      [
        0.0,
        0.0,
        1.0,
        0.0
      ],
      [
        0.0,
        0.0,
        0.0,
        1.0
      ]
    ],
    "dcmmeta_shape": [
      104,
      104,
      60,
      406
    ],
    "dcmmeta_slice_dim": 2,
    "dcmmeta_version": 0.6,
    "global": {
      "const": {
        "AcquisitionMatrix": [
          104,
          0,
          0,
          104
        ],
        "AngioFlag": "N",
        "BitsAllocated": 16,
        "BitsStored": 16,
        "BodyPartExamined": "BRAIN",
        "Columns": 832,
        "EchoNumbers": 1,
        "EchoTime": 37.0,
        "EchoTrainLength": 104,
        "FlipAngle": 52.0,
        "HighBit": 15,
        "ImageOrientationPatient": [
          0.99398918644081,
          0.10712482034636,
          0.02257808903561,
          -0.0986877721317,
          0.96603727494534,
          -0.2388152152772
        ],
        "ImagePositionPatient": [
          -744.44144783562,
          -917.10676988365,
          137.23127999977
        ],
        "ImageType": [
          "ORIGINAL",
          "PRIMARY",
          "M",
          "MB",
          "ND",
          "MOSAIC"
        ],
        "ImagedNucleus": "1H",
        "ImagingFrequency": 123.259449,
        "InPlanePhaseEncodingDirection": "COL",
        "MRAcquisitionType": "2D",
        "MagneticFieldStrength": 3.0,
        "Manufacturer": "SIEMENS",
        "ManufacturerModelName": "Prisma_fit",
        "Modality": "MR",
        "NumberOfAverages": 1.0,
        "NumberOfPhaseEncodingSteps": 104,
        "PercentPhaseFieldOfView": 100.0,
        "PercentSampling": 100.0,
        "PerformedProcedureStepStartTime": "095620.166000",
        "PhotometricInterpretation": "MONOCHROME2",
        "PixelBandwidth": 2290.0,
        "PixelRepresentation": 0,
        "PixelSpacing": [
          2.0,
          2.0
        ],
        "ProtocolName": "func_task-wolf7",
        "RepetitionTime": 1490.0,
        "Rows": 832,
        "SAR": 0.03830468811409,
        "SamplesPerPixel": 1,
        "ScanOptions": "FS",
        "ScanningSequence": "EP",
        "SequenceName": "epfid2d1_104",
        "SequenceVariant": [
          "SK",
          "SS"
        ],
        "SeriesDescription": "func_task-wolf7",
        "SeriesNumber": 7,
        "SeriesTime": "101924.011000",
        "SliceLocation": -47.152325382309,
        "SliceThickness": 2.0,
        "SmallestImagePixelValue": 0,
        "SoftwareVersions": "syngo MR E11",
        "SpacingBetweenSlices": 1.9999999715828,
        "SpecificCharacterSet": "ISO_IR 100",
        "StudyID": "1",
        "StudyTime": "095620.006000",
        "TransmitCoilName": "Body",
        "VariableFlipAngleFlag": "N",
        "WindowCenterWidthExplanation": "Algo1",
        "dBdt": 0.0
      },
      "slices": {}
    },
    "modality": "bold",
    "session_id": "004",
    "subject_id": "01",
    "task_id": "wolf07",
    "time": {
      "samples": {
        "AcquisitionNumber": [
          1,
          2,
          3,
          4,
          5,
          6,
          7,
          8,
          9,
          10,
          11,
          12,
          13,
          14,
          15,
          16,
          17,
          18,
          19,
          20,
          21,
          22,
          23,
          24,
          25,
          26,
          27,
          28,
          29,
          30,
          31,
          32,
          33,
          34,
          35,
          36,
          37,
          38,
          39,
          40,
          41,
          42,
          43,
          44,
          45,
          46,
          47,
          48,
          49,
          50,
          51,
          52,
          53,
          54,
          55,
          56,
          57,
          58,
          59,
          60,
          61,
          62,
          63,
          64,
          65,
          66,
          67,
          68,
          69,
          70,
          71,
          72,
          73,
          74,
          75,
          76,
          77,
          78,
          79,
          80,
          81,
          82,
          83,
          84,
          85,
          86,
          87,
          88,
          89,
          90,
          91,
          92,
          93,
          94,
          95,
          96,
          97,
          98,
          99,
          100,
          101,
          102,
          103,
          104,
          105,
          106,
          107,
          108,
          109,
          110,
          111,
          112,
          113,
          114,
          115,
          116,
          117,
          118,
          119,
          120,
          121,
          122,
          123,
          124,
          125,
          126,
          127,
          128,
          129,
          130,
          131,
          132,
          133,
          134,
          135,
          136,
          137,
          138,
          139,
          140,
          141,
          142,
          143,
          144,
          145,
          146,
          147,
          148,
          149,
          150,
          151,
          152,
          153,
          154,
          155,
          156,
          157,
          158,
          159,
          160,
          161,
          162,
          163,
          164,
          165,
          166,
          167,
          168,
          169,
          170,
          171,
          172,
          173,
          174,
          175,
          176,
          177,
          178,
          179,
          180,
          181,
          182,
          183,
          184,
          185,
          186,
          187,
          188,
          189,
          190,
          191,
          192,
          193,
          194,
          195,
          196,
          197,
          198,
          199,
          200,
          201,
          202,
          203,
          204,
          205,
          206,
          207,
          208,
          209,
          210,
          211,
          212,
          213,
          214,
          215,
          216,
          217,
          218,
          219,
          220,
          221,
          222,
          223,
          224,
          225,
          226,
          227,
          228,
          229,
          230,
          231,
          232,
          233,
          234,
          235,
          236,
          237,
          238,
          239,
          240,
          241,
          242,
          243,
          244,
          245,
          246,
          247,
          248,
          249,
          250,
          251,
          252,
          253,
          254,
          255,
          256,
          257,
          258,
          259,
          260,
          261,
          262,
          263,
          264,
          265,
          266,
          267,
          268,
          269,
          270,
          271,
          272,
          273,
          274,
          275,
          276,
          277,
          278,
          279,
          280,
          281,
          282,
          283,
          284,
          285,
          286,
          287,
          288,
          289,
          290,
          291,
          292,
          293,
          294,
          295,
          296,
          297,
          298,
          299,
          300,
          301,
          302,
          303,
          304,
          305,
          306,
          307,
          308,
          309,
          310,
          311,
          312,
          313,
          314,
          315,
          316,
          317,
          318,
          319,
          320,
          321,
          322,
          323,
          324,
          325,
          326,
          327,
          328,
          329,
          330,
          331,
          332,
          333,
          334,
          335,
          336,
          337,
          338,
          339,
          340,
          341,
          342,
          343,
          344,
          345,
          346,
          347,
          348,
          349,
          350,
          351,
          352,
          353,
          354,
          355,
          356,
          357,
          358,
          359,
          360,
          361,
          362,
          363,
          364,
          365,
          366,
          367,
          368,
          369,
          370,
          371,
          372,
          373,
          374,
          375,
          376,
          377,
          378,
          379,
          380,
          381,
          382,
          383,
          384,
          385,
          386,
          387,
          388,
          389,
          390,
          391,
          392,
          393,
          394,
          395,
          396,
          397,
          398,
          399,
          400,
          401,
          402,
          403,
          404,
          405,
          406
        ],
        "AcquisitionTime": [
          "101819.960000",
          "101821.450000",
          "101822.940000",
          "101824.430000",
          "101825.920000",
          "101827.410000",
          "101828.900000",
          "101830.390000",
          "101831.880000",
          "101833.370000",
          "101834.860000",
          "101836.350000",
          "101837.840000",
          "101839.330000",
          "101840.820000",
          "101842.310000",
          "101843.800000",
          "101845.290000",
          "101846.780000",
          "101848.270000",
          "101849.760000",
          "101851.250000",
          "101852.740000",
          "101854.230000",
          "101855.720000",
          "101857.210000",
          "101858.700000",
          "101900.190000",
          "101901.680000",
          "101903.170000",
          "101904.660000",
          "101906.150000",
          "101907.640000",
          "101909.130000",
          "101910.620000",
          "101912.110000",
          "101913.600000",
          "101915.090000",
          "101916.580000",
          "101918.070000",
          "101919.560000",
          "101921.050000",
          "101922.540000",
          "101924.030000",
          "101925.520000",
          "101927.010000",
          "101928.500000",
          "101929.990000",
          "101931.480000",
          "101932.970000",
          "101934.460000",
          "101935.950000",
          "101937.440000",
          "101938.930000",
          "101940.420000",
          "101941.910000",
          "101943.400000",
          "101944.890000",
          "101946.380000",
          "101947.870000",
          "101949.360000",
          "101950.850000",
          "101952.340000",
          "101953.830000",
          "101955.320000",
          "101956.810000",
          "101958.300000",
          "101959.790000",
          "102001.280000",
          "102002.770000",
          "102004.260000",
          "102005.750000",
          "102007.240000",
          "102008.730000",
          "102010.220000",
          "102011.710000",
          "102013.200000",
          "102014.690000",
          "102016.180000",
          "102017.670000",
          "102019.160000",
          "102020.650000",
          "102022.140000",
          "102023.630000",
          "102025.120000",
          "102026.610000",
          "102028.100000",
          "102029.590000",
          "102031.080000",
          "102032.570000",
          "102034.060000",
          "102035.550000",
          "102037.040000",
          "102038.530000",
          "102040.020000",
          "102041.510000",
          "102043.000000",
          "102044.490000",
          "102045.980000",
          "102047.470000",
          "102048.960000",
          "102050.450000",
          "102051.940000",
          "102053.430000",
          "102054.920000",
          "102056.410000",
          "102057.900000",
          "102059.390000",
          "102100.880000",
          "102102.370000",
          "102103.860000",
          "102105.350000",
          "102106.840000",
          "102108.330000",
          "102109.820000",
          "102111.310000",
          "102112.800000",
          "102114.290000",
          "102115.780000",
          "102117.270000",
          "102118.760000",
          "102120.250000",
          "102121.740000",
          "102123.230000",
          "102124.720000",
          "102126.210000",
          "102127.700000",
          "102129.190000",
          "102130.680000",
          "102132.170000",
          "102133.660000",
          "102135.150000",
          "102136.640000",
          "102138.130000",
          "102139.620000",
          "102141.110000",
          "102142.600000",
          "102144.090000",
          "102145.580000",
          "102147.070000",
          "102148.560000",
          "102150.050000",
          "102151.540000",
          "102153.030000",
          "102154.520000",
          "102156.010000",
          "102157.500000",
          "102158.990000",
          "102200.480000",
          "102201.970000",
          "102203.460000",
          "102204.950000",
          "102206.440000",
          "102207.930000",
          "102209.420000",
          "102210.910000",
          "102212.400000",
          "102213.890000",
          "102215.380000",
          "102216.870000",
          "102218.360000",
          "102219.850000",
          "102221.340000",
          "102222.830000",
          "102224.320000",
          "102225.810000",
          "102227.300000",
          "102228.790000",
          "102230.280000",
          "102231.770000",
          "102233.260000",
          "102234.750000",
          "102236.240000",
          "102237.730000",
          "102239.220000",
          "102240.710000",
          "102242.200000",
          "102243.690000",
          "102245.180000",
          "102246.670000",
          "102248.160000",
          "102249.650000",
          "102251.140000",
          "102252.630000",
          "102254.120000",
          "102255.610000",
          "102257.100000",
          "102258.590000",
          "102300.080000",
          "102301.570000",
          "102303.060000",
          "102304.550000",
          "102306.040000",
          "102307.530000",
          "102309.020000",
          "102310.510000",
          "102312.000000",
          "102313.490000",
          "102314.980000",
          "102316.470000",
          "102317.960000",
          "102319.450000",
          "102320.940000",
          "102322.430000",
          "102323.920000",
          "102325.410000",
          "102326.900000",
          "102328.390000",
          "102329.880000",
          "102331.370000",
          "102332.860000",
          "102334.350000",
          "102335.840000",
          "102337.330000",
          "102338.820000",
          "102340.310000",
          "102341.800000",
          "102343.290000",
          "102344.780000",
          "102346.270000",
          "102347.760000",
          "102349.250000",
          "102350.740000",
          "102352.230000",
          "102353.720000",
          "102355.210000",
          "102356.700000",
          "102358.190000",
          "102359.680000",
          "102401.170000",
          "102402.660000",
          "102404.150000",
          "102405.640000",
          "102407.130000",
          "102408.620000",
          "102410.110000",
          "102411.600000",
          "102413.090000",
          "102414.580000",
          "102416.070000",
          "102417.560000",
          "102419.050000",
          "102420.540000",
          "102422.030000",
          "102423.520000",
          "102425.010000",
          "102426.500000",
          "102427.990000",
          "102429.480000",
          "102430.970000",
          "102432.460000",
          "102433.950000",
          "102435.440000",
          "102436.930000",
          "102438.420000",
          "102439.910000",
          "102441.400000",
          "102442.890000",
          "102444.380000",
          "102445.870000",
          "102447.360000",
          "102448.850000",
          "102450.340000",
          "102451.830000",
          "102453.320000",
          "102454.810000",
          "102456.300000",
          "102457.790000",
          "102459.280000",
          "102500.770000",
          "102502.260000",
          "102503.750000",
          "102505.240000",
          "102506.730000",
          "102508.220000",
          "102509.710000",
          "102511.200000",
          "102512.690000",
          "102514.180000",
          "102515.670000",
          "102517.160000",
          "102518.650000",
          "102520.140000",
          "102521.630000",
          "102523.120000",
          "102524.610000",
          "102526.100000",
          "102527.590000",
          "102529.080000",
          "102530.570000",
          "102532.060000",
          "102533.550000",
          "102535.040000",
          "102536.530000",
          "102538.020000",
          "102539.510000",
          "102541.000000",
          "102542.490000",
          "102543.980000",
          "102545.470000",
          "102546.960000",
          "102548.450000",
          "102549.940000",
          "102551.430000",
          "102552.920000",
          "102554.410000",
          "102555.900000",
          "102557.390000",
          "102558.880000",
          "102600.370000",
          "102601.860000",
          "102603.350000",
          "102604.840000",
          "102606.330000",
          "102607.820000",
          "102609.310000",
          "102610.800000",
          "102612.290000",
          "102613.780000",
          "102615.270000",
          "102616.760000",
          "102618.250000",
          "102619.740000",
          "102621.230000",
          "102622.720000",
          "102624.210000",
          "102625.700000",
          "102627.190000",
          "102628.680000",
          "102630.170000",
          "102631.660000",
          "102633.150000",
          "102634.640000",
          "102636.130000",
          "102637.620000",
          "102639.110000",
          "102640.600000",
          "102642.090000",
          "102643.580000",
          "102645.070000",
          "102646.560000",
          "102648.050000",
          "102649.540000",
          "102651.030000",
          "102652.520000",
          "102654.010000",
          "102655.500000",
          "102656.990000",
          "102658.480000",
          "102659.970000",
          "102701.460000",
          "102702.950000",
          "102704.440000",
          "102705.930000",
          "102707.420000",
          "102708.910000",
          "102710.400000",
          "102711.890000",
          "102713.380000",
          "102714.870000",
          "102716.360000",
          "102717.850000",
          "102719.340000",
          "102720.830000",
          "102722.320000",
          "102723.810000",
          "102725.300000",
          "102726.790000",
          "102728.280000",
          "102729.770000",
          "102731.260000",
          "102732.750000",
          "102734.240000",
          "102735.730000",
          "102737.220000",
          "102738.710000",
          "102740.200000",
          "102741.690000",
          "102743.180000",
          "102744.670000",
          "102746.160000",
          "102747.650000",
          "102749.140000",
          "102750.630000",
          "102752.120000",
          "102753.610000",
          "102755.100000",
          "102756.590000",
          "102758.080000",
          "102759.570000",
          "102801.060000",
          "102802.550000",
          "102804.040000",
          "102805.530000",
          "102807.020000",
          "102808.510000",
          "102810.000000",
          "102811.490000",
          "102812.980000",
          "102814.470000",
          "102815.960000",
          "102817.450000",
          "102818.940000",
          "102820.430000",
          "102821.920000",
          "102823.410000"
        ],
        "ContentTime": [
          "101924.014000",
          "101924.017000",
          "101924.020000",
          "101924.023000",
          "101924.025000",
          "101924.039000",
          "101924.042000",
          "101924.045000",
          "101943.976000",
          "101943.979000",
          "101943.982000",
          "101943.985000",
          "101943.987000",
          "101943.990000",
          "101943.993000",
          "101943.996000",
          "101944.000000",
          "101944.003000",
          "101944.006000",
          "101944.008000",
          "101944.011000",
          "101944.014000",
          "101944.017000",
          "101944.020000",
          "101944.032000",
          "101944.035000",
          "101944.038000",
          "101944.041000",
          "102003.976000",
          "102003.979000",
          "102003.982000",
          "102003.985000",
          "102003.990000",
          "102003.993000",
          "102003.996000",
          "102003.999000",
          "102004.002000",
          "102004.005000",
          "102004.021000",
          "102004.024000",
          "102004.027000",
          "102004.030000",
          "102004.033000",
          "102004.036000",
          "102004.038000",
          "102004.041000",
          "102004.044000",
          "102004.047000",
          "102004.050000",
          "102023.976000",
          "102023.979000",
          "102023.982000",
          "102023.984000",
          "102023.987000",
          "102023.990000",
          "102023.993000",
          "102023.996000",
          "102024.000000",
          "102024.003000",
          "102024.006000",
          "102024.008000",
          "102024.011000",
          "102024.021000",
          "102024.023000",
          "102024.026000",
          "102024.029000",
          "102024.032000",
          "102024.035000",
          "102024.038000",
          "102043.976000",
          "102043.979000",
          "102043.982000",
          "102043.984000",
          "102043.987000",
          "102043.990000",
          "102043.993000",
          "102043.996000",
          "102044.000000",
          "102044.003000",
          "102044.006000",
          "102044.008000",
          "102044.011000",
          "102044.014000",
          "102044.024000",
          "102044.027000",
          "102044.029000",
          "102044.032000",
          "102044.035000",
          "102044.038000",
          "102103.977000",
          "102103.980000",
          "102103.983000",
          "102103.985000",
          "102103.988000",
          "102103.991000",
          "102103.994000",
          "102103.997000",
          "102104.000000",
          "102104.003000",
          "102104.006000",
          "102104.008000",
          "102104.011000",
          "102104.014000",
          "102104.017000",
          "102104.020000",
          "102104.023000",
          "102104.026000",
          "102104.028000",
          "102104.031000",
          "102143.977000",
          "102143.980000",
          "102143.983000",
          "102143.986000",
          "102143.989000",
          "102144.002000",
          "102144.004000",
          "102144.007000",
          "102144.010000",
          "102144.013000",
          "102144.016000",
          "102144.019000",
          "102144.030000",
          "102144.032000",
          "102144.035000",
          "102144.038000",
          "102144.041000",
          "102144.044000",
          "102144.047000",
          "102144.049000",
          "102144.052000",
          "102144.055000",
          "102144.058000",
          "102144.061000",
          "102144.064000",
          "102144.067000",
          "102144.070000",
          "102223.976000",
          "102223.979000",
          "102223.982000",
          "102223.985000",
          "102223.987000",
          "102223.990000",
          "102223.993000",
          "102223.996000",
          "102224.000000",
          "102224.003000",
          "102224.006000",
          "102224.009000",
          "102224.012000",
          "102224.015000",
          "102224.017000",
          "102224.028000",
          "102224.031000",
          "102224.034000",
          "102224.037000",
          "102224.039000",
          "102224.042000",
          "102224.045000",
          "102224.048000",
          "102224.051000",
          "102224.054000",
          "102224.057000",
          "102224.059000",
          "102303.976000",
          "102303.979000",
          "102303.982000",
          "102303.985000",
          "102303.988000",
          "102303.991000",
          "102303.994000",
          "102303.996000",
          "102304.000000",
          "102304.003000",
          "102304.006000",
          "102304.009000",
          "102304.012000",
          "102304.015000",
          "102304.018000",
          "102304.021000",
          "102304.032000",
          "102304.035000",
          "102304.038000",
          "102304.041000",
          "102304.043000",
          "102304.046000",
          "102304.049000",
          "102304.052000",
          "102304.055000",
          "102304.058000",
          "102304.061000",
          "102343.977000",
          "102343.980000",
          "102343.983000",
          "102343.986000",
          "102343.989000",
          "102343.992000",
          "102343.995000",
          "102343.998000",
          "102344.002000",
          "102344.005000",
          "102344.007000",
          "102344.011000",
          "102344.021000",
          "102344.024000",
          "102344.027000",
          "102344.029000",
          "102344.032000",
          "102344.035000",
          "102344.038000",
          "102344.041000",
          "102344.044000",
          "102344.047000",
          "102344.050000",
          "102344.053000",
          "102344.055000",
          "102344.058000",
          "102344.061000",
          "102423.976000",
          "102423.980000",
          "102423.983000",
          "102423.986000",
          "102423.990000",
          "102423.993000",
          "102423.997000",
