{
  "aor": 0.00031507389162561587,
  "aqi": 0.006760080295566502,
  "bids_meta": {
    "AcquisitionMatrixPE": 104,
    "AcquisitionNumber": 1,
    "AcquisitionTime": "12:13:3.637500",
    "BandwidthPerPixelPhaseEncode": 17.17,
    "BaseResolution": 104,
    "BodyPartExamined": "BRAIN",
    "CogAtlasID": "trm_4c898da401420",
    "ConsistencyInfo": "N4_VE11C_LATEST_20160120",
    "ConversionSoftware": "dcm2niix",
    "ConversionSoftwareVersion": "v1.0.20171215 (OpenJPEG build) GCC7.3.0",
    "DerivedVendorReportedEchoSpacing": 0.000560011,
    "DeviceSerialNumber": "167006",
    "DwellTime": 2.1e-06,
    "EchoTime": 0.037,
    "EchoTrainLength": 104,
    "EffectiveEchoSpacing": 0.000560011,
    "FlipAngle": 52,
    "ImageComments": "Unaliased_MB4_PE3_LB",
    "ImageOrientationPatientDICOM": [
      0.995542,
      0.0943153,
      -0.000503035,
      -0.0911271,
      0.960487,
      -0.262986
    ],
    "ImageType": [
      "ORIGINAL",
      "PRIMARY",
      "M",
      "MB",
      "ND",
      "MOSAIC"
    ],
    "InPlanePhaseEncodingDirectionDICOM": "COL",
    "InstitutionAddress": "Chemin_Queen-Mary_4565_Montreal_District_CA_H3W_1W5",
    "InstitutionName": "IUGM",
    "InstitutionalDepartmentName": "Department",
    "MRAcquisitionType": "2D",
    "MagneticFieldStrength": 3,
    "Manufacturer": "Siemens",
    "ManufacturersModelName": "Prisma_fit",
    "Modality": "MR",
    "MultibandAccelerationFactor": 4,
    "PartialFourier": 1,
    "PatientPosition": "HFS",
    "PercentPhaseFOV": 100,
    "PhaseEncodingDirection": "j-",
    "PhaseEncodingSteps": 104,
    "PhaseResolution": 1,
    "PixelBandwidth": 2290,
    "ProcedureStepDescription": "video5_generic",
    "ProtocolName": "func_task-wolf15",
    "PulseSequenceDetails": "%CustomerSeq%_cmrr_mbep2d_bold",
    "ReceiveCoilActiveElements": "HC1-7;NC1,2",
    "ReceiveCoilName": "HeadNeck_64",
    "ReconMatrixPE": 104,
    "RepetitionTime": 1.49,
    "SAR": 0.0390392,
    "ScanOptions": "FS",
    "ScanningSequence": "EP",
    "SequenceName": "epfid2d1_104",
    "SequenceVariant": "SK_SS",
    "SeriesDescription": "func_task-wolf15",
    "SeriesNumber": 11,
    "ShimSetting": [
      625,
      -7191,
      -8837,
      713,
      93,
      37,
      17,
      -26
    ],
    "SliceThickness": 2,
    "SliceTiming": [
      0,
      0.7825,
      0.0975,
      0.8825,
      0.195,
      0.98,
      0.2925,
      1.0775,
      0.3925,
      1.175,
      0.49,
      1.2725,
      0.5875,
      1.3725,
      0.685,
      0,
      0.7825,
      0.0975,
      0.8825,
      0.195,
      0.98,
      0.2925,
      1.0775,
      0.3925,
      1.175,
      0.49,
      1.2725,
      0.5875,
      1.3725,
      0.685,
      0,
      0.7825,
      0.0975,
      0.8825,
      0.195,
      0.98,
      0.2925,
      1.0775,
      0.3925,
      1.175,
      0.49,
      1.2725,
      0.5875,
      1.3725,
      0.685,
      0,
      0.7825,
      0.0975,
      0.8825,
      0.195,
      0.98,
      0.2925,
      1.0775,
      0.3925,
      1.175,
      0.49,
      1.2725,
      0.5875,
      1.3725,
      0.685
    ],
    "SoftwareVersions": "syngo_MR_E11",
    "SpacingBetweenSlices": 2,
    "StationName": "MRC35049",
    "TaskName": "wolf15",
    "TotalReadoutTime": 0.0576811,
    "TxRefAmp": 251.38,
    "dataset": "<unset>",
    "dcmmeta_affine": [
      [
        -1.9910844564437866,
        -0.18225418031215668,
        0.04864082112908363,
        113.19234466552734
      ],
      [
        -0.188630610704422,
        1.9209730625152588,
        -0.5237182974815369,
        -62.72003936767578
      ],
      [
        -0.0010060692438855767,
        0.5259712338447571,
        1.9295992851257324,
        -63.348751068115234
      ],
      [
        0.0,
        0.0,
        0.0,
        1.0
      ]
    ],
    "dcmmeta_reorient_transform": [
      [
        0.0,
        -1.0,
        0.0,
        103.0
      ],
      [
        1.0,
        0.0,
        0.0,
        0.0
      ],
      [
        0.0,
        0.0,
        1.0,
        0.0
      ],
      [
        0.0,
        0.0,
        0.0,
        1.0
      ]
    ],
    "dcmmeta_shape": [
      104,
      104,
      60,
      406
    ],
    "dcmmeta_slice_dim": 2,
    "dcmmeta_version": 0.6,
    "global": {
      "const": {
        "AcquisitionMatrix": [
          104,
          0,
          0,
          104
        ],
        "AngioFlag": "N",
        "BitsAllocated": 16,
        "BitsStored": 16,
        "BodyPartExamined": "BRAIN",
        "Columns": 832,
        "EchoNumbers": 1,
        "EchoTime": 37.0,
        "EchoTrainLength": 104,
        "FlipAngle": 52.0,
        "HighBit": 15,
        "ImageOrientationPatient": [
          0.9955422495519,
          0.09431530264649,
          -0.0005030346395,
          -0.0911270923639,
          0.96048654995243,
          -0.2629856277399
        ],
        "ImagePositionPatient": [
          -752.83439570185,
          -903.03593726074,
          182.64603282849
        ],
        "ImageType": [
          "ORIGINAL",
          "PRIMARY",
          "M",
          "MB",
          "ND",
          "MOSAIC"
        ],
        "ImagedNucleus": "1H",
        "ImagingFrequency": 123.259461,
        "InPlanePhaseEncodingDirection": "COL",
        "MRAcquisitionType": "2D",
        "MagneticFieldStrength": 3.0,
        "Manufacturer": "SIEMENS",
        "ManufacturerModelName": "Prisma_fit",
        "Modality": "MR",
        "NumberOfAverages": 1.0,
        "NumberOfPhaseEncodingSteps": 104,
        "PercentPhaseFieldOfView": 100.0,
        "PercentSampling": 100.0,
        "PerformedProcedureStepStartTime": "113620.541000",
        "PhotometricInterpretation": "MONOCHROME2",
        "PixelBandwidth": 2290.0,
        "PixelRepresentation": 0,
        "PixelSpacing": [
          2.0,
          2.0
        ],
        "ProtocolName": "func_task-wolf15",
        "RepetitionTime": 1490.0,
        "Rows": 832,
        "SAR": 0.03903917385065,
        "SamplesPerPixel": 1,
        "ScanOptions": "FS",
        "ScanningSequence": "EP",
        "SequenceName": "epfid2d1_104",
        "SequenceVariant": [
          "SK",
          "SS"
        ],
        "SeriesDescription": "func_task-wolf15",
        "SeriesNumber": 11,
        "SeriesTime": "121421.656000",
        "SliceLocation": -41.942152084994,
        "SliceThickness": 2.0,
        "SmallestImagePixelValue": 0,
        "SoftwareVersions": "syngo MR E11",
        "SpacingBetweenSlices": 2.0000000017438,
        "SpecificCharacterSet": "ISO_IR 100",
        "StudyID": "1",
        "StudyTime": "113620.479000",
        "TransmitCoilName": "Body",
        "VariableFlipAngleFlag": "N",
        "WindowCenterWidthExplanation": "Algo1",
        "dBdt": 0.0
      },
      "slices": {}
    },
    "modality": "bold",
    "session_id": "005",
    "subject_id": "01",
    "task_id": "wolf15",
    "time": {
      "samples": {
        "AcquisitionNumber": [
          1,
          2,
          3,
          4,
          5,
          6,
          7,
          8,
          9,
          10,
          11,
          12,
          13,
          14,
          15,
          16,
          17,
          18,
          19,
          20,
          21,
          22,
          23,
          24,
          25,
          26,
          27,
          28,
          29,
          30,
          31,
          32,
          33,
          34,
          35,
          36,
          37,
          38,
          39,
          40,
          41,
          42,
          43,
          44,
          45,
          46,
          47,
          48,
          49,
          50,
          51,
          52,
          53,
          54,
          55,
          56,
          57,
          58,
          59,
          60,
          61,
          62,
          63,
          64,
          65,
          66,
          67,
          68,
          69,
          70,
          71,
          72,
          73,
          74,
          75,
          76,
          77,
          78,
          79,
          80,
          81,
          82,
          83,
          84,
          85,
          86,
          87,
          88,
          89,
          90,
          91,
          92,
          93,
          94,
          95,
          96,
          97,
          98,
          99,
          100,
          101,
          102,
          103,
          104,
          105,
          106,
          107,
          108,
          109,
          110,
          111,
          112,
          113,
          114,
          115,
          116,
          117,
          118,
          119,
          120,
          121,
          122,
          123,
          124,
          125,
          126,
          127,
          128,
          129,
          130,
          131,
          132,
          133,
          134,
          135,
          136,
          137,
          138,
          139,
          140,
          141,
          142,
          143,
          144,
          145,
          146,
          147,
          148,
          149,
          150,
          151,
          152,
          153,
          154,
          155,
          156,
          157,
          158,
          159,
          160,
          161,
          162,
          163,
          164,
          165,
          166,
          167,
          168,
          169,
          170,
          171,
          172,
          173,
          174,
          175,
          176,
          177,
          178,
          179,
          180,
          181,
          182,
          183,
          184,
          185,
          186,
          187,
          188,
          189,
          190,
          191,
          192,
          193,
          194,
          195,
          196,
          197,
          198,
          199,
          200,
          201,
          202,
          203,
          204,
          205,
          206,
          207,
          208,
          209,
          210,
          211,
          212,
          213,
          214,
          215,
          216,
          217,
          218,
          219,
          220,
          221,
          222,
          223,
          224,
          225,
          226,
          227,
          228,
          229,
          230,
          231,
          232,
          233,
          234,
          235,
          236,
          237,
          238,
          239,
          240,
          241,
          242,
          243,
          244,
          245,
          246,
          247,
          248,
          249,
          250,
          251,
          252,
          253,
          254,
          255,
          256,
          257,
          258,
          259,
          260,
          261,
          262,
          263,
          264,
          265,
          266,
          267,
          268,
          269,
          270,
          271,
          272,
          273,
          274,
          275,
          276,
          277,
          278,
          279,
          280,
          281,
          282,
          283,
          284,
          285,
          286,
          287,
          288,
          289,
          290,
          291,
          292,
          293,
          294,
          295,
          296,
          297,
          298,
          299,
          300,
          301,
          302,
          303,
          304,
          305,
          306,
          307,
          308,
          309,
          310,
          311,
          312,
          313,
          314,
          315,
          316,
          317,
          318,
          319,
          320,
          321,
          322,
          323,
          324,
          325,
          326,
          327,
          328,
          329,
          330,
          331,
          332,
          333,
          334,
          335,
          336,
          337,
          338,
          339,
          340,
          341,
          342,
          343,
          344,
          345,
          346,
          347,
          348,
          349,
          350,
          351,
          352,
          353,
          354,
          355,
          356,
          357,
          358,
          359,
          360,
          361,
          362,
          363,
          364,
          365,
          366,
          367,
          368,
          369,
          370,
          371,
          372,
          373,
          374,
          375,
          376,
          377,
          378,
          379,
          380,
          381,
          382,
          383,
          384,
          385,
          386,
          387,
          388,
          389,
          390,
          391,
          392,
          393,
          394,
          395,
          396,
          397,
          398,
          399,
          400,
          401,
          402,
          403,
          404,
          405,
          406
        ],
        "AcquisitionTime": [
          "121303.637500",
          "121305.127500",
          "121306.617500",
          "121308.107500",
          "121309.597500",
          "121311.087500",
          "121312.577500",
          "121314.067500",
          "121315.557500",
          "121317.047500",
          "121318.537500",
          "121320.027500",
          "121321.517500",
          "121323.007500",
          "121324.497500",
          "121325.987500",
          "121327.477500",
          "121328.967500",
          "121330.457500",
          "121331.947500",
          "121333.437500",
          "121334.927500",
          "121336.417500",
          "121337.907500",
          "121339.397500",
          "121340.887500",
          "121342.377500",
          "121343.867500",
          "121345.357500",
          "121346.847500",
          "121348.337500",
          "121349.827500",
          "121351.317500",
          "121352.807500",
          "121354.297500",
          "121355.787500",
          "121357.277500",
          "121358.767500",
          "121400.257500",
          "121401.747500",
          "121403.237500",
          "121404.727500",
          "121406.217500",
          "121407.707500",
          "121409.197500",
          "121410.687500",
          "121412.177500",
          "121413.667500",
          "121415.157500",
          "121416.647500",
          "121418.137500",
          "121419.627500",
          "121421.117500",
          "121422.607500",
          "121424.097500",
          "121425.587500",
          "121427.077500",
          "121428.567500",
          "121430.057500",
          "121431.547500",
          "121433.037500",
          "121434.527500",
          "121436.017500",
          "121437.507500",
          "121438.997500",
          "121440.487500",
          "121441.977500",
          "121443.467500",
          "121444.957500",
          "121446.447500",
          "121447.937500",
          "121449.427500",
          "121450.917500",
          "121452.407500",
          "121453.897500",
          "121455.387500",
          "121456.877500",
          "121458.367500",
          "121459.857500",
          "121501.347500",
          "121502.837500",
          "121504.327500",
          "121505.817500",
          "121507.307500",
          "121508.797500",
          "121510.287500",
          "121511.777500",
          "121513.267500",
          "121514.757500",
          "121516.247500",
          "121517.737500",
          "121519.227500",
          "121520.717500",
          "121522.207500",
          "121523.697500",
          "121525.187500",
          "121526.677500",
          "121528.167500",
          "121529.657500",
          "121531.147500",
          "121532.637500",
          "121534.127500",
          "121535.617500",
          "121537.107500",
          "121538.597500",
          "121540.087500",
          "121541.577500",
          "121543.067500",
          "121544.557500",
          "121546.047500",
          "121547.537500",
          "121549.027500",
          "121550.517500",
          "121552.007500",
          "121553.497500",
          "121554.987500",
          "121556.477500",
          "121557.967500",
          "121559.457500",
          "121600.947500",
          "121602.437500",
          "121603.927500",
          "121605.417500",
          "121606.907500",
          "121608.397500",
          "121609.887500",
          "121611.377500",
          "121612.867500",
          "121614.357500",
          "121615.847500",
          "121617.337500",
          "121618.827500",
          "121620.317500",
          "121621.807500",
          "121623.297500",
          "121624.787500",
          "121626.277500",
          "121627.767500",
          "121629.257500",
          "121630.747500",
          "121632.237500",
          "121633.727500",
          "121635.217500",
          "121636.707500",
          "121638.197500",
          "121639.687500",
          "121641.177500",
          "121642.667500",
          "121644.157500",
          "121645.647500",
          "121647.137500",
          "121648.627500",
          "121650.117500",
          "121651.607500",
          "121653.097500",
          "121654.587500",
          "121656.077500",
          "121657.567500",
          "121659.057500",
          "121700.547500",
          "121702.037500",
          "121703.527500",
          "121705.017500",
          "121706.507500",
          "121707.997500",
          "121709.487500",
          "121710.977500",
          "121712.467500",
          "121713.957500",
          "121715.447500",
          "121716.937500",
          "121718.427500",
          "121719.917500",
          "121721.407500",
          "121722.897500",
          "121724.387500",
          "121725.877500",
          "121727.367500",
          "121728.857500",
          "121730.347500",
          "121731.837500",
          "121733.327500",
          "121734.817500",
          "121736.307500",
          "121737.797500",
          "121739.287500",
          "121740.777500",
          "121742.267500",
          "121743.757500",
          "121745.247500",
          "121746.737500",
          "121748.227500",
          "121749.717500",
          "121751.207500",
          "121752.697500",
          "121754.187500",
          "121755.677500",
          "121757.167500",
          "121758.657500",
          "121800.147500",
          "121801.637500",
          "121803.127500",
          "121804.617500",
          "121806.107500",
          "121807.597500",
          "121809.087500",
          "121810.577500",
          "121812.067500",
          "121813.557500",
          "121815.047500",
          "121816.537500",
          "121818.027500",
          "121819.517500",
          "121821.007500",
          "121822.497500",
          "121823.987500",
          "121825.477500",
          "121826.967500",
          "121828.457500",
          "121829.947500",
          "121831.437500",
          "121832.927500",
          "121834.417500",
          "121835.907500",
          "121837.397500",
          "121838.887500",
          "121840.377500",
          "121841.867500",
          "121843.357500",
          "121844.847500",
          "121846.337500",
          "121847.827500",
          "121849.317500",
          "121850.807500",
          "121852.297500",
          "121853.787500",
          "121855.277500",
          "121856.767500",
          "121858.257500",
          "121859.747500",
          "121901.237500",
          "121902.727500",
          "121904.217500",
          "121905.707500",
          "121907.197500",
          "121908.687500",
          "121910.177500",
          "121911.667500",
          "121913.157500",
          "121914.647500",
          "121916.137500",
          "121917.627500",
          "121919.117500",
          "121920.607500",
          "121922.097500",
          "121923.587500",
          "121925.077500",
          "121926.567500",
          "121928.057500",
          "121929.547500",
          "121931.037500",
          "121932.527500",
          "121934.017500",
          "121935.507500",
          "121936.997500",
          "121938.487500",
          "121939.977500",
          "121941.467500",
          "121942.957500",
          "121944.447500",
          "121945.937500",
          "121947.427500",
          "121948.917500",
          "121950.407500",
          "121951.897500",
          "121953.387500",
          "121954.877500",
          "121956.367500",
          "121957.857500",
          "121959.347500",
          "122000.837500",
          "122002.327500",
          "122003.817500",
          "122005.307500",
          "122006.797500",
          "122008.287500",
          "122009.777500",
          "122011.267500",
          "122012.757500",
          "122014.247500",
          "122015.737500",
          "122017.227500",
          "122018.717500",
          "122020.207500",
          "122021.697500",
          "122023.187500",
          "122024.677500",
          "122026.167500",
          "122027.657500",
          "122029.147500",
          "122030.637500",
          "122032.127500",
          "122033.617500",
          "122035.107500",
          "122036.597500",
          "122038.087500",
          "122039.577500",
          "122041.067500",
          "122042.557500",
          "122044.047500",
          "122045.537500",
          "122047.027500",
          "122048.517500",
          "122050.007500",
          "122051.497500",
          "122052.987500",
          "122054.477500",
          "122055.967500",
          "122057.457500",
          "122058.947500",
          "122100.437500",
          "122101.927500",
          "122103.417500",
          "122104.907500",
          "122106.397500",
          "122107.887500",
          "122109.377500",
          "122110.867500",
          "122112.357500",
          "122113.847500",
          "122115.337500",
          "122116.827500",
          "122118.317500",
          "122119.807500",
          "122121.297500",
          "122122.787500",
          "122124.277500",
          "122125.767500",
          "122127.257500",
          "122128.747500",
          "122130.237500",
          "122131.727500",
          "122133.217500",
          "122134.707500",
          "122136.197500",
          "122137.687500",
          "122139.177500",
          "122140.667500",
          "122142.157500",
          "122143.647500",
          "122145.137500",
          "122146.627500",
          "122148.117500",
          "122149.607500",
          "122151.097500",
          "122152.587500",
          "122154.077500",
          "122155.567500",
          "122157.057500",
          "122158.547500",
          "122200.037500",
          "122201.527500",
          "122203.017500",
          "122204.507500",
          "122205.997500",
          "122207.487500",
          "122208.977500",
          "122210.467500",
          "122211.957500",
          "122213.447500",
          "122214.937500",
          "122216.427500",
          "122217.917500",
          "122219.407500",
          "122220.897500",
          "122222.387500",
          "122223.877500",
          "122225.367500",
          "122226.857500",
          "122228.347500",
          "122229.837500",
          "122231.327500",
          "122232.817500",
          "122234.307500",
          "122235.797500",
          "122237.287500",
          "122238.777500",
          "122240.267500",
          "122241.757500",
          "122243.247500",
          "122244.737500",
          "122246.227500",
          "122247.717500",
          "122249.207500",
          "122250.697500",
          "122252.187500",
          "122253.677500",
          "122255.167500",
          "122256.657500",
          "122258.147500",
          "122259.637500",
          "122301.127500",
          "122302.617500",
          "122304.107500",
          "122305.597500",
          "122307.087500"
        ],
        "ContentTime": [
          "121421.659000",
          "121421.662000",
          "121421.665000",
          "121421.668000",
          "121421.671000",
          "121421.674000",
          "121421.677000",
          "121421.680000",
          "121421.683000",
          "121421.686000",
          "121421.689000",
          "121421.692000",
          "121421.694000",
          "121421.697000",
          "121421.700000",
          "121421.707000",
          "121421.710000",
          "121421.713000",
          "121421.722000",
          "121421.725000",
          "121421.728000",
          "121421.731000",
          "121421.734000",
          "121421.737000",
          "121441.628000",
          "121441.631000",
          "121441.634000",
          "121441.637000",
          "121441.640000",
          "121441.643000",
          "121441.645000",
          "121441.648000",
          "121441.651000",
          "121441.656000",
          "121441.659000",
          "121441.661000",
          "121441.664000",
          "121441.667000",
          "121441.670000",
          "121441.673000",
          "121441.676000",
          "121441.679000",
          "121441.682000",
          "121441.685000",
          "121501.628000",
          "121501.631000",
          "121501.634000",
          "121501.637000",
          "121501.640000",
          "121501.643000",
          "121501.645000",
          "121501.648000",
          "121501.651000",
          "121501.654000",
          "121501.657000",
          "121501.668000",
          "121501.671000",
          "121501.674000",
          "121501.677000",
          "121501.680000",
          "121501.683000",
          "121501.686000",
          "121501.689000",
          "121501.691000",
          "121521.628000",
          "121521.631000",
          "121521.634000",
          "121521.637000",
          "121521.640000",
          "121521.643000",
          "121521.646000",
          "121521.649000",
          "121521.652000",
          "121521.654000",
          "121521.657000",
          "121521.660000",
          "121521.667000",
          "121521.670000",
          "121521.673000",
          "121521.676000",
          "121521.679000",
          "121521.682000",
          "121521.685000",
          "121521.688000",
          "121541.628000",
          "121541.631000",
          "121541.634000",
          "121541.637000",
          "121541.640000",
          "121541.643000",
          "121541.646000",
          "121541.649000",
          "121541.651000",
          "121541.654000",
          "121541.658000",
          "121541.661000",
          "121541.663000",
          "121541.666000",
          "121541.669000",
          "121541.672000",
          "121541.675000",
          "121541.678000",
          "121541.681000",
          "121541.684000",
          "121541.687000",
          "121621.628000",
          "121621.631000",
          "121621.634000",
          "121621.637000",
          "121621.640000",
          "121621.643000",
          "121621.646000",
          "121621.649000",
          "121621.652000",
          "121621.654000",
          "121621.657000",
          "121621.660000",
          "121621.663000",
          "121621.666000",
          "121621.669000",
          "121621.672000",
          "121621.675000",
          "121621.678000",
          "121621.681000",
          "121621.684000",
          "121621.687000",
          "121621.690000",
          "121621.692000",
          "121621.695000",
          "121621.698000",
          "121621.701000",
          "121621.704000",
          "121701.628000",
          "121701.631000",
          "121701.634000",
          "121701.637000",
          "121701.640000",
          "121701.643000",
          "121701.646000",
          "121701.649000",
          "121701.652000",
          "121701.655000",
          "121701.658000",
          "121701.660000",
          "121701.663000",
          "121701.666000",
          "121701.669000",
          "121701.672000",
          "121701.675000",
          "121701.678000",
          "121701.681000",
          "121701.684000",
          "121701.687000",
          "121701.689000",
          "121701.692000",
          "121701.695000",
          "121701.698000",
          "121701.701000",
          "121701.704000",
          "121741.628000",
          "121741.631000",
          "121741.634000",
          "121741.637000",
          "121741.640000",
          "121741.644000",
          "121741.647000",
          "121741.650000",
          "121741.653000",
          "121741.656000",
          "121741.672000",
          "121741.675000",
          "121741.678000",
          "121741.681000",
          "121741.684000",
          "121741.687000",
          "121741.690000",
          "121741.692000",
          "121741.695000",
          "121741.698000",
          "121741.701000",
          "121741.704000",
          "121741.707000",
          "121741.710000",
          "121741.713000",
          "121741.716000",
          "121821.628000",
          "121821.631000",
          "121821.634000",
          "121821.637000",
          "121821.640000",
          "121821.643000",
          "121821.646000",
          "121821.649000",
          "121821.652000",
          "121821.655000",
          "121821.657000",
          "121821.661000",
          "121821.663000",
          "121821.666000",
          "121821.669000",
          "121821.672000",
          "121821.675000",
          "121821.678000",
          "121821.681000",
          "121821.684000",
          "121821.686000",
          "121821.689000",
          "121821.692000",
          "121821.695000",
          "121821.698000",
          "121821.701000",
          "121821.704000",
          "121841.628000",
          "121841.631000",
          "121841.634000",
          "121841.637000",
          "121841.640000",
          "121841.643000",
          "121841.646000",
          "121841.649000",
          "121841.652000",
          "121841.655000",
          "121841.657000",
