{
  "aor": 0.00029773399014778327,
  "aqi": 0.009167381403940886,
  "bids_meta": {
    "AcquisitionMatrixPE": 104,
    "AcquisitionNumber": 1,
    "AcquisitionTime": "11:51:39.342500",
    "BandwidthPerPixelPhaseEncode": 17.17,
    "BaseResolution": 104,
    "BodyPartExamined": "BRAIN",
    "CogAtlasID": "trm_4c898da401420",
    "ConsistencyInfo": "N4_VE11C_LATEST_20160120",
    "ConversionSoftware": "dcm2niix",
    "ConversionSoftwareVersion": "v1.0.20171215 (OpenJPEG build) GCC7.3.0",
    "DerivedVendorReportedEchoSpacing": 0.000560011,
    "DeviceSerialNumber": "167006",
    "DwellTime": 2.1e-06,
    "EchoTime": 0.037,
    "EchoTrainLength": 104,
    "EffectiveEchoSpacing": 0.000560011,
    "FlipAngle": 52,
    "ImageComments": "Unaliased_MB4_PE3_LB",
    "ImageOrientationPatientDICOM": [
      0.995542,
      0.0943153,
      -0.000503035,
      -0.0911271,
      0.960487,
      -0.262986
    ],
    "ImageType": [
      "ORIGINAL",
      "PRIMARY",
      "M",
      "MB",
      "ND",
      "MOSAIC"
    ],
    "InPlanePhaseEncodingDirectionDICOM": "COL",
    "InstitutionAddress": "Chemin_Queen-Mary_4565_Montreal_District_CA_H3W_1W5",
    "InstitutionName": "IUGM",
    "InstitutionalDepartmentName": "Department",
    "MRAcquisitionType": "2D",
    "MagneticFieldStrength": 3,
    "Manufacturer": "Siemens",
    "ManufacturersModelName": "Prisma_fit",
    "Modality": "MR",
    "MultibandAccelerationFactor": 4,
    "PartialFourier": 1,
    "PatientPosition": "HFS",
    "PercentPhaseFOV": 100,
    "PhaseEncodingDirection": "j-",
    "PhaseEncodingSteps": 104,
    "PhaseResolution": 1,
    "PixelBandwidth": 2290,
    "ProcedureStepDescription": "video5_generic",
    "ProtocolName": "func_task-wolf13",
    "PulseSequenceDetails": "%CustomerSeq%_cmrr_mbep2d_bold",
    "ReceiveCoilActiveElements": "HC1-7;NC1,2",
    "ReceiveCoilName": "HeadNeck_64",
    "ReconMatrixPE": 104,
    "RepetitionTime": 1.49,
    "SAR": 0.0390392,
    "ScanOptions": "FS",
    "ScanningSequence": "EP",
    "SequenceName": "epfid2d1_104",
    "SequenceVariant": "SK_SS",
    "SeriesDescription": "func_task-wolf13",
    "SeriesNumber": 7,
    "ShimSetting": [
      625,
      -7191,
      -8837,
      713,
      93,
      37,
      17,
      -26
    ],
    "SliceThickness": 2,
    "SliceTiming": [
      0,
      0.785,
      0.0975,
      0.8825,
      0.195,
      0.98,
      0.295,
      1.0775,
      0.3925,
      1.175,
      0.49,
      1.275,
      0.5875,
      1.3725,
      0.685,
      0,
      0.785,
      0.0975,
      0.8825,
      0.195,
      0.98,
      0.295,
      1.0775,
      0.3925,
      1.175,
      0.49,
      1.275,
      0.5875,
      1.3725,
      0.685,
      0,
      0.785,
      0.0975,
      0.8825,
      0.195,
      0.98,
      0.295,
      1.0775,
      0.3925,
      1.175,
      0.49,
      1.275,
      0.5875,
      1.3725,
      0.685,
      0,
      0.785,
      0.0975,
      0.8825,
      0.195,
      0.98,
      0.295,
      1.0775,
      0.3925,
      1.175,
      0.49,
      1.275,
      0.5875,
      1.3725,
      0.685
    ],
    "SoftwareVersions": "syngo_MR_E11",
    "SpacingBetweenSlices": 2,
    "StationName": "MRC35049",
    "TaskName": "wolf13",
    "TotalReadoutTime": 0.0576811,
    "TxRefAmp": 251.38,
    "dataset": "<unset>",
    "dcmmeta_affine": [
      [
        -1.9910844564437866,
        -0.18225418031215668,
        0.04864082112908363,
        113.19234466552734
      ],
      [
        -0.188630610704422,
        1.9209730625152588,
        -0.5237182974815369,
        -62.72003936767578
      ],
      [
        -0.0010060692438855767,
        0.5259712338447571,
        1.9295992851257324,
        -63.348751068115234
      ],
      [
        0.0,
        0.0,
        0.0,
        1.0
      ]
    ],
    "dcmmeta_reorient_transform": [
      [
        0.0,
        -1.0,
        0.0,
        103.0
      ],
      [
        1.0,
        0.0,
        0.0,
        0.0
      ],
      [
        0.0,
        0.0,
        1.0,
        0.0
      ],
      [
        0.0,
        0.0,
        0.0,
        1.0
      ]
    ],
    "dcmmeta_shape": [
      104,
      104,
      60,
      406
    ],
    "dcmmeta_slice_dim": 2,
    "dcmmeta_version": 0.6,
    "global": {
      "const": {
        "AcquisitionMatrix": [
          104,
          0,
          0,
          104
        ],
        "AngioFlag": "N",
        "BitsAllocated": 16,
        "BitsStored": 16,
        "BodyPartExamined": "BRAIN",
        "Columns": 832,
        "EchoNumbers": 1,
        "EchoTime": 37.0,
        "EchoTrainLength": 104,
        "FlipAngle": 52.0,
        "HighBit": 15,
        "ImageOrientationPatient": [
          0.9955422495519,
          0.09431530264649,
          -0.0005030346395,
          -0.0911270923639,
          0.96048654995243,
          -0.2629856277399
        ],
        "ImagePositionPatient": [
          -752.83439570185,
          -903.03593726074,
          182.64603282849
        ],
        "ImageType": [
          "ORIGINAL",
          "PRIMARY",
          "M",
          "MB",
          "ND",
          "MOSAIC"
        ],
        "ImagedNucleus": "1H",
        "ImagingFrequency": 123.259454,
        "InPlanePhaseEncodingDirection": "COL",
        "MRAcquisitionType": "2D",
        "MagneticFieldStrength": 3.0,
        "Manufacturer": "SIEMENS",
        "ManufacturerModelName": "Prisma_fit",
        "Modality": "MR",
        "NumberOfAverages": 1.0,
        "NumberOfPhaseEncodingSteps": 104,
        "PercentPhaseFieldOfView": 100.0,
        "PercentSampling": 100.0,
        "PerformedProcedureStepStartTime": "113620.541000",
        "PhotometricInterpretation": "MONOCHROME2",
        "PixelBandwidth": 2290.0,
        "PixelRepresentation": 0,
        "PixelSpacing": [
          2.0,
          2.0
        ],
        "ProtocolName": "func_task-wolf13",
        "RepetitionTime": 1490.0,
        "Rows": 832,
        "SAR": 0.03903917385065,
        "SamplesPerPixel": 1,
        "ScanOptions": "FS",
        "ScanningSequence": "EP",
        "SequenceName": "epfid2d1_104",
        "SequenceVariant": [
          "SK",
          "SS"
        ],
        "SeriesDescription": "func_task-wolf13",
        "SeriesNumber": 7,
        "SeriesTime": "115304.005000",
        "SliceLocation": -41.942152084994,
        "SliceThickness": 2.0,
        "SmallestImagePixelValue": 0,
        "SoftwareVersions": "syngo MR E11",
        "SpacingBetweenSlices": 2.0000000017438,
        "SpecificCharacterSet": "ISO_IR 100",
        "StudyID": "1",
        "StudyTime": "113620.479000",
        "TransmitCoilName": "Body",
        "VariableFlipAngleFlag": "N",
        "WindowCenterWidthExplanation": "Algo1",
        "dBdt": 0.0
      },
      "slices": {}
    },
    "modality": "bold",
    "session_id": "005",
    "subject_id": "01",
    "task_id": "wolf13",
    "time": {
      "samples": {
        "AcquisitionNumber": [
          1,
          2,
          3,
          4,
          5,
          6,
          7,
          8,
          9,
          10,
          11,
          12,
          13,
          14,
          15,
          16,
          17,
          18,
          19,
          20,
          21,
          22,
          23,
          24,
          25,
          26,
          27,
          28,
          29,
          30,
          31,
          32,
          33,
          34,
          35,
          36,
          37,
          38,
          39,
          40,
          41,
          42,
          43,
          44,
          45,
          46,
          47,
          48,
          49,
          50,
          51,
          52,
          53,
          54,
          55,
          56,
          57,
          58,
          59,
          60,
          61,
          62,
          63,
          64,
          65,
          66,
          67,
          68,
          69,
          70,
          71,
          72,
          73,
          74,
          75,
          76,
          77,
          78,
          79,
          80,
          81,
          82,
          83,
          84,
          85,
          86,
          87,
          88,
          89,
          90,
          91,
          92,
          93,
          94,
          95,
          96,
          97,
          98,
          99,
          100,
          101,
          102,
          103,
          104,
          105,
          106,
          107,
          108,
          109,
          110,
          111,
          112,
          113,
          114,
          115,
          116,
          117,
          118,
          119,
          120,
          121,
          122,
          123,
          124,
          125,
          126,
          127,
          128,
          129,
          130,
          131,
          132,
          133,
          134,
          135,
          136,
          137,
          138,
          139,
          140,
          141,
          142,
          143,
          144,
          145,
          146,
          147,
          148,
          149,
          150,
          151,
          152,
          153,
          154,
          155,
          156,
          157,
          158,
          159,
          160,
          161,
          162,
          163,
          164,
          165,
          166,
          167,
          168,
          169,
          170,
          171,
          172,
          173,
          174,
          175,
          176,
          177,
          178,
          179,
          180,
          181,
          182,
          183,
          184,
          185,
          186,
          187,
          188,
          189,
          190,
          191,
          192,
          193,
          194,
          195,
          196,
          197,
          198,
          199,
          200,
          201,
          202,
          203,
          204,
          205,
          206,
          207,
          208,
          209,
          210,
          211,
          212,
          213,
          214,
          215,
          216,
          217,
          218,
          219,
          220,
          221,
          222,
          223,
          224,
          225,
          226,
          227,
          228,
          229,
          230,
          231,
          232,
          233,
          234,
          235,
          236,
          237,
          238,
          239,
          240,
          241,
          242,
          243,
          244,
          245,
          246,
          247,
          248,
          249,
          250,
          251,
          252,
          253,
          254,
          255,
          256,
          257,
          258,
          259,
          260,
          261,
          262,
          263,
          264,
          265,
          266,
          267,
          268,
          269,
          270,
          271,
          272,
          273,
          274,
          275,
          276,
          277,
          278,
          279,
          280,
          281,
          282,
          283,
          284,
          285,
          286,
          287,
          288,
          289,
          290,
          291,
          292,
          293,
          294,
          295,
          296,
          297,
          298,
          299,
          300,
          301,
          302,
          303,
          304,
          305,
          306,
          307,
          308,
          309,
          310,
          311,
          312,
          313,
          314,
          315,
          316,
          317,
          318,
          319,
          320,
          321,
          322,
          323,
          324,
          325,
          326,
          327,
          328,
          329,
          330,
          331,
          332,
          333,
          334,
          335,
          336,
          337,
          338,
          339,
          340,
          341,
          342,
          343,
          344,
          345,
          346,
          347,
          348,
          349,
          350,
          351,
          352,
          353,
          354,
          355,
          356,
          357,
          358,
          359,
          360,
          361,
          362,
          363,
          364,
          365,
          366,
          367,
          368,
          369,
          370,
          371,
          372,
          373,
          374,
          375,
          376,
          377,
          378,
          379,
          380,
          381,
          382,
          383,
          384,
          385,
          386,
          387,
          388,
          389,
          390,
          391,
          392,
          393,
          394,
          395,
          396,
          397,
          398,
          399,
          400,
          401,
          402,
          403,
          404,
          405,
          406
        ],
        "AcquisitionTime": [
          "115139.342500",
          "115140.832500",
          "115142.322500",
          "115143.812500",
          "115145.302500",
          "115146.792500",
          "115148.282500",
          "115149.772500",
          "115151.262500",
          "115152.752500",
          "115154.242500",
          "115155.732500",
          "115157.222500",
          "115158.712500",
          "115200.202500",
          "115201.692500",
          "115203.182500",
          "115204.672500",
          "115206.162500",
          "115207.652500",
          "115209.142500",
          "115210.632500",
          "115212.122500",
          "115213.612500",
          "115215.102500",
          "115216.592500",
          "115218.082500",
          "115219.572500",
          "115221.062500",
          "115222.552500",
          "115224.042500",
          "115225.532500",
          "115227.022500",
          "115228.512500",
          "115230.002500",
          "115231.492500",
          "115232.982500",
          "115234.472500",
          "115235.962500",
          "115237.452500",
          "115238.942500",
          "115240.432500",
          "115241.922500",
          "115243.412500",
          "115244.902500",
          "115246.392500",
          "115247.882500",
          "115249.372500",
          "115250.862500",
          "115252.352500",
          "115253.842500",
          "115255.332500",
          "115256.822500",
          "115258.312500",
          "115259.802500",
          "115301.292500",
          "115302.782500",
          "115304.272500",
          "115305.762500",
          "115307.252500",
          "115308.742500",
          "115310.232500",
          "115311.722500",
          "115313.212500",
          "115314.702500",
          "115316.192500",
          "115317.682500",
          "115319.172500",
          "115320.662500",
          "115322.152500",
          "115323.642500",
          "115325.132500",
          "115326.622500",
          "115328.112500",
          "115329.602500",
          "115331.092500",
          "115332.582500",
          "115334.072500",
          "115335.562500",
          "115337.052500",
          "115338.542500",
          "115340.032500",
          "115341.522500",
          "115343.012500",
          "115344.502500",
          "115345.992500",
          "115347.482500",
          "115348.972500",
          "115350.462500",
          "115351.952500",
          "115353.442500",
          "115354.932500",
          "115356.422500",
          "115357.912500",
          "115359.402500",
          "115400.892500",
          "115402.382500",
          "115403.872500",
          "115405.362500",
          "115406.852500",
          "115408.342500",
          "115409.832500",
          "115411.322500",
          "115412.812500",
          "115414.302500",
          "115415.792500",
          "115417.282500",
          "115418.772500",
          "115420.262500",
          "115421.752500",
          "115423.242500",
          "115424.732500",
          "115426.222500",
          "115427.712500",
          "115429.202500",
          "115430.692500",
          "115432.182500",
          "115433.672500",
          "115435.162500",
          "115436.652500",
          "115438.142500",
          "115439.632500",
          "115441.122500",
          "115442.612500",
          "115444.102500",
          "115445.592500",
          "115447.082500",
          "115448.572500",
          "115450.062500",
          "115451.552500",
          "115453.042500",
          "115454.532500",
          "115456.022500",
          "115457.512500",
          "115459.002500",
          "115500.492500",
          "115501.982500",
          "115503.472500",
          "115504.962500",
          "115506.452500",
          "115507.942500",
          "115509.432500",
          "115510.922500",
          "115512.412500",
          "115513.902500",
          "115515.392500",
          "115516.882500",
          "115518.372500",
          "115519.862500",
          "115521.352500",
          "115522.842500",
          "115524.332500",
          "115525.822500",
          "115527.312500",
          "115528.802500",
          "115530.292500",
          "115531.782500",
          "115533.272500",
          "115534.762500",
          "115536.252500",
          "115537.742500",
          "115539.232500",
          "115540.722500",
          "115542.212500",
          "115543.702500",
          "115545.192500",
          "115546.682500",
          "115548.172500",
          "115549.662500",
          "115551.152500",
          "115552.642500",
          "115554.132500",
          "115555.622500",
          "115557.112500",
          "115558.602500",
          "115600.092500",
          "115601.582500",
          "115603.072500",
          "115604.562500",
          "115606.052500",
          "115607.542500",
          "115609.032500",
          "115610.522500",
          "115612.012500",
          "115613.502500",
          "115614.992500",
          "115616.482500",
          "115617.972500",
          "115619.462500",
          "115620.952500",
          "115622.442500",
          "115623.932500",
          "115625.422500",
          "115626.912500",
          "115628.402500",
          "115629.892500",
          "115631.382500",
          "115632.872500",
          "115634.362500",
          "115635.852500",
          "115637.342500",
          "115638.832500",
          "115640.322500",
          "115641.812500",
          "115643.302500",
          "115644.792500",
          "115646.282500",
          "115647.772500",
          "115649.262500",
          "115650.752500",
          "115652.242500",
          "115653.732500",
          "115655.222500",
          "115656.712500",
          "115658.202500",
          "115659.692500",
          "115701.182500",
          "115702.672500",
          "115704.162500",
          "115705.652500",
          "115707.142500",
          "115708.632500",
          "115710.122500",
          "115711.612500",
          "115713.102500",
          "115714.592500",
          "115716.082500",
          "115717.572500",
          "115719.062500",
          "115720.552500",
          "115722.042500",
          "115723.532500",
          "115725.022500",
          "115726.512500",
          "115728.002500",
          "115729.492500",
          "115730.982500",
          "115732.472500",
          "115733.962500",
          "115735.452500",
          "115736.942500",
          "115738.432500",
          "115739.922500",
          "115741.412500",
          "115742.902500",
          "115744.392500",
          "115745.882500",
          "115747.372500",
          "115748.862500",
          "115750.352500",
          "115751.842500",
          "115753.332500",
          "115754.822500",
          "115756.312500",
          "115757.802500",
          "115759.292500",
          "115800.782500",
          "115802.272500",
          "115803.762500",
          "115805.252500",
          "115806.742500",
          "115808.232500",
          "115809.722500",
          "115811.212500",
          "115812.702500",
          "115814.192500",
          "115815.682500",
          "115817.172500",
          "115818.662500",
          "115820.152500",
          "115821.642500",
          "115823.132500",
          "115824.622500",
          "115826.112500",
          "115827.602500",
          "115829.092500",
          "115830.582500",
          "115832.072500",
          "115833.562500",
          "115835.052500",
          "115836.542500",
          "115838.032500",
          "115839.522500",
          "115841.012500",
          "115842.502500",
          "115843.992500",
          "115845.482500",
          "115846.972500",
          "115848.462500",
          "115849.952500",
          "115851.442500",
          "115852.932500",
          "115854.422500",
          "115855.912500",
          "115857.402500",
          "115858.892500",
          "115900.382500",
          "115901.872500",
          "115903.362500",
          "115904.852500",
          "115906.342500",
          "115907.832500",
          "115909.322500",
          "115910.812500",
          "115912.302500",
          "115913.792500",
          "115915.282500",
          "115916.772500",
          "115918.262500",
          "115919.752500",
          "115921.242500",
          "115922.732500",
          "115924.222500",
          "115925.712500",
          "115927.202500",
          "115928.692500",
          "115930.182500",
          "115931.672500",
          "115933.162500",
          "115934.652500",
          "115936.142500",
          "115937.632500",
          "115939.122500",
          "115940.612500",
          "115942.102500",
          "115943.592500",
          "115945.082500",
          "115946.572500",
          "115948.062500",
          "115949.552500",
          "115951.042500",
          "115952.532500",
          "115954.022500",
          "115955.512500",
          "115957.002500",
          "115958.492500",
          "115959.982500",
          "120001.472500",
          "120002.962500",
          "120004.452500",
          "120005.942500",
          "120007.432500",
          "120008.922500",
          "120010.412500",
          "120011.902500",
          "120013.392500",
          "120014.882500",
          "120016.372500",
          "120017.862500",
          "120019.352500",
          "120020.842500",
          "120022.332500",
          "120023.822500",
          "120025.312500",
          "120026.802500",
          "120028.292500",
          "120029.782500",
          "120031.272500",
          "120032.762500",
          "120034.252500",
          "120035.742500",
          "120037.232500",
          "120038.722500",
          "120040.212500",
          "120041.702500",
          "120043.192500",
          "120044.682500",
          "120046.172500",
          "120047.662500",
          "120049.152500",
          "120050.642500",
          "120052.132500",
          "120053.622500",
          "120055.112500",
          "120056.602500",
          "120058.092500",
          "120059.582500",
          "120101.072500",
          "120102.562500",
          "120104.052500",
          "120105.542500",
          "120107.032500",
          "120108.522500",
          "120110.012500",
          "120111.502500",
          "120112.992500",
          "120114.482500",
          "120115.972500",
          "120117.462500",
          "120118.952500",
          "120120.442500",
          "120121.932500",
          "120123.422500",
          "120124.912500",
          "120126.402500",
          "120127.892500",
          "120129.382500",
          "120130.872500",
          "120132.362500",
          "120133.852500",
          "120135.342500",
          "120136.832500",
          "120138.322500",
          "120139.812500",
          "120141.302500",
          "120142.792500"
        ],
        "ContentTime": [
          "115304.008000",
          "115304.011000",
          "115304.014000",
          "115304.017000",
          "115304.020000",
          "115304.023000",
          "115304.026000",
          "115304.028000",
          "115304.031000",
          "115304.034000",
          "115304.037000",
          "115304.040000",
          "115304.043000",
          "115304.046000",
          "115304.049000",
          "115304.052000",
          "115304.054000",
          "115304.057000",
          "115304.060000",
          "115304.063000",
          "115304.066000",
          "115304.069000",
          "115304.072000",
          "115304.075000",
          "115304.077000",
          "115304.080000",
          "115304.083000",
          "115304.086000",
          "115304.089000",
          "115323.976000",
          "115323.979000",
          "115323.982000",
          "115323.985000",
          "115323.988000",
          "115323.990000",
          "115323.993000",
          "115323.996000",
          "115324.000000",
          "115324.003000",
          "115324.006000",
          "115324.009000",
          "115324.011000",
          "115324.014000",
          "115324.017000",
          "115324.020000",
          "115324.023000",
          "115324.026000",
          "115324.029000",
          "115324.032000",
          "115324.034000",
          "115343.977000",
          "115343.980000",
          "115343.983000",
          "115343.986000",
          "115343.988000",
          "115343.991000",
          "115343.994000",
          "115343.997000",
          "115344.000000",
          "115344.003000",
          "115344.006000",
          "115344.009000",
          "115344.012000",
          "115344.014000",
          "115344.017000",
          "115344.020000",
          "115344.023000",
          "115344.026000",
          "115344.029000",
          "115344.032000",
          "115403.977000",
          "115403.980000",
          "115403.983000",
          "115403.985000",
          "115403.988000",
          "115403.991000",
          "115403.994000",
          "115403.997000",
          "115404.001000",
          "115404.004000",
          "115404.007000",
          "115404.009000",
          "115404.012000",
          "115404.015000",
          "115404.018000",
          "115404.021000",
          "115404.024000",
          "115404.027000",
          "115404.029000",
          "115404.032000",
          "115423.987000",
          "115423.990000",
          "115423.993000",
          "115423.996000",
          "115424.000000",
          "115424.003000",
          "115424.006000",
          "115424.008000",
          "115424.011000",
          "115424.014000",
          "115424.017000",
          "115424.020000",
          "115424.023000",
          "115424.026000",
          "115424.029000",
          "115424.031000",
          "115424.034000",
          "115424.037000",
          "115424.040000",
          "115424.043000",
          "115503.976000",
          "115503.979000",
          "115503.982000",
          "115503.985000",
          "115503.987000",
          "115503.990000",
          "115503.993000",
          "115503.996000",
          "115504.000000",
          "115504.003000",
          "115504.006000",
          "115504.009000",
          "115504.012000",
          "115504.015000",
          "115504.018000",
          "115504.021000",
          "115504.023000",
          "115504.026000",
          "115504.029000",
          "115504.032000",
          "115504.035000",
          "115504.042000",
          "115504.045000",
          "115504.048000",
          "115504.051000",
          "115504.053000",
          "115543.976000",
          "115543.979000",
          "115543.982000",
          "115543.985000",
          "115543.987000",
          "115543.990000",
          "115543.993000",
          "115543.996000",
          "115544.000000",
          "115544.003000",
          "115544.006000",
          "115544.009000",
          "115544.011000",
          "115544.014000",
          "115544.017000",
          "115544.020000",
          "115544.023000",
          "115544.026000",
          "115544.029000",
          "115544.032000",
          "115544.035000",
          "115544.037000",
          "115544.040000",
          "115544.043000",
          "115544.046000",
          "115544.049000",
          "115544.052000",
          "115623.977000",
          "115623.980000",
          "115623.983000",
          "115623.986000",
          "115623.989000",
          "115623.992000",
          "115623.995000",
          "115623.997000",
          "115624.000000",
          "115624.003000",
          "115624.006000",
          "115624.009000",
          "115624.012000",
          "115624.015000",
          "115624.018000",
          "115624.020000",
          "115624.023000",
          "115624.026000",
          "115624.029000",
          "115624.032000",
          "115624.035000",
          "115624.038000",
          "115624.040000",
          "115624.043000",
          "115624.046000",
          "115624.049000",
          "115624.052000",
          "115703.976000",
          "115703.979000",
          "115703.982000",
          "115703.985000",
          "115703.988000",
          "115704.002000",
          "115704.005000",
          "115704.008000",
          "115704.011000",
          "115704.014000",
          "115704.016000",
          "115704.019000",
          "115704.022000",
          "115704.025000",
          "115704.028000",
          "115704.031000",
          "115704.033000",
          "115704.036000",
          "115704.039000",
          "115704.042000",
          "115704.045000",
          "115704.048000",
          "115704.050000",
          "115704.053000",
          "115704.056000",
          "115704.059000",
          "115704.062000",
          "115743.976000",
          "115743.979000",
          "115743.982000",
          "115743.984000",
          "115743.987000",
          "115743.990000",
          "115743.993000",
