{
  "aor": 0.00029704156479217603,
  "aqi": 0.00736160782396088,
  "bids_meta": {
    "AcquisitionMatrixPE": 104,
    "AcquisitionNumber": 1,
    "AcquisitionTime": "16:17:8.690000",
    "BandwidthPerPixelPhaseEncode": 17.17,
    "BaseResolution": 104,
    "BodyPartExamined": "BRAIN",
    "CogAtlasID": "trm_4c898da401420",
    "ConsistencyInfo": "N4_VE11C_LATEST_20160120",
    "ConversionSoftware": "dcm2niix",
    "ConversionSoftwareVersion": "v1.0.20171215 (OpenJPEG build) GCC7.3.0",
    "DerivedVendorReportedEchoSpacing": 0.000560011,
    "DeviceSerialNumber": "167006",
    "DwellTime": 2.1e-06,
    "EchoTime": 0.037,
    "EchoTrainLength": 104,
    "EffectiveEchoSpacing": 0.000560011,
    "FlipAngle": 52,
    "ImageComments": "Unaliased_MB4_PE3_LB",
    "ImageOrientationPatientDICOM": [
      0.999521,
      0.0212605,
      -0.0225087,
      -0.0270462,
      0.953406,
      -0.300476
    ],
    "ImageType": [
      "ORIGINAL",
      "PRIMARY",
      "M",
      "MB",
      "ND",
      "MOSAIC"
    ],
    "InPlanePhaseEncodingDirectionDICOM": "COL",
    "InstitutionAddress": "Chemin_Queen-Mary_4565_Montreal_District_CA_H3W_1W5",
    "InstitutionName": "IUGM",
    "InstitutionalDepartmentName": "Department",
    "MRAcquisitionType": "2D",
    "MagneticFieldStrength": 3,
    "Manufacturer": "Siemens",
    "ManufacturersModelName": "Prisma_fit",
    "Modality": "MR",
    "MultibandAccelerationFactor": 4,
    "PartialFourier": 1,
    "PatientPosition": "HFS",
    "PercentPhaseFOV": 100,
    "PhaseEncodingDirection": "j-",
    "PhaseEncodingSteps": 104,
    "PhaseResolution": 1,
    "PixelBandwidth": 2290,
    "ProcedureStepDescription": "video5_generic",
    "ProtocolName": "func_task-figures8",
    "PulseSequenceDetails": "%CustomerSeq%_cmrr_mbep2d_bold",
    "ReceiveCoilActiveElements": "HC1-7;NC1,2",
    "ReceiveCoilName": "HeadNeck_64",
    "ReconMatrixPE": 104,
    "RepetitionTime": 1.49,
    "SAR": 0.0378707,
    "ScanOptions": "FS",
    "ScanningSequence": "EP",
    "SequenceName": "epfid2d1_104",
    "SequenceVariant": "SK_SS",
    "SeriesDescription": "func_task-figures8",
    "SeriesNumber": 15,
    "ShimSetting": [
      633,
      -7216,
      -8857,
      686,
      112,
      -90,
      -21,
      0
    ],
    "SliceThickness": 2,
    "SliceTiming": [
      0,
      0.785,
      0.1,
      0.8825,
      0.1975,
      0.98,
      0.295,
      1.08,
      0.3925,
      1.1775,
      0.49,
      1.275,
      0.59,
      1.3725,
      0.6875,
      0,
      0.785,
      0.1,
      0.8825,
      0.1975,
      0.98,
      0.295,
      1.08,
      0.3925,
      1.1775,
      0.49,
      1.275,
      0.59,
      1.3725,
      0.6875,
      0,
      0.785,
      0.1,
      0.8825,
      0.1975,
      0.98,
      0.295,
      1.08,
      0.3925,
      1.1775,
      0.49,
      1.275,
      0.59,
      1.3725,
      0.6875,
      0,
      0.785,
      0.1,
      0.8825,
      0.1975,
      0.98,
      0.295,
      1.08,
      0.3925,
      1.1775,
      0.49,
      1.275,
      0.59,
      1.3725,
      0.6875
    ],
    "SoftwareVersions": "syngo_MR_E11",
    "SpacingBetweenSlices": 2,
    "StationName": "MRC35049",
    "TaskName": "figures08",
    "TotalReadoutTime": 0.0576811,
    "TxRefAmp": 249.336,
    "dataset": "<unset>",
    "dcmmeta_affine": [
      [
        -1.9990410804748535,
        -0.05409243702888489,
        -0.030143359676003456,
        108.5285415649414
      ],
      [
        -0.042521070688962936,
        1.9068117141723633,
        -0.6018812656402588,
        -83.72933197021484
      ],
      [
        -0.04501746967434883,
        0.6009518504142761,
        1.9070475101470947,
        -79.38915252685547
      ],
      [
        0.0,
        0.0,
        0.0,
        1.0
      ]
    ],
    "dcmmeta_reorient_transform": [
      [
        0.0,
        -1.0,
        0.0,
        103.0
      ],
      [
        1.0,
        0.0,
        0.0,
        0.0
      ],
      [
        0.0,
        0.0,
        1.0,
        0.0
      ],
      [
        0.0,
        0.0,
        0.0,
        1.0
      ]
    ],
    "dcmmeta_shape": [
      104,
      104,
      60,
      409
    ],
    "dcmmeta_slice_dim": 2,
    "dcmmeta_version": 0.6,
    "global": {
      "const": {
        "AcquisitionMatrix": [
          104,
          0,
          0,
          104
        ],
        "AngioFlag": "N",
        "BitsAllocated": 16,
        "BitsStored": 16,
        "BodyPartExamined": "BRAIN",
        "Columns": 832,
        "EchoNumbers": 1,
        "EchoTime": 37.0,
        "EchoTrainLength": 104,
        "FlipAngle": 52.0,
        "HighBit": 15,
        "ImageOrientationPatient": [
          0.99952055831603,
          0.02126053557152,
          -0.0225087345452,
          -0.0270462189726,
          0.95340585294111,
          -0.3004759251869
        ],
        "ImagePositionPatient": [
          -810.91834270703,
          -822.22940107045,
          217.64172063123
        ],
        "ImageType": [
          "ORIGINAL",
          "PRIMARY",
          "M",
          "MB",
          "ND",
          "MOSAIC"
        ],
        "ImagedNucleus": "1H",
        "ImagingFrequency": 123.259229,
        "InPlanePhaseEncodingDirection": "COL",
        "MRAcquisitionType": "2D",
        "MagneticFieldStrength": 3.0,
        "Manufacturer": "SIEMENS",
        "ManufacturerModelName": "Prisma_fit",
        "Modality": "MR",
        "NumberOfAverages": 1.0,
        "NumberOfPhaseEncodingSteps": 104,
        "PercentPhaseFieldOfView": 100.0,
        "PercentSampling": 100.0,
        "PerformedProcedureStepStartTime": "151303.387000",
        "PhotometricInterpretation": "MONOCHROME2",
        "PixelBandwidth": 2290.0,
        "PixelRepresentation": 0,
        "PixelSpacing": [
          2.0,
          2.0
        ],
        "ProtocolName": "func_task-figures8",
        "RepetitionTime": 1490.0,
        "Rows": 832,
        "SAR": 0.03787070255248,
        "SamplesPerPixel": 1,
        "ScanOptions": "FS",
        "ScanningSequence": "EP",
        "SequenceName": "epfid2d1_104",
        "SequenceVariant": [
          "SK",
          "SS"
        ],
        "SeriesDescription": "func_task-figures8",
        "SeriesNumber": 15,
        "SeriesTime": "161838.291000",
        "SliceLocation": -52.137591202881,
        "SliceThickness": 2.0,
        "SmallestImagePixelValue": 0,
        "SoftwareVersions": "syngo MR E11",
        "SpacingBetweenSlices": 2.0000000017171,
        "SpecificCharacterSet": "ISO_IR 100",
        "StudyID": "1",
        "StudyTime": "151303.321000",
        "TransmitCoilName": "Body",
        "VariableFlipAngleFlag": "N",
        "WindowCenterWidthExplanation": "Algo1",
        "dBdt": 0.0
      },
      "slices": {}
    },
    "modality": "bold",
    "run_id": 2,
    "session_id": "012",
    "subject_id": "01",
    "task_id": "figures08",
    "time": {
      "samples": {
        "AcquisitionNumber": [
          1,
          2,
          3,
          4,
          5,
          6,
          7,
          8,
          9,
          10,
          11,
          12,
          13,
          14,
          15,
          16,
          17,
          18,
          19,
          20,
          21,
          22,
          23,
          24,
          25,
          26,
          27,
          28,
          29,
          30,
          31,
          32,
          33,
          34,
          35,
          36,
          37,
          38,
          39,
          40,
          41,
          42,
          43,
          44,
          45,
          46,
          47,
          48,
          49,
          50,
          51,
          52,
          53,
          54,
          55,
          56,
          57,
          58,
          59,
          60,
          61,
          62,
          63,
          64,
          65,
          66,
          67,
          68,
          69,
          70,
          71,
          72,
          73,
          74,
          75,
          76,
          77,
          78,
          79,
          80,
          81,
          82,
          83,
          84,
          85,
          86,
          87,
          88,
          89,
          90,
          91,
          92,
          93,
          94,
          95,
          96,
          97,
          98,
          99,
          100,
          101,
          102,
          103,
          104,
          105,
          106,
          107,
          108,
          109,
          110,
          111,
          112,
          113,
          114,
          115,
          116,
          117,
          118,
          119,
          120,
          121,
          122,
          123,
          124,
          125,
          126,
          127,
          128,
          129,
          130,
          131,
          132,
          133,
          134,
          135,
          136,
          137,
          138,
          139,
          140,
          141,
          142,
          143,
          144,
          145,
          146,
          147,
          148,
          149,
          150,
          151,
          152,
          153,
          154,
          155,
          156,
          157,
          158,
          159,
          160,
          161,
          162,
          163,
          164,
          165,
          166,
          167,
          168,
          169,
          170,
          171,
          172,
          173,
          174,
          175,
          176,
          177,
          178,
          179,
          180,
          181,
          182,
          183,
          184,
          185,
          186,
          187,
          188,
          189,
          190,
          191,
          192,
          193,
          194,
          195,
          196,
          197,
          198,
          199,
          200,
          201,
          202,
          203,
          204,
          205,
          206,
          207,
          208,
          209,
          210,
          211,
          212,
          213,
          214,
          215,
          216,
          217,
          218,
          219,
          220,
          221,
          222,
          223,
          224,
          225,
          226,
          227,
          228,
          229,
          230,
          231,
          232,
          233,
          234,
          235,
          236,
          237,
          238,
          239,
          240,
          241,
          242,
          243,
          244,
          245,
          246,
          247,
          248,
          249,
          250,
          251,
          252,
          253,
          254,
          255,
          256,
          257,
          258,
          259,
          260,
          261,
          262,
          263,
          264,
          265,
          266,
          267,
          268,
          269,
          270,
          271,
          272,
          273,
          274,
          275,
          276,
          277,
          278,
          279,
          280,
          281,
          282,
          283,
          284,
          285,
          286,
          287,
          288,
          289,
          290,
          291,
          292,
          293,
          294,
          295,
          296,
          297,
          298,
          299,
          300,
          301,
          302,
          303,
          304,
          305,
          306,
          307,
          308,
          309,
          310,
          311,
          312,
          313,
          314,
          315,
          316,
          317,
          318,
          319,
          320,
          321,
          322,
          323,
          324,
          325,
          326,
          327,
          328,
          329,
          330,
          331,
          332,
          333,
          334,
          335,
          336,
          337,
          338,
          339,
          340,
          341,
          342,
          343,
          344,
          345,
          346,
          347,
          348,
          349,
          350,
          351,
          352,
          353,
          354,
          355,
          356,
          357,
          358,
          359,
          360,
          361,
          362,
          363,
          364,
          365,
          366,
          367,
          368,
          369,
          370,
          371,
          372,
          373,
          374,
          375,
          376,
          377,
          378,
          379,
          380,
          381,
          382,
          383,
          384,
          385,
          386,
          387,
          388,
          389,
          390,
          391,
          392,
          393,
          394,
          395,
          396,
          397,
          398,
          399,
          400,
          401,
          402,
          403,
          404,
          405,
          406,
          407,
          408,
          409
        ],
        "AcquisitionTime": [
          "161708.690000",
          "161710.180000",
          "161711.670000",
          "161713.160000",
          "161714.650000",
          "161716.140000",
          "161717.630000",
          "161719.120000",
          "161720.610000",
          "161722.100000",
          "161723.590000",
          "161725.080000",
          "161726.570000",
          "161728.060000",
          "161729.550000",
          "161731.040000",
          "161732.530000",
          "161734.020000",
          "161735.510000",
          "161737.000000",
          "161738.490000",
          "161739.980000",
          "161741.470000",
          "161742.960000",
          "161744.450000",
          "161745.940000",
          "161747.430000",
          "161748.920000",
          "161750.410000",
          "161751.900000",
          "161753.390000",
          "161754.880000",
          "161756.370000",
          "161757.860000",
          "161759.350000",
          "161800.840000",
          "161802.330000",
          "161803.820000",
          "161805.310000",
          "161806.800000",
          "161808.290000",
          "161809.780000",
          "161811.270000",
          "161812.760000",
          "161814.250000",
          "161815.740000",
          "161817.230000",
          "161818.720000",
          "161820.210000",
          "161821.700000",
          "161823.190000",
          "161824.680000",
          "161826.170000",
          "161827.660000",
          "161829.150000",
          "161830.640000",
          "161832.130000",
          "161833.620000",
          "161835.110000",
          "161836.600000",
          "161838.090000",
          "161839.580000",
          "161841.070000",
          "161842.560000",
          "161844.050000",
          "161845.540000",
          "161847.030000",
          "161848.520000",
          "161850.010000",
          "161851.500000",
          "161852.990000",
          "161854.480000",
          "161855.970000",
          "161857.460000",
          "161858.950000",
          "161900.440000",
          "161901.930000",
          "161903.420000",
          "161904.910000",
          "161906.400000",
          "161907.890000",
          "161909.380000",
          "161910.870000",
          "161912.360000",
          "161913.850000",
          "161915.340000",
          "161916.830000",
          "161918.320000",
          "161919.810000",
          "161921.300000",
          "161922.790000",
          "161924.280000",
          "161925.770000",
          "161927.260000",
          "161928.750000",
          "161930.240000",
          "161931.730000",
          "161933.220000",
          "161934.710000",
          "161936.200000",
          "161937.690000",
          "161939.180000",
          "161940.670000",
          "161942.160000",
          "161943.650000",
          "161945.140000",
          "161946.630000",
          "161948.120000",
          "161949.610000",
          "161951.100000",
          "161952.590000",
          "161954.080000",
          "161955.570000",
          "161957.060000",
          "161958.550000",
          "162000.040000",
          "162001.530000",
          "162003.020000",
          "162004.510000",
          "162006.000000",
          "162007.490000",
          "162008.980000",
          "162010.470000",
          "162011.960000",
          "162013.450000",
          "162014.940000",
          "162016.430000",
          "162017.920000",
          "162019.410000",
          "162020.900000",
          "162022.390000",
          "162023.880000",
          "162025.370000",
          "162026.860000",
          "162028.350000",
          "162029.840000",
          "162031.330000",
          "162032.820000",
          "162034.310000",
          "162035.800000",
          "162037.290000",
          "162038.780000",
          "162040.270000",
          "162041.760000",
          "162043.250000",
          "162044.740000",
          "162046.230000",
          "162047.720000",
          "162049.210000",
          "162050.700000",
          "162052.190000",
          "162053.680000",
          "162055.170000",
          "162056.660000",
          "162058.150000",
          "162059.640000",
          "162101.130000",
          "162102.620000",
          "162104.110000",
          "162105.600000",
          "162107.090000",
          "162108.580000",
          "162110.070000",
          "162111.560000",
          "162113.050000",
          "162114.540000",
          "162116.030000",
          "162117.520000",
          "162119.010000",
          "162120.500000",
          "162121.990000",
          "162123.480000",
          "162124.970000",
          "162126.460000",
          "162127.950000",
          "162129.440000",
          "162130.930000",
          "162132.420000",
          "162133.910000",
          "162135.400000",
          "162136.890000",
          "162138.380000",
          "162139.870000",
          "162141.360000",
          "162142.850000",
          "162144.340000",
          "162145.830000",
          "162147.320000",
          "162148.810000",
          "162150.300000",
          "162151.790000",
          "162153.280000",
          "162154.770000",
          "162156.260000",
          "162157.750000",
          "162159.240000",
          "162200.730000",
          "162202.220000",
          "162203.710000",
          "162205.200000",
          "162206.690000",
          "162208.180000",
          "162209.670000",
          "162211.160000",
          "162212.650000",
          "162214.140000",
          "162215.630000",
          "162217.120000",
          "162218.610000",
          "162220.100000",
          "162221.590000",
          "162223.080000",
          "162224.570000",
          "162226.060000",
          "162227.550000",
          "162229.040000",
          "162230.530000",
          "162232.020000",
          "162233.510000",
          "162235.000000",
          "162236.490000",
          "162237.980000",
          "162239.470000",
          "162240.960000",
          "162242.450000",
          "162243.940000",
          "162245.430000",
          "162246.920000",
          "162248.410000",
          "162249.900000",
          "162251.390000",
          "162252.880000",
          "162254.370000",
          "162255.860000",
          "162257.350000",
          "162258.840000",
          "162300.330000",
          "162301.820000",
          "162303.310000",
          "162304.800000",
          "162306.290000",
          "162307.780000",
          "162309.270000",
          "162310.760000",
          "162312.250000",
          "162313.740000",
          "162315.230000",
          "162316.720000",
          "162318.210000",
          "162319.700000",
          "162321.190000",
          "162322.680000",
          "162324.170000",
          "162325.660000",
          "162327.150000",
          "162328.640000",
          "162330.130000",
          "162331.620000",
          "162333.110000",
          "162334.600000",
          "162336.090000",
          "162337.580000",
          "162339.070000",
          "162340.560000",
          "162342.050000",
          "162343.540000",
          "162345.030000",
          "162346.520000",
          "162348.010000",
          "162349.500000",
          "162350.990000",
          "162352.480000",
          "162353.970000",
          "162355.460000",
          "162356.950000",
          "162358.440000",
          "162359.930000",
          "162401.420000",
          "162402.910000",
          "162404.400000",
          "162405.890000",
          "162407.380000",
          "162408.870000",
          "162410.360000",
          "162411.850000",
          "162413.340000",
          "162414.830000",
          "162416.320000",
          "162417.810000",
          "162419.300000",
          "162420.790000",
          "162422.280000",
          "162423.770000",
          "162425.260000",
          "162426.750000",
          "162428.240000",
          "162429.730000",
          "162431.220000",
          "162432.710000",
          "162434.200000",
          "162435.690000",
          "162437.180000",
          "162438.670000",
          "162440.160000",
          "162441.650000",
          "162443.140000",
          "162444.630000",
          "162446.120000",
          "162447.610000",
          "162449.100000",
          "162450.590000",
          "162452.080000",
          "162453.570000",
          "162455.060000",
          "162456.550000",
          "162458.040000",
          "162459.530000",
          "162501.020000",
          "162502.510000",
          "162504.000000",
          "162505.490000",
          "162506.980000",
          "162508.470000",
          "162509.960000",
          "162511.450000",
          "162512.940000",
          "162514.430000",
          "162515.920000",
          "162517.410000",
          "162518.900000",
          "162520.390000",
          "162521.880000",
          "162523.370000",
          "162524.860000",
          "162526.350000",
          "162527.840000",
          "162529.330000",
          "162530.820000",
          "162532.310000",
          "162533.800000",
          "162535.290000",
          "162536.780000",
          "162538.270000",
          "162539.760000",
          "162541.250000",
          "162542.740000",
          "162544.230000",
          "162545.720000",
          "162547.210000",
          "162548.700000",
          "162550.190000",
          "162551.680000",
          "162553.170000",
          "162554.660000",
          "162556.150000",
          "162557.640000",
          "162559.130000",
          "162600.620000",
          "162602.110000",
          "162603.600000",
          "162605.090000",
          "162606.580000",
          "162608.070000",
          "162609.560000",
          "162611.050000",
          "162612.540000",
          "162614.030000",
          "162615.520000",
          "162617.010000",
          "162618.500000",
          "162619.990000",
          "162621.480000",
          "162622.970000",
          "162624.460000",
          "162625.950000",
          "162627.440000",
          "162628.930000",
          "162630.420000",
          "162631.910000",
          "162633.400000",
          "162634.890000",
          "162636.380000",
          "162637.870000",
          "162639.360000",
          "162640.850000",
          "162642.340000",
          "162643.830000",
          "162645.320000",
          "162646.810000",
          "162648.300000",
          "162649.790000",
          "162651.280000",
          "162652.770000",
          "162654.260000",
          "162655.750000",
          "162657.240000",
          "162658.730000",
          "162700.220000",
          "162701.710000",
          "162703.200000",
          "162704.690000",
          "162706.180000",
          "162707.670000",
          "162709.160000",
          "162710.650000",
          "162712.140000",
          "162713.630000",
          "162715.120000",
          "162716.610000"
        ],
        "ContentTime": [
          "161838.294000",
          "161838.297000",
          "161838.300000",
          "161838.303000",
          "161838.306000",
          "161838.309000",
          "161838.312000",
          "161838.315000",
          "161838.318000",
          "161838.321000",
          "161838.324000",
          "161838.327000",
          "161838.330000",
          "161838.333000",
          "161838.336000",
          "161838.339000",
          "161838.342000",
          "161838.350000",
          "161838.353000",
          "161838.356000",
          "161838.359000",
          "161838.362000",
          "161838.365000",
          "161838.368000",
          "161838.371000",
          "161838.373000",
          "161838.376000",
          "161838.379000",
          "161838.382000",
          "161838.385000",
          "161838.388000",
          "161838.391000",
          "161838.394000",
          "161838.397000",
          "161838.408000",
          "161858.256000",
          "161858.259000",
          "161858.262000",
          "161858.265000",
          "161858.268000",
          "161858.271000",
          "161858.274000",
          "161858.277000",
          "161858.280000",
          "161858.283000",
          "161858.286000",
          "161858.289000",
          "161858.292000",
          "161858.295000",
          "161858.297000",
          "161858.300000",
          "161858.303000",
          "161858.306000",
          "161858.309000",
          "161858.312000",
          "161918.256000",
          "161918.308000",
          "161918.311000",
          "161918.314000",
          "161918.317000",
          "161918.319000",
          "161918.322000",
          "161918.325000",
          "161918.328000",
          "161918.331000",
          "161918.334000",
          "161918.337000",
          "161918.340000",
          "161918.343000",
          "161918.353000",
          "161918.356000",
          "161918.359000",
          "161918.362000",
          "161918.365000",
          "161918.368000",
          "161938.258000",
          "161938.261000",
          "161938.278000",
          "161938.281000",
          "161938.284000",
          "161938.287000",
          "161938.290000",
          "161938.293000",
          "161938.296000",
          "161938.299000",
          "161938.301000",
          "161938.304000",
          "161938.307000",
          "161938.310000",
          "161938.313000",
          "161938.317000",
          "161938.320000",
          "161938.323000",
          "161938.325000",
          "161938.329000",
          "162018.257000",
          "162018.260000",
          "162018.263000",
          "162018.266000",
          "162018.269000",
          "162018.272000",
          "162018.275000",
          "162018.278000",
          "162018.281000",
          "162018.284000",
          "162018.286000",
          "162018.289000",
          "162018.292000",
          "162018.295000",
          "162018.298000",
          "162018.301000",
          "162018.304000",
          "162018.307000",
          "162018.310000",
          "162018.313000",
          "162018.316000",
          "162018.319000",
          "162018.322000",
          "162018.325000",
          "162018.327000",
          "162018.331000",
          "162018.333000",
          "162018.343000",
          "162018.346000",
          "162018.349000",
          "162018.352000",
          "162058.256000",
          "162058.259000",
          "162058.262000",
          "162058.265000",
          "162058.268000",
          "162058.271000",
          "162058.274000",
          "162058.277000",
          "162058.280000",
          "162058.283000",
          "162058.286000",
          "162058.289000",
          "162058.292000",
          "162058.295000",
          "162058.298000",
          "162058.301000",
          "162058.304000",
          "162058.307000",
          "162058.310000",
          "162058.312000",
          "162058.315000",
          "162058.318000",
          "162058.321000",
          "162058.324000",
          "162058.327000",
          "162058.330000",
          "162058.333000",
          "162138.256000",
          "162138.259000",
          "162138.262000",
          "162138.265000",
          "162138.268000",
          "162138.271000",
          "162138.274000",
          "162138.277000",
          "162138.280000",
          "162138.283000",
          "162138.286000",
          "162138.289000",
          "162138.292000",
          "162138.295000",
          "162138.298000",
          "162138.301000",
          "162138.303000",
          "162138.306000",
          "162138.309000",
          "162138.312000",
          "162138.315000",
          "162138.327000",
          "162138.330000",
          "162138.333000",
          "162138.336000",
          "162138.338000",
          "162138.341000",
          "162218.257000",
          "162218.260000",
          "162218.263000",
          "162218.266000",
          "162218.269000",
          "162218.272000",
          "162218.275000",
          "162218.278000",
          "162218.281000",
          "162218.284000",
          "162218.287000",
          "162218.290000",
          "162218.293000",
          "162218.296000",
          "162218.299000",
          "162218.302000",
          "162218.305000",
          "162218.308000",
          "162218.311000",
          "162218.314000",
          "162218.316000",
          "162218.319000",
          "162218.322000",
          "162218.325000",
          "162218.328000",
          "162218.331000",
          "162218.334000",
          "162258.257000",
          "162258.260000",
          "162258.263000",
          "162258.266000",
          "162258.269000",
          "162258.272000",
          "162258.275000",
          "162258.278000",
          "162258.281000",
          "162258.284000",
          "162258.287000",
