{
  "aor": 0.00032342298288508557,
  "aqi": 0.006517781271393643,
  "bids_meta": {
    "AcquisitionMatrixPE": 104,
    "AcquisitionNumber": 1,
    "AcquisitionTime": "16:29:14.777500",
    "BandwidthPerPixelPhaseEncode": 17.17,
    "BaseResolution": 104,
    "BodyPartExamined": "BRAIN",
    "CogAtlasID": "trm_4c898da401420",
    "ConsistencyInfo": "N4_VE11C_LATEST_20160120",
    "ConversionSoftware": "dcm2niix",
    "ConversionSoftwareVersion": "v1.0.20171215 (OpenJPEG build) GCC7.3.0",
    "DerivedVendorReportedEchoSpacing": 0.000560011,
    "DeviceSerialNumber": "167006",
    "DwellTime": 2.1e-06,
    "EchoTime": 0.037,
    "EchoTrainLength": 104,
    "EffectiveEchoSpacing": 0.000560011,
    "FlipAngle": 52,
    "ImageComments": "Unaliased_MB4_PE3_LB",
    "ImageOrientationPatientDICOM": [
      0.993767,
      0.10555,
      0.0358754,
      -0.0932387,
      0.963348,
      -0.251528
    ],
    "ImageType": [
      "ORIGINAL",
      "PRIMARY",
      "M",
      "MB",
      "ND",
      "MOSAIC"
    ],
    "InPlanePhaseEncodingDirectionDICOM": "COL",
    "InstitutionAddress": "Chemin_Queen-Mary_4565_Montreal_District_CA_H3W_1W5",
    "InstitutionName": "IUGM",
    "InstitutionalDepartmentName": "Department",
    "MRAcquisitionType": "2D",
    "MagneticFieldStrength": 3,
    "Manufacturer": "Siemens",
    "ManufacturersModelName": "Prisma_fit",
    "Modality": "MR",
    "MultibandAccelerationFactor": 4,
    "PartialFourier": 1,
    "PatientPosition": "HFS",
    "PercentPhaseFOV": 100,
    "PhaseEncodingDirection": "j-",
    "PhaseEncodingSteps": 104,
    "PhaseResolution": 1,
    "PixelBandwidth": 2290,
    "ProcedureStepDescription": "video5_generic",
    "ProtocolName": "func_task-figures9",
    "PulseSequenceDetails": "%CustomerSeq%_cmrr_mbep2d_bold",
    "ReceiveCoilActiveElements": "HC1-7;NC1,2",
    "ReceiveCoilName": "HeadNeck_64",
    "ReconMatrixPE": 104,
    "RepetitionTime": 1.49,
    "SAR": 0.0378707,
    "ScanOptions": "FS",
    "ScanningSequence": "EP",
    "SequenceName": "epfid2d1_104",
    "SequenceVariant": "SK_SS",
    "SeriesDescription": "func_task-figures9",
    "SeriesNumber": 21,
    "ShimSetting": [
      638,
      -7205,
      -8852,
      702,
      140,
      -12,
      27,
      -16
    ],
    "SliceThickness": 2,
    "SliceTiming": [
      0,
      0.785,
      0.0975,
      0.8825,
      0.195,
      0.98,
      0.295,
      1.0775,
      0.3925,
      1.175,
      0.49,
      1.275,
      0.5875,
      1.3725,
      0.685,
      0,
      0.785,
      0.0975,
      0.8825,
      0.195,
      0.98,
      0.295,
      1.0775,
      0.3925,
      1.175,
      0.49,
      1.275,
      0.5875,
      1.3725,
      0.685,
      0,
      0.785,
      0.0975,
      0.8825,
      0.195,
      0.98,
      0.295,
      1.0775,
      0.3925,
      1.175,
      0.49,
      1.275,
      0.5875,
      1.3725,
      0.685,
      0,
      0.785,
      0.0975,
      0.8825,
      0.195,
      0.98,
      0.295,
      1.0775,
      0.3925,
      1.175,
      0.49,
      1.275,
      0.5875,
      1.3725,
      0.685
    ],
    "SoftwareVersions": "syngo_MR_E11",
    "SpacingBetweenSlices": 2,
    "StationName": "MRC35049",
    "TaskName": "figures09",
    "TotalReadoutTime": 0.0576811,
    "TxRefAmp": 249.336,
    "dataset": "<unset>",
    "dcmmeta_affine": [
      [
        -1.9875333309173584,
        -0.18647748231887817,
        0.12221857905387878,
        112.47704315185547
      ],
      [
        -0.21109962463378906,
        1.9266966581344604,
        -0.4932309091091156,
        -60.738372802734375
      ],
      [
        0.07175084203481674,
        0.5030565857887268,
        1.934369683265686,
        -67.02875518798828
      ],
      [
        0.0,
        0.0,
        0.0,
        1.0
      ]
    ],
    "dcmmeta_reorient_transform": [
      [
        0.0,
        -1.0,
        0.0,
        103.0
      ],
      [
        1.0,
        0.0,
        0.0,
        0.0
      ],
      [
        0.0,
        0.0,
        1.0,
        0.0
      ],
      [
        0.0,
        0.0,
        0.0,
        1.0
      ]
    ],
    "dcmmeta_shape": [
      104,
      104,
      60,
      409
    ],
    "dcmmeta_slice_dim": 2,
    "dcmmeta_version": 0.6,
    "global": {
      "const": {
        "AcquisitionMatrix": [
          104,
          0,
          0,
          104
        ],
        "AngioFlag": "N",
        "BitsAllocated": 16,
        "BitsStored": 16,
        "BodyPartExamined": "BRAIN",
        "Columns": 832,
        "EchoNumbers": 1,
        "EchoTime": 37.0,
        "EchoTrainLength": 104,
        "FlipAngle": 52.0,
        "HighBit": 15,
        "ImageOrientationPatient": [
          0.99376666883705,
          0.10554980909092,
          0.035875419292,
          -0.0932387399756,
          0.96334835581999,
          -0.251528294048
        ],
        "ImagePositionPatient": [
          -748.85419444339,
          -915.86925365937,
          141.78136516734
        ],
        "ImageType": [
          "ORIGINAL",
          "PRIMARY",
          "M",
          "MB",
          "ND",
          "MOSAIC"
        ],
        "ImagedNucleus": "1H",
        "ImagingFrequency": 123.259238,
        "InPlanePhaseEncodingDirection": "COL",
        "MRAcquisitionType": "2D",
        "MagneticFieldStrength": 3.0,
        "Manufacturer": "SIEMENS",
        "ManufacturerModelName": "Prisma_fit",
        "Modality": "MR",
        "NumberOfAverages": 1.0,
        "NumberOfPhaseEncodingSteps": 104,
        "PercentPhaseFieldOfView": 100.0,
        "PercentSampling": 100.0,
        "PerformedProcedureStepStartTime": "151303.387000",
        "PhotometricInterpretation": "MONOCHROME2",
        "PixelBandwidth": 2290.0,
        "PixelRepresentation": 0,
        "PixelSpacing": [
          2.0,
          2.0
        ],
        "ProtocolName": "func_task-figures9",
        "RepetitionTime": 1490.0,
        "Rows": 832,
        "SAR": 0.03787070255248,
        "SamplesPerPixel": 1,
        "ScanOptions": "FS",
        "ScanningSequence": "EP",
        "SequenceName": "epfid2d1_104",
        "SequenceVariant": [
          "SK",
          "SS"
        ],
        "SeriesDescription": "func_task-figures9",
        "SeriesNumber": 21,
        "SeriesTime": "163038.288000",
        "SliceLocation": -42.976781966833,
        "SliceThickness": 2.0,
        "SmallestImagePixelValue": 0,
        "SoftwareVersions": "syngo MR E11",
        "SpacingBetweenSlices": 2.0000000469426,
        "SpecificCharacterSet": "ISO_IR 100",
        "StudyID": "1",
        "StudyTime": "151303.321000",
        "TransmitCoilName": "Body",
        "VariableFlipAngleFlag": "N",
        "WindowCenterWidthExplanation": "Algo1",
        "dBdt": 0.0
      },
      "slices": {}
    },
    "modality": "bold",
    "run_id": 2,
    "session_id": "012",
    "subject_id": "01",
    "task_id": "figures09",
    "time": {
      "samples": {
        "AcquisitionNumber": [
          1,
          2,
          3,
          4,
          5,
          6,
          7,
          8,
          9,
          10,
          11,
          12,
          13,
          14,
          15,
          16,
          17,
          18,
          19,
          20,
          21,
          22,
          23,
          24,
          25,
          26,
          27,
          28,
          29,
          30,
          31,
          32,
          33,
          34,
          35,
          36,
          37,
          38,
          39,
          40,
          41,
          42,
          43,
          44,
          45,
          46,
          47,
          48,
          49,
          50,
          51,
          52,
          53,
          54,
          55,
          56,
          57,
          58,
          59,
          60,
          61,
          62,
          63,
          64,
          65,
          66,
          67,
          68,
          69,
          70,
          71,
          72,
          73,
          74,
          75,
          76,
          77,
          78,
          79,
          80,
          81,
          82,
          83,
          84,
          85,
          86,
          87,
          88,
          89,
          90,
          91,
          92,
          93,
          94,
          95,
          96,
          97,
          98,
          99,
          100,
          101,
          102,
          103,
          104,
          105,
          106,
          107,
          108,
          109,
          110,
          111,
          112,
          113,
          114,
          115,
          116,
          117,
          118,
          119,
          120,
          121,
          122,
          123,
          124,
          125,
          126,
          127,
          128,
          129,
          130,
          131,
          132,
          133,
          134,
          135,
          136,
          137,
          138,
          139,
          140,
          141,
          142,
          143,
          144,
          145,
          146,
          147,
          148,
          149,
          150,
          151,
          152,
          153,
          154,
          155,
          156,
          157,
          158,
          159,
          160,
          161,
          162,
          163,
          164,
          165,
          166,
          167,
          168,
          169,
          170,
          171,
          172,
          173,
          174,
          175,
          176,
          177,
          178,
          179,
          180,
          181,
          182,
          183,
          184,
          185,
          186,
          187,
          188,
          189,
          190,
          191,
          192,
          193,
          194,
          195,
          196,
          197,
          198,
          199,
          200,
          201,
          202,
          203,
          204,
          205,
          206,
          207,
          208,
          209,
          210,
          211,
          212,
          213,
          214,
          215,
          216,
          217,
          218,
          219,
          220,
          221,
          222,
          223,
          224,
          225,
          226,
          227,
          228,
          229,
          230,
          231,
          232,
          233,
          234,
          235,
          236,
          237,
          238,
          239,
          240,
          241,
          242,
          243,
          244,
          245,
          246,
          247,
          248,
          249,
          250,
          251,
          252,
          253,
          254,
          255,
          256,
          257,
          258,
          259,
          260,
          261,
          262,
          263,
          264,
          265,
          266,
          267,
          268,
          269,
          270,
          271,
          272,
          273,
          274,
          275,
          276,
          277,
          278,
          279,
          280,
          281,
          282,
          283,
          284,
          285,
          286,
          287,
          288,
          289,
          290,
          291,
          292,
          293,
          294,
          295,
          296,
          297,
          298,
          299,
          300,
          301,
          302,
          303,
          304,
          305,
          306,
          307,
          308,
          309,
          310,
          311,
          312,
          313,
          314,
          315,
          316,
          317,
          318,
          319,
          320,
          321,
          322,
          323,
          324,
          325,
          326,
          327,
          328,
          329,
          330,
          331,
          332,
          333,
          334,
          335,
          336,
          337,
          338,
          339,
          340,
          341,
          342,
          343,
          344,
          345,
          346,
          347,
          348,
          349,
          350,
          351,
          352,
          353,
          354,
          355,
          356,
          357,
          358,
          359,
          360,
          361,
          362,
          363,
          364,
          365,
          366,
          367,
          368,
          369,
          370,
          371,
          372,
          373,
          374,
          375,
          376,
          377,
          378,
          379,
          380,
          381,
          382,
          383,
          384,
          385,
          386,
          387,
          388,
          389,
          390,
          391,
          392,
          393,
          394,
          395,
          396,
          397,
          398,
          399,
          400,
          401,
          402,
          403,
          404,
          405,
          406,
          407,
          408,
          409
        ],
        "AcquisitionTime": [
          "162914.777500",
          "162916.267500",
          "162917.757500",
          "162919.247500",
          "162920.737500",
          "162922.227500",
          "162923.717500",
          "162925.207500",
          "162926.697500",
          "162928.187500",
          "162929.677500",
          "162931.167500",
          "162932.657500",
          "162934.147500",
          "162935.637500",
          "162937.127500",
          "162938.617500",
          "162940.107500",
          "162941.597500",
          "162943.087500",
          "162944.577500",
          "162946.067500",
          "162947.557500",
          "162949.047500",
          "162950.537500",
          "162952.027500",
          "162953.517500",
          "162955.007500",
          "162956.497500",
          "162957.987500",
          "162959.477500",
          "163000.967500",
          "163002.457500",
          "163003.947500",
          "163005.437500",
          "163006.927500",
          "163008.417500",
          "163009.907500",
          "163011.397500",
          "163012.887500",
          "163014.377500",
          "163015.867500",
          "163017.357500",
          "163018.847500",
          "163020.337500",
          "163021.827500",
          "163023.317500",
          "163024.807500",
          "163026.297500",
          "163027.787500",
          "163029.277500",
          "163030.767500",
          "163032.257500",
          "163033.747500",
          "163035.237500",
          "163036.727500",
          "163038.217500",
          "163039.707500",
          "163041.197500",
          "163042.687500",
          "163044.177500",
          "163045.667500",
          "163047.157500",
          "163048.647500",
          "163050.137500",
          "163051.627500",
          "163053.117500",
          "163054.607500",
          "163056.097500",
          "163057.587500",
          "163059.077500",
          "163100.567500",
          "163102.057500",
          "163103.547500",
          "163105.037500",
          "163106.527500",
          "163108.017500",
          "163109.507500",
          "163110.997500",
          "163112.487500",
          "163113.977500",
          "163115.467500",
          "163116.957500",
          "163118.447500",
          "163119.937500",
          "163121.427500",
          "163122.917500",
          "163124.407500",
          "163125.897500",
          "163127.387500",
          "163128.877500",
          "163130.367500",
          "163131.857500",
          "163133.347500",
          "163134.837500",
          "163136.327500",
          "163137.817500",
          "163139.307500",
          "163140.797500",
          "163142.287500",
          "163143.777500",
          "163145.267500",
          "163146.757500",
          "163148.247500",
          "163149.737500",
          "163151.227500",
          "163152.717500",
          "163154.207500",
          "163155.697500",
          "163157.187500",
          "163158.677500",
          "163200.167500",
          "163201.657500",
          "163203.147500",
          "163204.637500",
          "163206.127500",
          "163207.617500",
          "163209.107500",
          "163210.597500",
          "163212.087500",
          "163213.577500",
          "163215.067500",
          "163216.557500",
          "163218.047500",
          "163219.537500",
          "163221.027500",
          "163222.517500",
          "163224.007500",
          "163225.497500",
          "163226.987500",
          "163228.477500",
          "163229.967500",
          "163231.457500",
          "163232.947500",
          "163234.437500",
          "163235.927500",
          "163237.417500",
          "163238.907500",
          "163240.397500",
          "163241.887500",
          "163243.377500",
          "163244.867500",
          "163246.357500",
          "163247.847500",
          "163249.337500",
          "163250.827500",
          "163252.317500",
          "163253.807500",
          "163255.297500",
          "163256.787500",
          "163258.277500",
          "163259.767500",
          "163301.257500",
          "163302.747500",
          "163304.237500",
          "163305.727500",
          "163307.217500",
          "163308.707500",
          "163310.197500",
          "163311.687500",
          "163313.177500",
          "163314.667500",
          "163316.157500",
          "163317.647500",
          "163319.137500",
          "163320.627500",
          "163322.117500",
          "163323.607500",
          "163325.097500",
          "163326.587500",
          "163328.077500",
          "163329.567500",
          "163331.057500",
          "163332.547500",
          "163334.037500",
          "163335.527500",
          "163337.017500",
          "163338.507500",
          "163339.997500",
          "163341.487500",
          "163342.977500",
          "163344.467500",
          "163345.957500",
          "163347.447500",
          "163348.937500",
          "163350.427500",
          "163351.917500",
          "163353.407500",
          "163354.897500",
          "163356.387500",
          "163357.877500",
          "163359.367500",
          "163400.857500",
          "163402.347500",
          "163403.837500",
          "163405.327500",
          "163406.817500",
          "163408.307500",
          "163409.797500",
          "163411.287500",
          "163412.777500",
          "163414.267500",
          "163415.757500",
          "163417.247500",
          "163418.737500",
          "163420.227500",
          "163421.717500",
          "163423.207500",
          "163424.697500",
          "163426.187500",
          "163427.677500",
          "163429.167500",
          "163430.657500",
          "163432.147500",
          "163433.637500",
          "163435.127500",
          "163436.617500",
          "163438.107500",
          "163439.597500",
          "163441.087500",
          "163442.577500",
          "163444.067500",
          "163445.557500",
          "163447.047500",
          "163448.537500",
          "163450.027500",
          "163451.517500",
          "163453.007500",
          "163454.497500",
          "163455.987500",
          "163457.477500",
          "163458.967500",
          "163500.457500",
          "163501.947500",
          "163503.437500",
          "163504.927500",
          "163506.417500",
          "163507.907500",
          "163509.397500",
          "163510.887500",
          "163512.377500",
          "163513.867500",
          "163515.357500",
          "163516.847500",
          "163518.337500",
          "163519.827500",
          "163521.317500",
          "163522.807500",
          "163524.297500",
          "163525.787500",
          "163527.277500",
          "163528.767500",
          "163530.257500",
          "163531.747500",
          "163533.237500",
          "163534.727500",
          "163536.217500",
          "163537.707500",
          "163539.197500",
          "163540.687500",
          "163542.177500",
          "163543.667500",
          "163545.157500",
          "163546.647500",
          "163548.137500",
          "163549.627500",
          "163551.117500",
          "163552.607500",
          "163554.097500",
          "163555.587500",
          "163557.077500",
          "163558.567500",
          "163600.057500",
          "163601.547500",
          "163603.037500",
          "163604.527500",
          "163606.017500",
          "163607.507500",
          "163608.997500",
          "163610.487500",
          "163611.977500",
          "163613.467500",
          "163614.957500",
          "163616.447500",
          "163617.937500",
          "163619.427500",
          "163620.917500",
          "163622.407500",
          "163623.897500",
          "163625.387500",
          "163626.877500",
          "163628.367500",
          "163629.857500",
          "163631.347500",
          "163632.837500",
          "163634.327500",
          "163635.817500",
          "163637.307500",
          "163638.797500",
          "163640.287500",
          "163641.777500",
          "163643.267500",
          "163644.757500",
          "163646.247500",
          "163647.737500",
          "163649.227500",
          "163650.717500",
          "163652.207500",
          "163653.697500",
          "163655.187500",
          "163656.677500",
          "163658.167500",
          "163659.657500",
          "163701.147500",
          "163702.637500",
          "163704.127500",
          "163705.617500",
          "163707.107500",
          "163708.597500",
          "163710.087500",
          "163711.577500",
          "163713.067500",
          "163714.557500",
          "163716.047500",
          "163717.537500",
          "163719.027500",
          "163720.517500",
          "163722.007500",
          "163723.497500",
          "163724.987500",
          "163726.477500",
          "163727.967500",
          "163729.457500",
          "163730.947500",
          "163732.437500",
          "163733.927500",
          "163735.417500",
          "163736.907500",
          "163738.397500",
          "163739.887500",
          "163741.377500",
          "163742.867500",
          "163744.357500",
          "163745.847500",
          "163747.337500",
          "163748.827500",
          "163750.317500",
          "163751.807500",
          "163753.297500",
          "163754.787500",
          "163756.277500",
          "163757.767500",
          "163759.257500",
          "163800.747500",
          "163802.237500",
          "163803.727500",
          "163805.217500",
          "163806.707500",
          "163808.197500",
          "163809.687500",
          "163811.177500",
          "163812.667500",
          "163814.157500",
          "163815.647500",
          "163817.137500",
          "163818.627500",
          "163820.117500",
          "163821.607500",
          "163823.097500",
          "163824.587500",
          "163826.077500",
          "163827.567500",
          "163829.057500",
          "163830.547500",
          "163832.037500",
          "163833.527500",
          "163835.017500",
          "163836.507500",
          "163837.997500",
          "163839.487500",
          "163840.977500",
          "163842.467500",
          "163843.957500",
          "163845.447500",
          "163846.937500",
          "163848.427500",
          "163849.917500",
          "163851.407500",
          "163852.897500",
          "163854.387500",
          "163855.877500",
          "163857.367500",
          "163858.857500",
          "163900.347500",
          "163901.837500",
          "163903.327500",
          "163904.817500",
          "163906.307500",
          "163907.797500",
          "163909.287500",
          "163910.777500",
          "163912.267500",
          "163913.757500",
          "163915.247500",
          "163916.737500",
          "163918.227500",
          "163919.717500",
          "163921.207500",
          "163922.697500"
        ],
        "ContentTime": [
          "163038.291000",
          "163038.294000",
          "163038.307000",
          "163038.310000",
          "163038.313000",
          "163038.316000",
          "163038.319000",
          "163038.324000",
          "163038.328000",
          "163038.331000",
          "163038.336000",
          "163038.339000",
          "163038.342000",
          "163038.345000",
          "163038.348000",
          "163038.350000",
          "163038.353000",
          "163038.356000",
          "163038.359000",
          "163038.362000",
          "163038.365000",
          "163038.368000",
          "163038.371000",
          "163038.374000",
          "163038.377000",
          "163058.257000",
          "163058.268000",
          "163058.270000",
          "163058.274000",
          "163058.276000",
          "163058.279000",
          "163058.282000",
          "163058.285000",
          "163058.288000",
          "163058.291000",
          "163058.294000",
          "163058.297000",
          "163058.300000",
          "163058.303000",
          "163058.306000",
          "163058.309000",
          "163058.312000",
          "163058.315000",
          "163058.318000",
          "163058.321000",
          "163058.323000",
          "163118.257000",
          "163118.260000",
          "163118.263000",
          "163118.266000",
          "163118.274000",
          "163118.277000",
          "163118.280000",
          "163118.283000",
          "163118.286000",
          "163118.289000",
          "163118.292000",
          "163118.295000",
          "163118.298000",
          "163118.301000",
          "163118.304000",
          "163118.307000",
          "163118.310000",
          "163118.312000",
          "163118.316000",
          "163118.318000",
          "163138.257000",
          "163138.260000",
          "163138.263000",
          "163138.266000",
          "163138.269000",
          "163138.272000",
          "163138.275000",
          "163138.278000",
          "163138.283000",
          "163138.286000",
          "163138.289000",
          "163138.292000",
          "163138.295000",
          "163138.297000",
          "163138.301000",
          "163138.303000",
          "163138.306000",
          "163138.309000",
          "163138.312000",
          "163138.315000",
          "163158.257000",
          "163158.260000",
          "163158.263000",
          "163158.266000",
          "163158.269000",
          "163158.272000",
          "163158.275000",
          "163158.278000",
          "163158.281000",
          "163158.283000",
          "163158.286000",
          "163158.289000",
          "163158.292000",
          "163158.295000",
          "163158.298000",
          "163158.301000",
          "163158.304000",
          "163158.307000",
          "163158.310000",
          "163158.313000",
          "163238.256000",
          "163238.269000",
          "163238.272000",
          "163238.275000",
          "163238.278000",
          "163238.281000",
          "163238.284000",
          "163238.287000",
          "163238.290000",
          "163238.293000",
          "163238.296000",
          "163238.299000",
          "163238.302000",
          "163238.305000",
          "163238.308000",
          "163238.311000",
          "163238.315000",
          "163238.318000",
          "163238.321000",
          "163238.324000",
          "163238.327000",
          "163238.330000",
          "163238.333000",
          "163238.336000",
          "163238.339000",
          "163238.342000",
          "163238.344000",
          "163238.347000",
          "163238.350000",
          "163318.257000",
          "163318.260000",
          "163318.263000",
          "163318.266000",
          "163318.269000",
          "163318.272000",
          "163318.275000",
          "163318.278000",
          "163318.281000",
          "163318.284000",
          "163318.287000",
          "163318.289000",
          "163318.292000",
          "163318.295000",
          "163318.298000",
          "163318.301000",
          "163318.304000",
          "163318.307000",
          "163318.310000",
          "163318.313000",
          "163318.316000",
          "163318.329000",
          "163318.332000",
          "163318.335000",
          "163318.338000",
          "163318.341000",
          "163318.344000",
          "163358.257000",
          "163358.260000",
          "163358.263000",
          "163358.266000",
          "163358.269000",
          "163358.272000",
          "163358.275000",
          "163358.278000",
          "163358.281000",
          "163358.284000",
          "163358.287000",
          "163358.289000",
          "163358.292000",
          "163358.295000",
          "163358.298000",
          "163358.301000",
          "163358.304000",
          "163358.307000",
          "163358.310000",
          "163358.313000",
          "163358.316000",
          "163358.319000",
          "163358.322000",
          "163358.325000",
          "163358.328000",
          "163358.331000",
          "163358.333000",
          "163438.257000",
          "163438.260000",
          "163438.263000",
          "163438.266000",
          "163438.269000",
          "163438.272000",
          "163438.275000",
          "163438.278000",
          "163438.281000",
          "163438.284000",
          "163438.287000",
          "163438.290000",
          "163438.293000",
          "163438.295000",
          "163438.298000",
          "163438.301000",
          "163438.304000",
          "163438.307000",
          "163438.310000",
          "163438.313000",
          "163438.316000",
          "163438.319000",
          "163438.322000",
          "163438.325000",
          "163438.328000",
          "163438.331000",
          "163438.342000",
          "163518.256000",
          "163518.259000",
