{
  "aor": 0.00030416666666666667,
  "aqi": 0.007470514681372549,
  "bids_meta": {
    "AcquisitionMatrixPE": 104,
    "AcquisitionNumber": 1,
    "AcquisitionTime": "15:45:23.537500",
    "BandwidthPerPixelPhaseEncode": 17.17,
    "BaseResolution": 104,
    "BodyPartExamined": "BRAIN",
    "CogAtlasID": "trm_4c898da401420",
    "ConsistencyInfo": "N4_VE11C_LATEST_20160120",
    "ConversionSoftware": "dcm2niix",
    "ConversionSoftwareVersion": "v1.0.20171215 (OpenJPEG build) GCC7.3.0",
    "DerivedVendorReportedEchoSpacing": 0.000560011,
    "DeviceSerialNumber": "167006",
    "DwellTime": 2.1e-06,
    "EchoTime": 0.037,
    "EchoTrainLength": 104,
    "EffectiveEchoSpacing": 0.000560011,
    "FlipAngle": 52,
    "ImageComments": "Unaliased_MB4_PE3_LB",
    "ImageOrientationPatientDICOM": [
      0.994201,
      0.102153,
      0.0335945,
      -0.0906543,
      0.964218,
      -0.249129
    ],
    "ImageType": [
      "ORIGINAL",
      "PRIMARY",
      "M",
      "MB",
      "ND",
      "MOSAIC"
    ],
    "InPlanePhaseEncodingDirectionDICOM": "COL",
    "InstitutionAddress": "Chemin_Queen-Mary_4565_Montreal_District_CA_H3W_1W5",
    "InstitutionName": "IUGM",
    "InstitutionalDepartmentName": "Department",
    "MRAcquisitionType": "2D",
    "MagneticFieldStrength": 3,
    "Manufacturer": "Siemens",
    "ManufacturersModelName": "Prisma_fit",
    "Modality": "MR",
    "MultibandAccelerationFactor": 4,
    "PartialFourier": 1,
    "PatientPosition": "HFS",
    "PercentPhaseFOV": 100,
    "PhaseEncodingDirection": "j-",
    "PhaseEncodingSteps": 104,
    "PhaseResolution": 1,
    "PixelBandwidth": 2290,
    "ProcedureStepDescription": "video5_generic",
    "ProtocolName": "func_task-figures6",
    "PulseSequenceDetails": "%CustomerSeq%_cmrr_mbep2d_bold",
    "ReceiveCoilActiveElements": "HC1-7;NC1,2",
    "ReceiveCoilName": "HeadNeck_64",
    "ReconMatrixPE": 104,
    "RepetitionTime": 1.49,
    "SAR": 0.039571,
    "ScanOptions": "FS",
    "ScanningSequence": "EP",
    "SequenceName": "epfid2d1_104",
    "SequenceVariant": "SK_SS",
    "SeriesDescription": "func_task-figures6",
    "SeriesNumber": 11,
    "ShimSetting": [
      640,
      -7190,
      -8845,
      705,
      139,
      23,
      28,
      -14
    ],
    "SliceThickness": 2,
    "SliceTiming": [
      0,
      0.785,
      0.0975,
      0.8825,
      0.195,
      0.98,
      0.295,
      1.0775,
      0.3925,
      1.175,
      0.49,
      1.275,
      0.5875,
      1.3725,
      0.685,
      0,
      0.785,
      0.0975,
      0.8825,
      0.195,
      0.98,
      0.295,
      1.0775,
      0.3925,
      1.175,
      0.49,
      1.275,
      0.5875,
      1.3725,
      0.685,
      0,
      0.785,
      0.0975,
      0.8825,
      0.195,
      0.98,
      0.295,
      1.0775,
      0.3925,
      1.175,
      0.49,
      1.275,
      0.5875,
      1.3725,
      0.685,
      0,
      0.785,
      0.0975,
      0.8825,
      0.195,
      0.98,
      0.295,
      1.0775,
      0.3925,
      1.175,
      0.49,
      1.275,
      0.5875,
      1.3725,
      0.685
    ],
    "SoftwareVersions": "syngo_MR_E11",
    "SpacingBetweenSlices": 2,
    "StationName": "MRC35049",
    "TaskName": "figures06",
    "TotalReadoutTime": 0.0576811,
    "TxRefAmp": 254.215,
    "dataset": "<unset>",
    "dcmmeta_affine": [
      [
        -1.9884024858474731,
        -0.18130861222743988,
        0.11568344384431839,
        112.50240325927734
      ],
      [
        -0.20430642366409302,
        1.928436279296875,
        -0.4892774224281311,
        -62.19740295410156
      ],
      [
        0.06718897074460983,
        0.49825766682624817,
        1.9357750415802002,
        -61.488792419433594
      ],
      [
        0.0,
        0.0,
        0.0,
        1.0
      ]
    ],
    "dcmmeta_reorient_transform": [
      [
        0.0,
        -1.0,
        0.0,
        103.0
      ],
      [
        1.0,
        0.0,
        0.0,
        0.0
      ],
      [
        0.0,
        0.0,
        1.0,
        0.0
      ],
      [
        0.0,
        0.0,
        0.0,
        1.0
      ]
    ],
    "dcmmeta_shape": [
      104,
      104,
      60,
      408
    ],
    "dcmmeta_slice_dim": 2,
    "dcmmeta_version": 0.6,
    "global": {
      "const": {
        "AcquisitionMatrix": [
          104,
          0,
          0,
          104
        ],
        "AngioFlag": "N",
        "BitsAllocated": 16,
        "BitsStored": 16,
        "BodyPartExamined": "BRAIN",
        "Columns": 832,
        "EchoNumbers": 1,
        "EchoTime": 37.0,
        "EchoTrainLength": 104,
        "FlipAngle": 52.0,
        "HighBit": 15,
        "ImageOrientationPatient": [
          0.99420125300546,
          0.10215321423367,
          0.03359448383432,
          -0.0906543091053,
          0.96421813993707,
          -0.249128831846
        ],
        "ImagePositionPatient": [
          -751.60978743244,
          -912.74988016798,
          146.74075338796
        ],
        "ImageType": [
          "ORIGINAL",
          "PRIMARY",
          "M",
          "MB",
          "ND",
          "MOSAIC"
        ],
        "ImagedNucleus": "1H",
        "ImagingFrequency": 123.259218,
        "InPlanePhaseEncodingDirection": "COL",
        "MRAcquisitionType": "2D",
        "MagneticFieldStrength": 3.0,
        "Manufacturer": "SIEMENS",
        "ManufacturerModelName": "Prisma_fit",
        "Modality": "MR",
        "NumberOfAverages": 1.0,
        "NumberOfPhaseEncodingSteps": 104,
        "PercentPhaseFieldOfView": 100.0,
        "PercentSampling": 100.0,
        "PerformedProcedureStepStartTime": "151303.387000",
        "PhotometricInterpretation": "MONOCHROME2",
        "PixelBandwidth": 2290.0,
        "PixelRepresentation": 0,
        "PixelSpacing": [
          2.0,
          2.0
        ],
        "ProtocolName": "func_task-figures6",
        "RepetitionTime": 1490.0,
        "Rows": 832,
        "SAR": 0.03957101000946,
        "SamplesPerPixel": 1,
        "ScanOptions": "FS",
        "ScanningSequence": "EP",
        "SequenceName": "epfid2d1_104",
        "SequenceVariant": [
          "SK",
          "SS"
        ],
        "SeriesDescription": "func_task-figures6",
        "SeriesNumber": 11,
        "SeriesTime": "154651.129000",
        "SliceLocation": -37.7910083062,
        "SliceThickness": 2.0,
        "SmallestImagePixelValue": 0,
        "SoftwareVersions": "syngo MR E11",
        "SpacingBetweenSlices": 1.9999999593585,
        "SpecificCharacterSet": "ISO_IR 100",
        "StudyID": "1",
        "StudyTime": "151303.321000",
        "TransmitCoilName": "Body",
        "VariableFlipAngleFlag": "N",
        "WindowCenter": 9013.0,
        "WindowCenterWidthExplanation": "WINDOW1",
        "WindowWidth": 21452.0,
        "dBdt": 0.0
      },
      "slices": {}
    },
    "modality": "bold",
    "run_id": 2,
    "session_id": "012",
    "subject_id": "01",
    "task_id": "figures06",
    "time": {
      "samples": {
        "AcquisitionNumber": [
          1,
          2,
          3,
          4,
          5,
          6,
          7,
          8,
          9,
          10,
          11,
          12,
          13,
          14,
          15,
          16,
          17,
          18,
          19,
          20,
          21,
          22,
          23,
          24,
          25,
          26,
          27,
          28,
          29,
          30,
          31,
          32,
          33,
          34,
          35,
          36,
          37,
          38,
          39,
          40,
          41,
          42,
          43,
          44,
          45,
          46,
          47,
          48,
          49,
          50,
          51,
          52,
          53,
          54,
          55,
          56,
          57,
          58,
          59,
          60,
          61,
          62,
          63,
          64,
          65,
          66,
          67,
          68,
          69,
          70,
          71,
          72,
          73,
          74,
          75,
          76,
          77,
          78,
          79,
          80,
          81,
          82,
          83,
          84,
          85,
          86,
          87,
          88,
          89,
          90,
          91,
          92,
          93,
          94,
          95,
          96,
          97,
          98,
          99,
          100,
          101,
          102,
          103,
          104,
          105,
          106,
          107,
          108,
          109,
          110,
          111,
          112,
          113,
          114,
          115,
          116,
          117,
          118,
          119,
          120,
          121,
          122,
          123,
          124,
          125,
          126,
          127,
          128,
          129,
          130,
          131,
          132,
          133,
          134,
          135,
          136,
          137,
          138,
          139,
          140,
          141,
          142,
          143,
          144,
          145,
          146,
          147,
          148,
          149,
          150,
          151,
          152,
          153,
          154,
          155,
          156,
          157,
          158,
          159,
          160,
          161,
          162,
          163,
          164,
          165,
          166,
          167,
          168,
          169,
          170,
          171,
          172,
          173,
          174,
          175,
          176,
          177,
          178,
          179,
          180,
          181,
          182,
          183,
          184,
          185,
          186,
          187,
          188,
          189,
          190,
          191,
          192,
          193,
          194,
          195,
          196,
          197,
          198,
          199,
          200,
          201,
          202,
          203,
          204,
          205,
          206,
          207,
          208,
          209,
          210,
          211,
          212,
          213,
          214,
          215,
          216,
          217,
          218,
          219,
          220,
          221,
          222,
          223,
          224,
          225,
          226,
          227,
          228,
          229,
          230,
          231,
          232,
          233,
          234,
          235,
          236,
          237,
          238,
          239,
          240,
          241,
          242,
          243,
          244,
          245,
          246,
          247,
          248,
          249,
          250,
          251,
          252,
          253,
          254,
          255,
          256,
          257,
          258,
          259,
          260,
          261,
          262,
          263,
          264,
          265,
          266,
          267,
          268,
          269,
          270,
          271,
          272,
          273,
          274,
          275,
          276,
          277,
          278,
          279,
          280,
          281,
          282,
          283,
          284,
          285,
          286,
          287,
          288,
          289,
          290,
          291,
          292,
          293,
          294,
          295,
          296,
          297,
          298,
          299,
          300,
          301,
          302,
          303,
          304,
          305,
          306,
          307,
          308,
          309,
          310,
          311,
          312,
          313,
          314,
          315,
          316,
          317,
          318,
          319,
          320,
          321,
          322,
          323,
          324,
          325,
          326,
          327,
          328,
          329,
          330,
          331,
          332,
          333,
          334,
          335,
          336,
          337,
          338,
          339,
          340,
          341,
          342,
          343,
          344,
          345,
          346,
          347,
          348,
          349,
          350,
          351,
          352,
          353,
          354,
          355,
          356,
          357,
          358,
          359,
          360,
          361,
          362,
          363,
          364,
          365,
          366,
          367,
          368,
          369,
          370,
          371,
          372,
          373,
          374,
          375,
          376,
          377,
          378,
          379,
          380,
          381,
          382,
          383,
          384,
          385,
          386,
          387,
          388,
          389,
          390,
          391,
          392,
          393,
          394,
          395,
          396,
          397,
          398,
          399,
          400,
          401,
          402,
          403,
          404,
          405,
          406,
          407,
          408
        ],
        "AcquisitionTime": [
          "154523.537500",
          "154525.027500",
          "154526.517500",
          "154528.007500",
          "154529.497500",
          "154530.987500",
          "154532.477500",
          "154533.967500",
          "154535.457500",
          "154536.947500",
          "154538.437500",
          "154539.927500",
          "154541.417500",
          "154542.907500",
          "154544.397500",
          "154545.887500",
          "154547.377500",
          "154548.867500",
          "154550.357500",
          "154551.847500",
          "154553.337500",
          "154554.827500",
          "154556.317500",
          "154557.807500",
          "154559.297500",
          "154600.787500",
          "154602.277500",
          "154603.767500",
          "154605.257500",
          "154606.747500",
          "154608.237500",
          "154609.727500",
          "154611.217500",
          "154612.707500",
          "154614.197500",
          "154615.687500",
          "154617.177500",
          "154618.667500",
          "154620.157500",
          "154621.647500",
          "154623.137500",
          "154624.627500",
          "154626.117500",
          "154627.607500",
          "154629.097500",
          "154630.587500",
          "154632.077500",
          "154633.567500",
          "154635.057500",
          "154636.547500",
          "154638.037500",
          "154639.527500",
          "154641.017500",
          "154642.507500",
          "154643.997500",
          "154645.487500",
          "154646.977500",
          "154648.467500",
          "154649.957500",
          "154651.447500",
          "154652.937500",
          "154654.427500",
          "154655.917500",
          "154657.407500",
          "154658.897500",
          "154700.387500",
          "154701.877500",
          "154703.367500",
          "154704.857500",
          "154706.347500",
          "154707.837500",
          "154709.327500",
          "154710.817500",
          "154712.307500",
          "154713.797500",
          "154715.287500",
          "154716.777500",
          "154718.267500",
          "154719.757500",
          "154721.247500",
          "154722.737500",
          "154724.227500",
          "154725.717500",
          "154727.207500",
          "154728.697500",
          "154730.187500",
          "154731.677500",
          "154733.167500",
          "154734.657500",
          "154736.147500",
          "154737.637500",
          "154739.127500",
          "154740.617500",
          "154742.107500",
          "154743.597500",
          "154745.087500",
          "154746.577500",
          "154748.067500",
          "154749.557500",
          "154751.047500",
          "154752.537500",
          "154754.027500",
          "154755.517500",
          "154757.007500",
          "154758.497500",
          "154759.987500",
          "154801.477500",
          "154802.967500",
          "154804.457500",
          "154805.947500",
          "154807.437500",
          "154808.927500",
          "154810.417500",
          "154811.907500",
          "154813.397500",
          "154814.887500",
          "154816.377500",
          "154817.867500",
          "154819.357500",
          "154820.847500",
          "154822.337500",
          "154823.827500",
          "154825.317500",
          "154826.807500",
          "154828.297500",
          "154829.787500",
          "154831.277500",
          "154832.767500",
          "154834.257500",
          "154835.747500",
          "154837.237500",
          "154838.727500",
          "154840.217500",
          "154841.707500",
          "154843.197500",
          "154844.687500",
          "154846.177500",
          "154847.667500",
          "154849.157500",
          "154850.647500",
          "154852.137500",
          "154853.627500",
          "154855.117500",
          "154856.607500",
          "154858.097500",
          "154859.587500",
          "154901.077500",
          "154902.567500",
          "154904.057500",
          "154905.547500",
          "154907.037500",
          "154908.527500",
          "154910.017500",
          "154911.507500",
          "154912.997500",
          "154914.487500",
          "154915.977500",
          "154917.467500",
          "154918.957500",
          "154920.447500",
          "154921.937500",
          "154923.427500",
          "154924.917500",
          "154926.407500",
          "154927.897500",
          "154929.387500",
          "154930.877500",
          "154932.367500",
          "154933.857500",
          "154935.347500",
          "154936.837500",
          "154938.327500",
          "154939.817500",
          "154941.307500",
          "154942.797500",
          "154944.287500",
          "154945.777500",
          "154947.267500",
          "154948.757500",
          "154950.247500",
          "154951.737500",
          "154953.227500",
          "154954.717500",
          "154956.207500",
          "154957.697500",
          "154959.187500",
          "155000.677500",
          "155002.167500",
          "155003.657500",
          "155005.147500",
          "155006.637500",
          "155008.127500",
          "155009.617500",
          "155011.107500",
          "155012.597500",
          "155014.087500",
          "155015.577500",
          "155017.067500",
          "155018.557500",
          "155020.047500",
          "155021.537500",
          "155023.027500",
          "155024.517500",
          "155026.007500",
          "155027.497500",
          "155028.987500",
          "155030.477500",
          "155031.967500",
          "155033.457500",
          "155034.947500",
          "155036.437500",
          "155037.927500",
          "155039.417500",
          "155040.907500",
          "155042.397500",
          "155043.887500",
          "155045.377500",
          "155046.867500",
          "155048.357500",
          "155049.847500",
          "155051.337500",
          "155052.827500",
          "155054.317500",
          "155055.807500",
          "155057.297500",
          "155058.787500",
          "155100.277500",
          "155101.767500",
          "155103.257500",
          "155104.747500",
          "155106.237500",
          "155107.727500",
          "155109.217500",
          "155110.707500",
          "155112.197500",
          "155113.687500",
          "155115.177500",
          "155116.667500",
          "155118.157500",
          "155119.647500",
          "155121.137500",
          "155122.627500",
          "155124.117500",
          "155125.607500",
          "155127.097500",
          "155128.587500",
          "155130.077500",
          "155131.567500",
          "155133.057500",
          "155134.547500",
          "155136.037500",
          "155137.527500",
          "155139.017500",
          "155140.507500",
          "155141.997500",
          "155143.487500",
          "155144.977500",
          "155146.467500",
          "155147.957500",
          "155149.447500",
          "155150.937500",
          "155152.427500",
          "155153.917500",
          "155155.407500",
          "155156.897500",
          "155158.387500",
          "155159.877500",
          "155201.367500",
          "155202.857500",
          "155204.347500",
          "155205.837500",
          "155207.327500",
          "155208.817500",
          "155210.307500",
          "155211.797500",
          "155213.287500",
          "155214.777500",
          "155216.267500",
          "155217.757500",
          "155219.247500",
          "155220.737500",
          "155222.227500",
          "155223.717500",
          "155225.207500",
          "155226.697500",
          "155228.187500",
          "155229.677500",
          "155231.167500",
          "155232.657500",
          "155234.147500",
          "155235.637500",
          "155237.127500",
          "155238.617500",
          "155240.107500",
          "155241.597500",
          "155243.087500",
          "155244.577500",
          "155246.067500",
          "155247.557500",
          "155249.047500",
          "155250.537500",
          "155252.027500",
          "155253.517500",
          "155255.007500",
          "155256.497500",
          "155257.987500",
          "155259.477500",
          "155300.967500",
          "155302.457500",
          "155303.947500",
          "155305.437500",
          "155306.927500",
          "155308.417500",
          "155309.907500",
          "155311.397500",
          "155312.887500",
          "155314.377500",
          "155315.867500",
          "155317.357500",
          "155318.847500",
          "155320.337500",
          "155321.827500",
          "155323.317500",
          "155324.807500",
          "155326.297500",
          "155327.787500",
          "155329.277500",
          "155330.767500",
          "155332.257500",
          "155333.747500",
          "155335.237500",
          "155336.727500",
          "155338.217500",
          "155339.707500",
          "155341.197500",
          "155342.687500",
          "155344.177500",
          "155345.667500",
          "155347.157500",
          "155348.647500",
          "155350.137500",
          "155351.627500",
          "155353.117500",
          "155354.607500",
          "155356.097500",
          "155357.587500",
          "155359.077500",
          "155400.567500",
          "155402.057500",
          "155403.547500",
          "155405.037500",
          "155406.527500",
          "155408.017500",
          "155409.507500",
          "155410.997500",
          "155412.487500",
          "155413.977500",
          "155415.467500",
          "155416.957500",
          "155418.447500",
          "155419.937500",
          "155421.427500",
          "155422.917500",
          "155424.407500",
          "155425.897500",
          "155427.387500",
          "155428.877500",
          "155430.367500",
          "155431.857500",
          "155433.347500",
          "155434.837500",
          "155436.327500",
          "155437.817500",
          "155439.307500",
          "155440.797500",
          "155442.287500",
          "155443.777500",
          "155445.267500",
          "155446.757500",
          "155448.247500",
          "155449.737500",
          "155451.227500",
          "155452.717500",
          "155454.207500",
          "155455.697500",
          "155457.187500",
          "155458.677500",
          "155500.167500",
          "155501.657500",
          "155503.147500",
          "155504.637500",
          "155506.127500",
          "155507.617500",
          "155509.107500",
          "155510.597500",
          "155512.087500",
          "155513.577500",
          "155515.067500",
          "155516.557500",
          "155518.047500",
          "155519.537500",
          "155521.027500",
          "155522.517500",
          "155524.007500",
          "155525.497500",
          "155526.987500",
          "155528.477500",
          "155529.967500"
        ],
        "ContentTime": [
          "154651.131000",
          "154651.135000",
          "154651.138000",
          "154651.141000",
          "154651.144000",
          "154651.147000",
          "154651.150000",
          "154651.153000",
          "154651.155000",
          "154651.159000",
          "154651.161000",
          "154651.164000",
          "154651.167000",
          "154651.170000",
          "154651.173000",
          "154651.176000",
          "154651.179000",
          "154651.182000",
          "154651.185000",
          "154651.188000",
          "154651.191000",
          "154651.194000",
          "154651.197000",
          "154651.200000",
          "154651.203000",
          "154651.206000",
          "154651.209000",
          "154651.212000",
          "154651.215000",
          "154651.218000",
          "154651.221000",
          "154651.223000",
          "154651.226000",
          "154651.229000",
          "154711.097000",
          "154711.100000",
          "154711.103000",
          "154711.114000",
          "154711.117000",
          "154711.119000",
          "154711.122000",
          "154711.125000",
          "154711.128000",
          "154711.131000",
          "154711.134000",
          "154711.137000",
          "154711.140000",
          "154711.143000",
          "154711.146000",
          "154711.149000",
          "154711.152000",
          "154711.162000",
          "154711.165000",
          "154711.169000",
          "154731.097000",
          "154731.100000",
          "154731.103000",
          "154731.106000",
          "154731.109000",
          "154731.112000",
          "154731.115000",
          "154731.118000",
          "154731.121000",
          "154731.124000",
          "154731.127000",
          "154731.130000",
          "154731.133000",
          "154731.136000",
          "154731.139000",
          "154731.142000",
          "154731.145000",
          "154731.148000",
          "154731.150000",
          "154731.153000",
          "154751.098000",
          "154751.101000",
          "154751.104000",
          "154751.107000",
          "154751.110000",
          "154751.113000",
          "154751.116000",
          "154751.118000",
          "154751.121000",
          "154751.124000",
          "154751.127000",
          "154751.130000",
          "154751.133000",
          "154751.136000",
          "154751.139000",
          "154751.142000",
          "154751.145000",
          "154751.148000",
          "154751.151000",
          "154751.154000",
          "154751.157000",
          "154831.097000",
          "154831.100000",
          "154831.103000",
          "154831.106000",
          "154831.109000",
          "154831.112000",
          "154831.115000",
          "154831.118000",
          "154831.121000",
          "154831.124000",
          "154831.127000",
          "154831.140000",
          "154831.143000",
          "154831.145000",
          "154831.148000",
          "154831.151000",
          "154831.154000",
          "154831.157000",
          "154831.160000",
          "154831.163000",
          "154831.166000",
          "154831.169000",
          "154831.172000",
          "154831.175000",
          "154831.178000",
          "154831.181000",
          "154831.184000",
          "154831.187000",
          "154831.190000",
          "154831.193000",
          "154911.097000",
          "154911.100000",
          "154911.103000",
          "154911.106000",
          "154911.109000",
          "154911.112000",
          "154911.115000",
          "154911.118000",
          "154911.121000",
          "154911.124000",
          "154911.127000",
          "154911.130000",
          "154911.132000",
          "154911.135000",
          "154911.138000",
          "154911.141000",
          "154911.144000",
          "154911.147000",
          "154911.158000",
          "154911.162000",
          "154911.165000",
          "154911.168000",
          "154911.170000",
          "154911.174000",
          "154911.176000",
          "154911.179000",
          "154911.182000",
          "154951.097000",
          "154951.100000",
          "154951.103000",
          "154951.106000",
          "154951.109000",
          "154951.112000",
          "154951.115000",
          "154951.118000",
          "154951.121000",
          "154951.124000",
          "154951.127000",
          "154951.130000",
          "154951.133000",
          "154951.135000",
          "154951.138000",
          "154951.141000",
          "154951.144000",
          "154951.147000",
          "154951.150000",
          "154951.153000",
          "154951.156000",
          "154951.159000",
          "154951.162000",
          "154951.165000",
          "154951.168000",
          "154951.171000",
          "154951.174000",
          "155031.097000",
          "155031.100000",
          "155031.103000",
          "155031.106000",
          "155031.109000",
          "155031.112000",
          "155031.115000",
          "155031.118000",
          "155031.121000",
          "155031.124000",
          "155031.127000",
          "155031.130000",
          "155031.133000",
          "155031.136000",
          "155031.139000",
          "155031.142000",
          "155031.145000",
          "155031.148000",
          "155031.151000",
          "155031.153000",
          "155031.156000",
          "155031.159000",
          "155031.162000",
          "155031.165000",
          "155031.168000",
          "155031.171000",
          "155031.174000",
          "155111.097000",
          "155111.100000",
          "155111.103000",
          "155111.106000",
          "155111.109000",
          "155111.112000",
          "155111.115000",
          "155111.118000",
          "155111.121000",
          "155111.124000",
          "155111.127000",
