{
  "aor": 0.00046442542787286065,
  "aqi": 0.008578235134474328,
  "bids_meta": {
    "AcquisitionMatrixPE": 104,
    "AcquisitionNumber": 1,
    "AcquisitionTime": "17:01:24.835000",
    "BandwidthPerPixelPhaseEncode": 17.17,
    "BaseResolution": 104,
    "BodyPartExamined": "BRAIN",
    "CogAtlasID": "trm_4c898da401420",
    "ConsistencyInfo": "N4_VE11C_LATEST_20160120",
    "ConversionSoftware": "dcm2niix",
    "ConversionSoftwareVersion": "v1.0.20171215 (OpenJPEG build) GCC7.3.0",
    "DerivedVendorReportedEchoSpacing": 0.000560011,
    "DeviceSerialNumber": "167006",
    "DwellTime": 2.1e-06,
    "EchoTime": 0.037,
    "EchoTrainLength": 104,
    "EffectiveEchoSpacing": 0.000560011,
    "FlipAngle": 52,
    "ImageComments": "Unaliased_MB4_PE3_LB",
    "ImageOrientationPatientDICOM": [
      0.993099,
      0.112222,
      0.0340668,
      -0.101926,
      0.969566,
      -0.222604
    ],
    "ImageType": [
      "ORIGINAL",
      "PRIMARY",
      "M",
      "MB",
      "ND",
      "MOSAIC"
    ],
    "InPlanePhaseEncodingDirectionDICOM": "COL",
    "InstitutionAddress": "Chemin_Queen-Mary_4565_Montreal_District_CA_H3W_1W5",
    "InstitutionName": "IUGM",
    "InstitutionalDepartmentName": "Department",
    "MRAcquisitionType": "2D",
    "MagneticFieldStrength": 3,
    "Manufacturer": "Siemens",
    "ManufacturersModelName": "Prisma_fit",
    "Modality": "MR",
    "MultibandAccelerationFactor": 4,
    "PartialFourier": 1,
    "PatientPosition": "HFS",
    "PercentPhaseFOV": 100,
    "PhaseEncodingDirection": "j-",
    "PhaseEncodingSteps": 104,
    "PhaseResolution": 1,
    "PixelBandwidth": 2290,
    "ProcedureStepDescription": "video5_generic",
    "ProtocolName": "func_task-figures11",
    "PulseSequenceDetails": "%CustomerSeq%_cmrr_mbep2d_bold",
    "ReceiveCoilActiveElements": "HC1-7;NC1,2",
    "ReceiveCoilName": "HeadNeck_64",
    "ReconMatrixPE": 104,
    "RepetitionTime": 1.49,
    "SAR": 0.0421444,
    "ScanOptions": "FS",
    "ScanningSequence": "EP",
    "SequenceName": "epfid2d1_104",
    "SequenceVariant": "SK_SS",
    "SeriesDescription": "func_task-figures11",
    "SeriesNumber": 33,
    "ShimSetting": [
      636,
      -7201,
      -8826,
      696,
      117,
      -16,
      55,
      -8
    ],
    "SliceThickness": 2,
    "SliceTiming": [
      0,
      0.785,
      0.1,
      0.8825,
      0.1975,
      0.98,
      0.295,
      1.08,
      0.3925,
      1.1775,
      0.49,
      1.275,
      0.59,
      1.3725,
      0.6875,
      0,
      0.785,
      0.1,
      0.8825,
      0.1975,
      0.98,
      0.295,
      1.08,
      0.3925,
      1.1775,
      0.49,
      1.275,
      0.59,
      1.3725,
      0.6875,
      0,
      0.785,
      0.1,
      0.8825,
      0.1975,
      0.98,
      0.295,
      1.08,
      0.3925,
      1.1775,
      0.49,
      1.275,
      0.59,
      1.3725,
      0.6875,
      0,
      0.785,
      0.1,
      0.8825,
      0.1975,
      0.98,
      0.295,
      1.08,
      0.3925,
      1.1775,
      0.49,
      1.275,
      0.59,
      1.3725,
      0.6875
    ],
    "SoftwareVersions": "syngo_MR_E11",
    "SpacingBetweenSlices": 2,
    "StationName": "MRC35049",
    "TaskName": "figures11",
    "TotalReadoutTime": 0.0576811,
    "TxRefAmp": 259.897,
    "dataset": "<unset>",
    "dcmmeta_affine": [
      [
        -1.9861981868743896,
        -0.20385237038135529,
        0.11602195352315903,
        112.6530532836914
      ],
      [
        -0.22444309294223785,
        1.9391320943832397,
        -0.43519169092178345,
        -61.24989318847656
      ],
      [
        0.06813351809978485,
        0.4452086389064789,
        1.94862699508667,
        -55.64566421508789
      ],
      [
        0.0,
        0.0,
        0.0,
        1.0
      ]
    ],
    "dcmmeta_reorient_transform": [
      [
        0.0,
        -1.0,
        0.0,
        103.0
      ],
      [
        1.0,
        0.0,
        0.0,
        0.0
      ],
      [
        0.0,
        0.0,
        1.0,
        0.0
      ],
      [
        0.0,
        0.0,
        0.0,
        1.0
      ]
    ],
    "dcmmeta_shape": [
      104,
      104,
      60,
      409
    ],
    "dcmmeta_slice_dim": 2,
    "dcmmeta_version": 0.6,
    "global": {
      "const": {
        "AcquisitionMatrix": [
          104,
          0,
          0,
          104
        ],
        "AngioFlag": "N",
        "BitsAllocated": 16,
        "BitsStored": 16,
        "BodyPartExamined": "BRAIN",
        "Columns": 832,
        "EchoNumbers": 1,
        "EchoTime": 37.0,
        "EchoTrainLength": 104,
        "FlipAngle": 52.0,
        "HighBit": 15,
        "ImageOrientationPatient": [
          0.99309907853034,
          0.1122215495481,
          0.03406675856624,
          -0.1019261843257,
          0.96956607390952,
          -0.2226043154849
        ],
        "ImagePositionPatient": [
          -740.43012642827,
          -926.0221066413,
          127.46616788852
        ],
        "ImageType": [
          "ORIGINAL",
          "PRIMARY",
          "M",
          "MB",
          "ND",
          "MOSAIC"
        ],
        "ImagedNucleus": "1H",
        "ImagingFrequency": 123.259213,
        "InPlanePhaseEncodingDirection": "COL",
        "MRAcquisitionType": "2D",
        "MagneticFieldStrength": 3.0,
        "Manufacturer": "SIEMENS",
        "ManufacturerModelName": "Prisma_fit",
        "Modality": "MR",
        "NumberOfAverages": 1.0,
        "NumberOfPhaseEncodingSteps": 104,
        "PercentPhaseFieldOfView": 100.0,
        "PercentSampling": 100.0,
        "PerformedProcedureStepStartTime": "151303.387000",
        "PhotometricInterpretation": "MONOCHROME2",
        "PixelBandwidth": 2290.0,
        "PixelRepresentation": 0,
        "PixelSpacing": [
          2.0,
          2.0
        ],
        "ProtocolName": "func_task-figures11",
        "RepetitionTime": 1490.0,
        "Rows": 832,
        "SAR": 0.04214435450406,
        "SamplesPerPixel": 1,
        "ScanOptions": "FS",
        "ScanningSequence": "EP",
        "SequenceName": "epfid2d1_104",
        "SequenceVariant": [
          "SK",
          "SS"
        ],
        "SeriesDescription": "func_task-figures11",
        "SeriesNumber": 33,
        "SeriesTime": "170258.283000",
        "SliceLocation": -34.353483598334,
        "SliceThickness": 2.0,
        "SmallestImagePixelValue": 0,
        "SoftwareVersions": "syngo MR E11",
        "SpacingBetweenSlices": 2.0000000418241,
        "SpecificCharacterSet": "ISO_IR 100",
        "StudyID": "1",
        "StudyTime": "151303.321000",
        "TransmitCoilName": "Body",
        "VariableFlipAngleFlag": "N",
        "WindowCenterWidthExplanation": "Algo1",
        "dBdt": 0.0
      },
      "slices": {}
    },
    "modality": "bold",
    "run_id": 2,
    "session_id": "012",
    "subject_id": "01",
    "task_id": "figures11",
    "time": {
      "samples": {
        "AcquisitionNumber": [
          1,
          2,
          3,
          4,
          5,
          6,
          7,
          8,
          9,
          10,
          11,
          12,
          13,
          14,
          15,
          16,
          17,
          18,
          19,
          20,
          21,
          22,
          23,
          24,
          25,
          26,
          27,
          28,
          29,
          30,
          31,
          32,
          33,
          34,
          35,
          36,
          37,
          38,
          39,
          40,
          41,
          42,
          43,
          44,
          45,
          46,
          47,
          48,
          49,
          50,
          51,
          52,
          53,
          54,
          55,
          56,
          57,
          58,
          59,
          60,
          61,
          62,
          63,
          64,
          65,
          66,
          67,
          68,
          69,
          70,
          71,
          72,
          73,
          74,
          75,
          76,
          77,
          78,
          79,
          80,
          81,
          82,
          83,
          84,
          85,
          86,
          87,
          88,
          89,
          90,
          91,
          92,
          93,
          94,
          95,
          96,
          97,
          98,
          99,
          100,
          101,
          102,
          103,
          104,
          105,
          106,
          107,
          108,
          109,
          110,
          111,
          112,
          113,
          114,
          115,
          116,
          117,
          118,
          119,
          120,
          121,
          122,
          123,
          124,
          125,
          126,
          127,
          128,
          129,
          130,
          131,
          132,
          133,
          134,
          135,
          136,
          137,
          138,
          139,
          140,
          141,
          142,
          143,
          144,
          145,
          146,
          147,
          148,
          149,
          150,
          151,
          152,
          153,
          154,
          155,
          156,
          157,
          158,
          159,
          160,
          161,
          162,
          163,
          164,
          165,
          166,
          167,
          168,
          169,
          170,
          171,
          172,
          173,
          174,
          175,
          176,
          177,
          178,
          179,
          180,
          181,
          182,
          183,
          184,
          185,
          186,
          187,
          188,
          189,
          190,
          191,
          192,
          193,
          194,
          195,
          196,
          197,
          198,
          199,
          200,
          201,
          202,
          203,
          204,
          205,
          206,
          207,
          208,
          209,
          210,
          211,
          212,
          213,
          214,
          215,
          216,
          217,
          218,
          219,
          220,
          221,
          222,
          223,
          224,
          225,
          226,
          227,
          228,
          229,
          230,
          231,
          232,
          233,
          234,
          235,
          236,
          237,
          238,
          239,
          240,
          241,
          242,
          243,
          244,
          245,
          246,
          247,
          248,
          249,
          250,
          251,
          252,
          253,
          254,
          255,
          256,
          257,
          258,
          259,
          260,
          261,
          262,
          263,
          264,
          265,
          266,
          267,
          268,
          269,
          270,
          271,
          272,
          273,
          274,
          275,
          276,
          277,
          278,
          279,
          280,
          281,
          282,
          283,
          284,
          285,
          286,
          287,
          288,
          289,
          290,
          291,
          292,
          293,
          294,
          295,
          296,
          297,
          298,
          299,
          300,
          301,
          302,
          303,
          304,
          305,
          306,
          307,
          308,
          309,
          310,
          311,
          312,
          313,
          314,
          315,
          316,
          317,
          318,
          319,
          320,
          321,
          322,
          323,
          324,
          325,
          326,
          327,
          328,
          329,
          330,
          331,
          332,
          333,
          334,
          335,
          336,
          337,
          338,
          339,
          340,
          341,
          342,
          343,
          344,
          345,
          346,
          347,
          348,
          349,
          350,
          351,
          352,
          353,
          354,
          355,
          356,
          357,
          358,
          359,
          360,
          361,
          362,
          363,
          364,
          365,
          366,
          367,
          368,
          369,
          370,
          371,
          372,
          373,
          374,
          375,
          376,
          377,
          378,
          379,
          380,
          381,
          382,
          383,
          384,
          385,
          386,
          387,
          388,
          389,
          390,
          391,
          392,
          393,
          394,
          395,
          396,
          397,
          398,
          399,
          400,
          401,
          402,
          403,
          404,
          405,
          406,
          407,
          408,
          409
        ],
        "AcquisitionTime": [
          "170124.835000",
          "170126.325000",
          "170127.815000",
          "170129.305000",
          "170130.795000",
          "170132.285000",
          "170133.775000",
          "170135.265000",
          "170136.755000",
          "170138.245000",
          "170139.735000",
          "170141.225000",
          "170142.715000",
          "170144.205000",
          "170145.695000",
          "170147.185000",
          "170148.675000",
          "170150.165000",
          "170151.655000",
          "170153.145000",
          "170154.635000",
          "170156.125000",
          "170157.615000",
          "170159.105000",
          "170200.595000",
          "170202.085000",
          "170203.575000",
          "170205.065000",
          "170206.555000",
          "170208.045000",
          "170209.535000",
          "170211.025000",
          "170212.515000",
          "170214.005000",
          "170215.495000",
          "170216.985000",
          "170218.475000",
          "170219.965000",
          "170221.455000",
          "170222.945000",
          "170224.435000",
          "170225.925000",
          "170227.415000",
          "170228.905000",
          "170230.395000",
          "170231.885000",
          "170233.375000",
          "170234.865000",
          "170236.355000",
          "170237.845000",
          "170239.335000",
          "170240.825000",
          "170242.315000",
          "170243.805000",
          "170245.295000",
          "170246.785000",
          "170248.275000",
          "170249.765000",
          "170251.255000",
          "170252.745000",
          "170254.235000",
          "170255.725000",
          "170257.215000",
          "170258.705000",
          "170300.195000",
          "170301.685000",
          "170303.175000",
          "170304.665000",
          "170306.155000",
          "170307.645000",
          "170309.135000",
          "170310.625000",
          "170312.115000",
          "170313.605000",
          "170315.095000",
          "170316.585000",
          "170318.075000",
          "170319.565000",
          "170321.055000",
          "170322.545000",
          "170324.035000",
          "170325.525000",
          "170327.015000",
          "170328.505000",
          "170329.995000",
          "170331.485000",
          "170332.975000",
          "170334.465000",
          "170335.955000",
          "170337.445000",
          "170338.935000",
          "170340.425000",
          "170341.915000",
          "170343.405000",
          "170344.895000",
          "170346.385000",
          "170347.875000",
          "170349.365000",
          "170350.855000",
          "170352.345000",
          "170353.835000",
          "170355.325000",
          "170356.815000",
          "170358.305000",
          "170359.795000",
          "170401.285000",
          "170402.775000",
          "170404.265000",
          "170405.755000",
          "170407.245000",
          "170408.735000",
          "170410.225000",
          "170411.715000",
          "170413.205000",
          "170414.695000",
          "170416.185000",
          "170417.675000",
          "170419.165000",
          "170420.655000",
          "170422.145000",
          "170423.635000",
          "170425.125000",
          "170426.615000",
          "170428.105000",
          "170429.595000",
          "170431.085000",
          "170432.575000",
          "170434.065000",
          "170435.555000",
          "170437.045000",
          "170438.535000",
          "170440.025000",
          "170441.515000",
          "170443.005000",
          "170444.495000",
          "170445.985000",
          "170447.475000",
          "170448.965000",
          "170450.455000",
          "170451.945000",
          "170453.435000",
          "170454.925000",
          "170456.415000",
          "170457.905000",
          "170459.395000",
          "170500.885000",
          "170502.375000",
          "170503.865000",
          "170505.355000",
          "170506.845000",
          "170508.335000",
          "170509.825000",
          "170511.315000",
          "170512.805000",
          "170514.295000",
          "170515.785000",
          "170517.275000",
          "170518.765000",
          "170520.255000",
          "170521.745000",
          "170523.235000",
          "170524.725000",
          "170526.215000",
          "170527.705000",
          "170529.195000",
          "170530.685000",
          "170532.175000",
          "170533.665000",
          "170535.155000",
          "170536.645000",
          "170538.135000",
          "170539.625000",
          "170541.115000",
          "170542.605000",
          "170544.095000",
          "170545.585000",
          "170547.075000",
          "170548.565000",
          "170550.055000",
          "170551.545000",
          "170553.035000",
          "170554.525000",
          "170556.015000",
          "170557.505000",
          "170558.995000",
          "170600.485000",
          "170601.975000",
          "170603.465000",
          "170604.955000",
          "170606.445000",
          "170607.935000",
          "170609.425000",
          "170610.915000",
          "170612.405000",
          "170613.895000",
          "170615.385000",
          "170616.875000",
          "170618.365000",
          "170619.855000",
          "170621.345000",
          "170622.835000",
          "170624.325000",
          "170625.815000",
          "170627.305000",
          "170628.795000",
          "170630.285000",
          "170631.775000",
          "170633.265000",
          "170634.755000",
          "170636.245000",
          "170637.735000",
          "170639.225000",
          "170640.715000",
          "170642.205000",
          "170643.695000",
          "170645.185000",
          "170646.675000",
          "170648.165000",
          "170649.655000",
          "170651.145000",
          "170652.635000",
          "170654.125000",
          "170655.615000",
          "170657.105000",
          "170658.595000",
          "170700.085000",
          "170701.575000",
          "170703.065000",
          "170704.555000",
          "170706.045000",
          "170707.535000",
          "170709.025000",
          "170710.515000",
          "170712.005000",
          "170713.495000",
          "170714.985000",
          "170716.475000",
          "170717.965000",
          "170719.455000",
          "170720.945000",
          "170722.435000",
          "170723.925000",
          "170725.415000",
          "170726.905000",
          "170728.395000",
          "170729.885000",
          "170731.375000",
          "170732.865000",
          "170734.355000",
          "170735.845000",
          "170737.335000",
          "170738.825000",
          "170740.315000",
          "170741.805000",
          "170743.295000",
          "170744.785000",
          "170746.275000",
          "170747.765000",
          "170749.255000",
          "170750.745000",
          "170752.235000",
          "170753.725000",
          "170755.215000",
          "170756.705000",
          "170758.195000",
          "170759.685000",
          "170801.175000",
          "170802.665000",
          "170804.155000",
          "170805.645000",
          "170807.135000",
          "170808.625000",
          "170810.115000",
          "170811.605000",
          "170813.095000",
          "170814.585000",
          "170816.075000",
          "170817.565000",
          "170819.055000",
          "170820.545000",
          "170822.035000",
          "170823.525000",
          "170825.015000",
          "170826.505000",
          "170827.995000",
          "170829.485000",
          "170830.975000",
          "170832.465000",
          "170833.955000",
          "170835.445000",
          "170836.935000",
          "170838.425000",
          "170839.915000",
          "170841.405000",
          "170842.895000",
          "170844.385000",
          "170845.875000",
          "170847.365000",
          "170848.855000",
          "170850.345000",
          "170851.835000",
          "170853.325000",
          "170854.815000",
          "170856.305000",
          "170857.795000",
          "170859.285000",
          "170900.775000",
          "170902.265000",
          "170903.755000",
          "170905.245000",
          "170906.735000",
          "170908.225000",
          "170909.715000",
          "170911.205000",
          "170912.695000",
          "170914.185000",
          "170915.675000",
          "170917.165000",
          "170918.655000",
          "170920.145000",
          "170921.635000",
          "170923.125000",
          "170924.615000",
          "170926.105000",
          "170927.595000",
          "170929.085000",
          "170930.575000",
          "170932.065000",
          "170933.555000",
          "170935.045000",
          "170936.535000",
          "170938.025000",
          "170939.515000",
          "170941.005000",
          "170942.495000",
          "170943.985000",
          "170945.475000",
          "170946.965000",
          "170948.455000",
          "170949.945000",
          "170951.435000",
          "170952.925000",
          "170954.415000",
          "170955.905000",
          "170957.395000",
          "170958.885000",
          "171000.375000",
          "171001.865000",
          "171003.355000",
          "171004.845000",
          "171006.335000",
          "171007.825000",
          "171009.315000",
          "171010.805000",
          "171012.295000",
          "171013.785000",
          "171015.275000",
          "171016.765000",
          "171018.255000",
          "171019.745000",
          "171021.235000",
          "171022.725000",
          "171024.215000",
          "171025.705000",
          "171027.195000",
          "171028.685000",
          "171030.175000",
          "171031.665000",
          "171033.155000",
          "171034.645000",
          "171036.135000",
          "171037.625000",
          "171039.115000",
          "171040.605000",
          "171042.095000",
          "171043.585000",
          "171045.075000",
          "171046.565000",
          "171048.055000",
          "171049.545000",
          "171051.035000",
          "171052.525000",
          "171054.015000",
          "171055.505000",
          "171056.995000",
          "171058.485000",
          "171059.975000",
          "171101.465000",
          "171102.955000",
          "171104.445000",
          "171105.935000",
          "171107.425000",
          "171108.915000",
          "171110.405000",
          "171111.895000",
          "171113.385000",
          "171114.875000",
          "171116.365000",
          "171117.855000",
          "171119.345000",
          "171120.835000",
          "171122.325000",
          "171123.815000",
          "171125.305000",
          "171126.795000",
          "171128.285000",
          "171129.775000",
          "171131.265000",
          "171132.755000"
        ],
        "ContentTime": [
          "170258.286000",
          "170258.296000",
          "170258.299000",
          "170258.302000",
          "170258.305000",
          "170258.308000",
          "170258.311000",
          "170258.314000",
          "170258.316000",
          "170258.319000",
          "170258.325000",
          "170258.328000",
          "170258.330000",
          "170258.333000",
          "170258.336000",
          "170258.339000",
          "170258.342000",
          "170258.345000",
          "170258.348000",
          "170258.351000",
          "170258.354000",
          "170258.357000",
          "170258.360000",
          "170258.363000",
          "170258.366000",
          "170258.369000",
          "170258.372000",
          "170258.375000",
          "170258.377000",
          "170258.380000",
          "170258.383000",
          "170258.386000",
          "170318.256000",
          "170318.259000",
          "170318.262000",
          "170318.265000",
          "170318.268000",
          "170318.271000",
          "170318.282000",
          "170318.285000",
          "170318.288000",
          "170318.291000",
          "170318.294000",
          "170318.297000",
          "170318.300000",
          "170318.303000",
          "170318.306000",
          "170318.309000",
          "170318.311000",
          "170318.315000",
          "170318.317000",
          "170318.320000",
          "170338.257000",
          "170338.260000",
          "170338.263000",
          "170338.267000",
          "170338.270000",
          "170338.273000",
          "170338.276000",
          "170338.279000",
          "170338.281000",
          "170338.284000",
          "170338.287000",
          "170338.290000",
          "170338.293000",
          "170338.296000",
          "170338.299000",
          "170338.302000",
          "170338.305000",
          "170338.308000",
          "170338.311000",
          "170338.314000",
          "170338.317000",
          "170358.257000",
          "170358.260000",
          "170358.263000",
          "170358.266000",
          "170358.269000",
          "170358.272000",
          "170358.275000",
          "170358.278000",
          "170358.281000",
          "170358.284000",
          "170358.287000",
          "170358.289000",
          "170358.292000",
          "170358.295000",
          "170358.298000",
          "170358.301000",
          "170358.304000",
          "170358.307000",
          "170358.310000",
          "170358.313000",
          "170418.257000",
          "170418.260000",
          "170418.263000",
          "170418.266000",
          "170418.269000",
          "170418.272000",
          "170418.275000",
          "170418.277000",
          "170418.280000",
          "170418.283000",
          "170418.286000",
          "170418.289000",
          "170418.292000",
          "170418.295000",
          "170418.298000",
          "170418.301000",
          "170418.304000",
          "170418.307000",
          "170418.310000",
          "170418.312000",
          "170458.256000",
          "170458.259000",
          "170458.262000",
          "170458.265000",
          "170458.268000",
          "170458.271000",
          "170458.285000",
          "170458.288000",
          "170458.291000",
          "170458.294000",
          "170458.297000",
          "170458.300000",
          "170458.303000",
          "170458.306000",
          "170458.309000",
          "170458.311000",
          "170458.315000",
          "170458.317000",
          "170458.320000",
          "170458.323000",
          "170458.326000",
          "170458.329000",
          "170458.332000",
          "170458.335000",
          "170458.338000",
          "170458.341000",
          "170458.344000",
          "170458.347000",
          "170458.350000",
          "170538.265000",
          "170538.268000",
          "170538.271000",
          "170538.274000",
          "170538.277000",
          "170538.280000",
          "170538.283000",
          "170538.286000",
          "170538.288000",
          "170538.292000",
          "170538.294000",
          "170538.297000",
          "170538.300000",
          "170538.303000",
          "170538.306000",
          "170538.309000",
          "170538.312000",
          "170538.315000",
          "170538.318000",
          "170538.321000",
          "170538.324000",
          "170538.327000",
          "170538.330000",
          "170538.333000",
          "170538.336000",
          "170538.339000",
          "170538.342000",
          "170618.257000",
          "170618.260000",
          "170618.263000",
          "170618.266000",
          "170618.269000",
          "170618.272000",
          "170618.275000",
          "170618.278000",
          "170618.281000",
          "170618.284000",
          "170618.287000",
          "170618.289000",
          "170618.293000",
          "170618.296000",
          "170618.298000",
          "170618.301000",
          "170618.304000",
          "170618.307000",
          "170618.310000",
          "170618.313000",
          "170618.316000",
          "170618.319000",
          "170618.322000",
          "170618.325000",
          "170618.328000",
          "170618.331000",
          "170618.334000",
          "170658.257000",
          "170658.275000",
          "170658.278000",
          "170658.281000",
          "170658.284000",
          "170658.287000",
          "170658.289000",
          "170658.293000",
          "170658.295000",
          "170658.298000",
          "170658.301000",
          "170658.304000",
          "170658.307000",
          "170658.310000",
          "170658.313000",
          "170658.316000",
          "170658.319000",
          "170658.322000",
          "170658.325000",
          "170658.328000",
          "170658.331000",
          "170658.334000",
