{
  "aor": 0.0003166176470588235,
  "aqi": 0.005654814975490196,
  "bids_meta": {
    "AcquisitionMatrixPE": 104,
    "AcquisitionNumber": 1,
    "AcquisitionTime": "15:56:6.385000",
    "BandwidthPerPixelPhaseEncode": 17.17,
    "BaseResolution": 104,
    "BodyPartExamined": "BRAIN",
    "CogAtlasID": "trm_4c898da401420",
    "ConsistencyInfo": "N4_VE11C_LATEST_20160120",
    "ConversionSoftware": "dcm2niix",
    "ConversionSoftwareVersion": "v1.0.20171215 (OpenJPEG build) GCC7.3.0",
    "DerivedVendorReportedEchoSpacing": 0.000560011,
    "DeviceSerialNumber": "167006",
    "DwellTime": 2.1e-06,
    "EchoTime": 0.037,
    "EchoTrainLength": 104,
    "EffectiveEchoSpacing": 0.000560011,
    "FlipAngle": 52,
    "ImageComments": "Unaliased_MB4_PE3_LB",
    "ImageOrientationPatientDICOM": [
      0.994201,
      0.102153,
      0.0335945,
      -0.0906543,
      0.964218,
      -0.249129
    ],
    "ImageType": [
      "ORIGINAL",
      "PRIMARY",
      "M",
      "MB",
      "ND",
      "MOSAIC"
    ],
    "InPlanePhaseEncodingDirectionDICOM": "COL",
    "InstitutionAddress": "Chemin_Queen-Mary_4565_Montreal_District_CA_H3W_1W5",
    "InstitutionName": "IUGM",
    "InstitutionalDepartmentName": "Department",
    "MRAcquisitionType": "2D",
    "MagneticFieldStrength": 3,
    "Manufacturer": "Siemens",
    "ManufacturersModelName": "Prisma_fit",
    "Modality": "MR",
    "MultibandAccelerationFactor": 4,
    "PartialFourier": 1,
    "PatientPosition": "HFS",
    "PercentPhaseFOV": 100,
    "PhaseEncodingDirection": "j-",
    "PhaseEncodingSteps": 104,
    "PhaseResolution": 1,
    "PixelBandwidth": 2290,
    "ProcedureStepDescription": "video5_generic",
    "ProtocolName": "func_task-figures7",
    "PulseSequenceDetails": "%CustomerSeq%_cmrr_mbep2d_bold",
    "ReceiveCoilActiveElements": "HC1-7;NC1,2",
    "ReceiveCoilName": "HeadNeck_64",
    "ReconMatrixPE": 104,
    "RepetitionTime": 1.49,
    "SAR": 0.039571,
    "ScanOptions": "FS",
    "ScanningSequence": "EP",
    "SequenceName": "epfid2d1_104",
    "SequenceVariant": "SK_SS",
    "SeriesDescription": "func_task-figures7",
    "SeriesNumber": 13,
    "ShimSetting": [
      640,
      -7190,
      -8845,
      705,
      139,
      23,
      28,
      -14
    ],
    "SliceThickness": 2,
    "SliceTiming": [
      0,
      0.7825,
      0.0975,
      0.8825,
      0.195,
      0.98,
      0.295,
      1.0775,
      0.3925,
      1.175,
      0.49,
      1.2725,
      0.5875,
      1.3725,
      0.685,
      0,
      0.7825,
      0.0975,
      0.8825,
      0.195,
      0.98,
      0.295,
      1.0775,
      0.3925,
      1.175,
      0.49,
      1.2725,
      0.5875,
      1.3725,
      0.685,
      0,
      0.7825,
      0.0975,
      0.8825,
      0.195,
      0.98,
      0.295,
      1.0775,
      0.3925,
      1.175,
      0.49,
      1.2725,
      0.5875,
      1.3725,
      0.685,
      0,
      0.7825,
      0.0975,
      0.8825,
      0.195,
      0.98,
      0.295,
      1.0775,
      0.3925,
      1.175,
      0.49,
      1.2725,
      0.5875,
      1.3725,
      0.685
    ],
    "SoftwareVersions": "syngo_MR_E11",
    "SpacingBetweenSlices": 2,
    "StationName": "MRC35049",
    "TaskName": "figures07",
    "TotalReadoutTime": 0.0576811,
    "TxRefAmp": 254.215,
    "dataset": "<unset>",
    "dcmmeta_affine": [
      [
        -1.9884024858474731,
        -0.18130861222743988,
        0.11568344384431839,
        112.50240325927734
      ],
      [
        -0.20430642366409302,
        1.928436279296875,
        -0.4892774224281311,
        -62.19740295410156
      ],
      [
        0.06718897074460983,
        0.49825766682624817,
        1.9357750415802002,
        -61.488792419433594
      ],
      [
        0.0,
        0.0,
        0.0,
        1.0
      ]
    ],
    "dcmmeta_reorient_transform": [
      [
        0.0,
        -1.0,
        0.0,
        103.0
      ],
      [
        1.0,
        0.0,
        0.0,
        0.0
      ],
      [
        0.0,
        0.0,
        1.0,
        0.0
      ],
      [
        0.0,
        0.0,
        0.0,
        1.0
      ]
    ],
    "dcmmeta_shape": [
      104,
      104,
      60,
      408
    ],
    "dcmmeta_slice_dim": 2,
    "dcmmeta_version": 0.6,
    "global": {
      "const": {
        "AcquisitionMatrix": [
          104,
          0,
          0,
          104
        ],
        "AngioFlag": "N",
        "BitsAllocated": 16,
        "BitsStored": 16,
        "BodyPartExamined": "BRAIN",
        "Columns": 832,
        "EchoNumbers": 1,
        "EchoTime": 37.0,
        "EchoTrainLength": 104,
        "FlipAngle": 52.0,
        "HighBit": 15,
        "ImageOrientationPatient": [
          0.99420125300546,
          0.10215321423367,
          0.03359448383432,
          -0.0906543091053,
          0.96421813993707,
          -0.249128831846
        ],
        "ImagePositionPatient": [
          -751.60978743244,
          -912.74988016798,
          146.74075338796
        ],
        "ImageType": [
          "ORIGINAL",
          "PRIMARY",
          "M",
          "MB",
          "ND",
          "MOSAIC"
        ],
        "ImagedNucleus": "1H",
        "ImagingFrequency": 123.259225,
        "InPlanePhaseEncodingDirection": "COL",
        "MRAcquisitionType": "2D",
        "MagneticFieldStrength": 3.0,
        "Manufacturer": "SIEMENS",
        "ManufacturerModelName": "Prisma_fit",
        "Modality": "MR",
        "NumberOfAverages": 1.0,
        "NumberOfPhaseEncodingSteps": 104,
        "PercentPhaseFieldOfView": 100.0,
        "PercentSampling": 100.0,
        "PerformedProcedureStepStartTime": "151303.387000",
        "PhotometricInterpretation": "MONOCHROME2",
        "PixelBandwidth": 2290.0,
        "PixelRepresentation": 0,
        "PixelSpacing": [
          2.0,
          2.0
        ],
        "ProtocolName": "func_task-figures7",
        "RepetitionTime": 1490.0,
        "Rows": 832,
        "SAR": 0.03957101000946,
        "SamplesPerPixel": 1,
        "ScanOptions": "FS",
        "ScanningSequence": "EP",
        "SequenceName": "epfid2d1_104",
        "SequenceVariant": [
          "SK",
          "SS"
        ],
        "SeriesDescription": "func_task-figures7",
        "SeriesNumber": 13,
        "SeriesTime": "155706.715000",
        "SliceLocation": -37.7910083062,
        "SliceThickness": 2.0,
        "SmallestImagePixelValue": 0,
        "SoftwareVersions": "syngo MR E11",
        "SpacingBetweenSlices": 1.9999999593585,
        "SpecificCharacterSet": "ISO_IR 100",
        "StudyID": "1",
        "StudyTime": "151303.321000",
        "TransmitCoilName": "Body",
        "VariableFlipAngleFlag": "N",
        "WindowCenterWidthExplanation": "Algo1",
        "dBdt": 0.0
      },
      "slices": {}
    },
    "modality": "bold",
    "run_id": 2,
    "session_id": "012",
    "subject_id": "01",
    "task_id": "figures07",
    "time": {
      "samples": {
        "AcquisitionNumber": [
          1,
          2,
          3,
          4,
          5,
          6,
          7,
          8,
          9,
          10,
          11,
          12,
          13,
          14,
          15,
          16,
          17,
          18,
          19,
          20,
          21,
          22,
          23,
          24,
          25,
          26,
          27,
          28,
          29,
          30,
          31,
          32,
          33,
          34,
          35,
          36,
          37,
          38,
          39,
          40,
          41,
          42,
          43,
          44,
          45,
          46,
          47,
          48,
          49,
          50,
          51,
          52,
          53,
          54,
          55,
          56,
          57,
          58,
          59,
          60,
          61,
          62,
          63,
          64,
          65,
          66,
          67,
          68,
          69,
          70,
          71,
          72,
          73,
          74,
          75,
          76,
          77,
          78,
          79,
          80,
          81,
          82,
          83,
          84,
          85,
          86,
          87,
          88,
          89,
          90,
          91,
          92,
          93,
          94,
          95,
          96,
          97,
          98,
          99,
          100,
          101,
          102,
          103,
          104,
          105,
          106,
          107,
          108,
          109,
          110,
          111,
          112,
          113,
          114,
          115,
          116,
          117,
          118,
          119,
          120,
          121,
          122,
          123,
          124,
          125,
          126,
          127,
          128,
          129,
          130,
          131,
          132,
          133,
          134,
          135,
          136,
          137,
          138,
          139,
          140,
          141,
          142,
          143,
          144,
          145,
          146,
          147,
          148,
          149,
          150,
          151,
          152,
          153,
          154,
          155,
          156,
          157,
          158,
          159,
          160,
          161,
          162,
          163,
          164,
          165,
          166,
          167,
          168,
          169,
          170,
          171,
          172,
          173,
          174,
          175,
          176,
          177,
          178,
          179,
          180,
          181,
          182,
          183,
          184,
          185,
          186,
          187,
          188,
          189,
          190,
          191,
          192,
          193,
          194,
          195,
          196,
          197,
          198,
          199,
          200,
          201,
          202,
          203,
          204,
          205,
          206,
          207,
          208,
          209,
          210,
          211,
          212,
          213,
          214,
          215,
          216,
          217,
          218,
          219,
          220,
          221,
          222,
          223,
          224,
          225,
          226,
          227,
          228,
          229,
          230,
          231,
          232,
          233,
          234,
          235,
          236,
          237,
          238,
          239,
          240,
          241,
          242,
          243,
          244,
          245,
          246,
          247,
          248,
          249,
          250,
          251,
          252,
          253,
          254,
          255,
          256,
          257,
          258,
          259,
          260,
          261,
          262,
          263,
          264,
          265,
          266,
          267,
          268,
          269,
          270,
          271,
          272,
          273,
          274,
          275,
          276,
          277,
          278,
          279,
          280,
          281,
          282,
          283,
          284,
          285,
          286,
          287,
          288,
          289,
          290,
          291,
          292,
          293,
          294,
          295,
          296,
          297,
          298,
          299,
          300,
          301,
          302,
          303,
          304,
          305,
          306,
          307,
          308,
          309,
          310,
          311,
          312,
          313,
          314,
          315,
          316,
          317,
          318,
          319,
          320,
          321,
          322,
          323,
          324,
          325,
          326,
          327,
          328,
          329,
          330,
          331,
          332,
          333,
          334,
          335,
          336,
          337,
          338,
          339,
          340,
          341,
          342,
          343,
          344,
          345,
          346,
          347,
          348,
          349,
          350,
          351,
          352,
          353,
          354,
          355,
          356,
          357,
          358,
          359,
          360,
          361,
          362,
          363,
          364,
          365,
          366,
          367,
          368,
          369,
          370,
          371,
          372,
          373,
          374,
          375,
          376,
          377,
          378,
          379,
          380,
          381,
          382,
          383,
          384,
          385,
          386,
          387,
          388,
          389,
          390,
          391,
          392,
          393,
          394,
          395,
          396,
          397,
          398,
          399,
          400,
          401,
          402,
          403,
          404,
          405,
          406,
          407,
          408
        ],
        "AcquisitionTime": [
          "155606.385000",
          "155607.875000",
          "155609.365000",
          "155610.855000",
          "155612.345000",
          "155613.835000",
          "155615.325000",
          "155616.815000",
          "155618.305000",
          "155619.795000",
          "155621.285000",
          "155622.775000",
          "155624.265000",
          "155625.755000",
          "155627.245000",
          "155628.735000",
          "155630.225000",
          "155631.715000",
          "155633.205000",
          "155634.695000",
          "155636.185000",
          "155637.675000",
          "155639.165000",
          "155640.655000",
          "155642.145000",
          "155643.635000",
          "155645.125000",
          "155646.615000",
          "155648.105000",
          "155649.595000",
          "155651.085000",
          "155652.575000",
          "155654.065000",
          "155655.555000",
          "155657.045000",
          "155658.535000",
          "155700.025000",
          "155701.515000",
          "155703.005000",
          "155704.495000",
          "155705.985000",
          "155707.475000",
          "155708.965000",
          "155710.455000",
          "155711.945000",
          "155713.435000",
          "155714.925000",
          "155716.415000",
          "155717.905000",
          "155719.395000",
          "155720.885000",
          "155722.375000",
          "155723.865000",
          "155725.355000",
          "155726.845000",
          "155728.335000",
          "155729.825000",
          "155731.315000",
          "155732.805000",
          "155734.295000",
          "155735.785000",
          "155737.275000",
          "155738.765000",
          "155740.255000",
          "155741.745000",
          "155743.235000",
          "155744.725000",
          "155746.215000",
          "155747.705000",
          "155749.195000",
          "155750.685000",
          "155752.175000",
          "155753.665000",
          "155755.155000",
          "155756.645000",
          "155758.135000",
          "155759.625000",
          "155801.115000",
          "155802.605000",
          "155804.095000",
          "155805.585000",
          "155807.075000",
          "155808.565000",
          "155810.055000",
          "155811.545000",
          "155813.035000",
          "155814.525000",
          "155816.015000",
          "155817.505000",
          "155818.995000",
          "155820.485000",
          "155821.975000",
          "155823.465000",
          "155824.955000",
          "155826.445000",
          "155827.935000",
          "155829.425000",
          "155830.915000",
          "155832.405000",
          "155833.895000",
          "155835.385000",
          "155836.875000",
          "155838.365000",
          "155839.855000",
          "155841.345000",
          "155842.835000",
          "155844.325000",
          "155845.815000",
          "155847.305000",
          "155848.795000",
          "155850.285000",
          "155851.775000",
          "155853.265000",
          "155854.755000",
          "155856.245000",
          "155857.735000",
          "155859.225000",
          "155900.715000",
          "155902.205000",
          "155903.695000",
          "155905.185000",
          "155906.675000",
          "155908.165000",
          "155909.655000",
          "155911.145000",
          "155912.635000",
          "155914.125000",
          "155915.615000",
          "155917.105000",
          "155918.595000",
          "155920.085000",
          "155921.575000",
          "155923.065000",
          "155924.555000",
          "155926.045000",
          "155927.535000",
          "155929.025000",
          "155930.515000",
          "155932.005000",
          "155933.495000",
          "155934.985000",
          "155936.475000",
          "155937.965000",
          "155939.455000",
          "155940.945000",
          "155942.435000",
          "155943.925000",
          "155945.415000",
          "155946.905000",
          "155948.395000",
          "155949.885000",
          "155951.375000",
          "155952.865000",
          "155954.355000",
          "155955.845000",
          "155957.335000",
          "155958.825000",
          "160000.315000",
          "160001.805000",
          "160003.295000",
          "160004.785000",
          "160006.275000",
          "160007.765000",
          "160009.255000",
          "160010.745000",
          "160012.235000",
          "160013.725000",
          "160015.215000",
          "160016.705000",
          "160018.195000",
          "160019.685000",
          "160021.175000",
          "160022.665000",
          "160024.155000",
          "160025.645000",
          "160027.135000",
          "160028.625000",
          "160030.115000",
          "160031.605000",
          "160033.095000",
          "160034.585000",
          "160036.075000",
          "160037.565000",
          "160039.055000",
          "160040.545000",
          "160042.035000",
          "160043.525000",
          "160045.015000",
          "160046.505000",
          "160047.995000",
          "160049.485000",
          "160050.975000",
          "160052.465000",
          "160053.955000",
          "160055.445000",
          "160056.935000",
          "160058.425000",
          "160059.915000",
          "160101.405000",
          "160102.895000",
          "160104.385000",
          "160105.875000",
          "160107.365000",
          "160108.855000",
          "160110.345000",
          "160111.835000",
          "160113.325000",
          "160114.815000",
          "160116.305000",
          "160117.795000",
          "160119.285000",
          "160120.775000",
          "160122.265000",
          "160123.755000",
          "160125.245000",
          "160126.735000",
          "160128.225000",
          "160129.715000",
          "160131.205000",
          "160132.695000",
          "160134.185000",
          "160135.675000",
          "160137.165000",
          "160138.655000",
          "160140.145000",
          "160141.635000",
          "160143.125000",
          "160144.615000",
          "160146.105000",
          "160147.595000",
          "160149.085000",
          "160150.575000",
          "160152.065000",
          "160153.555000",
          "160155.045000",
          "160156.535000",
          "160158.025000",
          "160159.515000",
          "160201.005000",
          "160202.495000",
          "160203.985000",
          "160205.475000",
          "160206.965000",
          "160208.455000",
          "160209.945000",
          "160211.435000",
          "160212.925000",
          "160214.415000",
          "160215.905000",
          "160217.395000",
          "160218.885000",
          "160220.375000",
          "160221.865000",
          "160223.355000",
          "160224.845000",
          "160226.335000",
          "160227.825000",
          "160229.315000",
          "160230.805000",
          "160232.295000",
          "160233.785000",
          "160235.275000",
          "160236.765000",
          "160238.255000",
          "160239.745000",
          "160241.235000",
          "160242.725000",
          "160244.215000",
          "160245.705000",
          "160247.195000",
          "160248.685000",
          "160250.175000",
          "160251.665000",
          "160253.155000",
          "160254.645000",
          "160256.135000",
          "160257.625000",
          "160259.115000",
          "160300.605000",
          "160302.095000",
          "160303.585000",
          "160305.075000",
          "160306.565000",
          "160308.055000",
          "160309.545000",
          "160311.035000",
          "160312.525000",
          "160314.015000",
          "160315.505000",
          "160316.995000",
          "160318.485000",
          "160319.975000",
          "160321.465000",
          "160322.955000",
          "160324.445000",
          "160325.935000",
          "160327.425000",
          "160328.915000",
          "160330.405000",
          "160331.895000",
          "160333.385000",
          "160334.875000",
          "160336.365000",
          "160337.855000",
          "160339.345000",
          "160340.835000",
          "160342.325000",
          "160343.815000",
          "160345.305000",
          "160346.795000",
          "160348.285000",
          "160349.775000",
          "160351.265000",
          "160352.755000",
          "160354.245000",
          "160355.735000",
          "160357.225000",
          "160358.715000",
          "160400.205000",
          "160401.695000",
          "160403.185000",
          "160404.675000",
          "160406.165000",
          "160407.655000",
          "160409.145000",
          "160410.635000",
          "160412.125000",
          "160413.615000",
          "160415.105000",
          "160416.595000",
          "160418.085000",
          "160419.575000",
          "160421.065000",
          "160422.555000",
          "160424.045000",
          "160425.535000",
          "160427.025000",
          "160428.515000",
          "160430.005000",
          "160431.495000",
          "160432.985000",
          "160434.475000",
          "160435.965000",
          "160437.455000",
          "160438.945000",
          "160440.435000",
          "160441.925000",
          "160443.415000",
          "160444.905000",
          "160446.395000",
          "160447.885000",
          "160449.375000",
          "160450.865000",
          "160452.355000",
          "160453.845000",
          "160455.335000",
          "160456.825000",
          "160458.315000",
          "160459.805000",
          "160501.295000",
          "160502.785000",
          "160504.275000",
          "160505.765000",
          "160507.255000",
          "160508.745000",
          "160510.235000",
          "160511.725000",
          "160513.215000",
          "160514.705000",
          "160516.195000",
          "160517.685000",
          "160519.175000",
          "160520.665000",
          "160522.155000",
          "160523.645000",
          "160525.135000",
          "160526.625000",
          "160528.115000",
          "160529.605000",
          "160531.095000",
          "160532.585000",
          "160534.075000",
          "160535.565000",
          "160537.055000",
          "160538.545000",
          "160540.035000",
          "160541.525000",
          "160543.015000",
          "160544.505000",
          "160545.995000",
          "160547.485000",
          "160548.975000",
          "160550.465000",
          "160551.955000",
          "160553.445000",
          "160554.935000",
          "160556.425000",
          "160557.915000",
          "160559.405000",
          "160600.895000",
          "160602.385000",
          "160603.875000",
          "160605.365000",
          "160606.855000",
          "160608.345000",
          "160609.835000",
          "160611.325000",
          "160612.815000"
        ],
        "ContentTime": [
          "155706.718000",
          "155706.722000",
          "155706.725000",
          "155706.728000",
          "155706.731000",
          "155706.734000",
          "155726.688000",
          "155726.691000",
          "155726.694000",
          "155726.697000",
          "155726.700000",
          "155726.708000",
          "155726.711000",
          "155726.714000",
          "155726.717000",
          "155726.720000",
          "155726.723000",
          "155726.726000",
          "155726.729000",
          "155726.732000",
          "155726.735000",
          "155726.737000",
          "155726.741000",
          "155726.746000",
          "155726.749000",
          "155726.752000",
          "155746.688000",
          "155746.691000",
          "155746.694000",
          "155746.697000",
          "155746.700000",
          "155746.703000",
          "155746.706000",
          "155746.709000",
          "155746.712000",
          "155746.715000",
          "155746.724000",
          "155746.727000",
          "155746.730000",
          "155746.733000",
          "155746.736000",
          "155746.739000",
          "155746.742000",
          "155746.745000",
          "155746.748000",
          "155746.750000",
          "155806.688000",
          "155806.691000",
          "155806.694000",
          "155806.697000",
          "155806.700000",
          "155806.703000",
          "155806.706000",
          "155806.709000",
          "155806.712000",
          "155806.715000",
          "155806.718000",
          "155806.720000",
          "155806.723000",
          "155806.726000",
          "155806.729000",
          "155806.732000",
          "155806.742000",
          "155806.745000",
          "155806.748000",
          "155806.751000",
          "155826.688000",
          "155826.691000",
          "155826.695000",
          "155826.698000",
          "155826.701000",
          "155826.704000",
          "155826.707000",
          "155826.710000",
          "155826.713000",
          "155826.715000",
          "155826.719000",
          "155826.722000",
          "155826.724000",
          "155826.727000",
          "155826.731000",
          "155826.734000",
          "155826.737000",
          "155826.740000",
          "155826.743000",
          "155826.746000",
          "155846.688000",
          "155846.691000",
          "155846.694000",
          "155846.697000",
          "155846.700000",
          "155846.703000",
          "155846.706000",
          "155846.718000",
          "155846.721000",
          "155846.723000",
          "155846.727000",
          "155846.729000",
          "155846.732000",
          "155846.735000",
          "155846.738000",
          "155846.741000",
          "155846.744000",
          "155846.752000",
          "155846.755000",
          "155846.758000",
          "155846.761000",
          "155926.688000",
          "155926.691000",
          "155926.699000",
          "155926.702000",
          "155926.705000",
          "155926.707000",
          "155926.710000",
          "155926.713000",
          "155926.716000",
          "155926.719000",
          "155926.722000",
          "155926.725000",
          "155926.728000",
          "155926.731000",
          "155926.734000",
          "155926.737000",
          "155926.740000",
          "155926.743000",
          "155926.746000",
          "155926.749000",
          "155926.752000",
          "155926.755000",
          "155926.778000",
          "155926.781000",
          "155926.784000",
          "155926.787000",
          "155926.790000",
          "160006.688000",
          "160006.692000",
          "160006.695000",
          "160006.699000",
          "160006.702000",
          "160006.705000",
          "160006.708000",
          "160006.711000",
          "160006.714000",
          "160006.717000",
          "160006.720000",
          "160006.723000",
          "160006.726000",
          "160006.729000",
          "160006.732000",
          "160006.735000",
          "160006.737000",
          "160006.740000",
          "160006.743000",
          "160006.746000",
          "160006.749000",
          "160006.752000",
          "160006.755000",
          "160006.758000",
          "160006.761000",
          "160006.764000",
          "160046.688000",
          "160046.691000",
          "160046.694000",
          "160046.697000",
          "160046.700000",
          "160046.703000",
          "160046.706000",
          "160046.709000",
          "160046.719000",
          "160046.722000",
          "160046.725000",
          "160046.728000",
          "160046.731000",
          "160046.734000",
          "160046.736000",
          "160046.739000",
          "160046.742000",
          "160046.745000",
          "160046.748000",
          "160046.751000",
          "160046.762000",
          "160046.765000",
          "160046.768000",
          "160046.771000",
          "160046.774000",
          "160046.777000",
          "160046.780000",
          "160126.688000",
          "160126.691000",
          "160126.694000",
          "160126.697000",
          "160126.700000",
          "160126.703000",
          "160126.706000",
          "160126.709000",
          "160126.712000",
          "160126.715000",
          "160126.718000",
          "160126.721000",
          "160126.724000",
          "160126.727000",
          "160126.730000",
          "160126.733000",
          "160126.736000",
          "160126.739000",
          "160126.741000",
          "160126.744000",
          "160126.747000",
          "160126.759000",
          "160126.762000",
          "160126.765000",
          "160126.768000",
          "160126.771000",
          "160126.773000",
          "160206.688000",
          "160206.691000",
          "160206.694000",
          "160206.697000",
          "160206.700000",
