{
  "aor": 0.00027602439024390244,
  "aqi": 0.0056886125365853656,
  "bids_meta": {
    "AcquisitionMatrixPE": 104,
    "AcquisitionNumber": 1,
    "AcquisitionTime": "15:34:44.512500",
    "BandwidthPerPixelPhaseEncode": 17.17,
    "BaseResolution": 104,
    "BodyPartExamined": "BRAIN",
    "CogAtlasID": "trm_4c898da401420",
    "ConsistencyInfo": "N4_VE11C_LATEST_20160120",
    "ConversionSoftware": "dcm2niix",
    "ConversionSoftwareVersion": "v1.0.20171215 (OpenJPEG build) GCC7.3.0",
    "DerivedVendorReportedEchoSpacing": 0.000560011,
    "DeviceSerialNumber": "167006",
    "DwellTime": 2.1e-06,
    "EchoTime": 0.037,
    "EchoTrainLength": 104,
    "EffectiveEchoSpacing": 0.000560011,
    "FlipAngle": 52,
    "ImageComments": "Unaliased_MB4_PE3_LB",
    "ImageOrientationPatientDICOM": [
      0.994201,
      0.102153,
      0.0335945,
      -0.0906543,
      0.964218,
      -0.249129
    ],
    "ImageType": [
      "ORIGINAL",
      "PRIMARY",
      "M",
      "MB",
      "ND",
      "MOSAIC"
    ],
    "InPlanePhaseEncodingDirectionDICOM": "COL",
    "InstitutionAddress": "Chemin_Queen-Mary_4565_Montreal_District_CA_H3W_1W5",
    "InstitutionName": "IUGM",
    "InstitutionalDepartmentName": "Department",
    "MRAcquisitionType": "2D",
    "MagneticFieldStrength": 3,
    "Manufacturer": "Siemens",
    "ManufacturersModelName": "Prisma_fit",
    "Modality": "MR",
    "MultibandAccelerationFactor": 4,
    "PartialFourier": 1,
    "PatientPosition": "HFS",
    "PercentPhaseFOV": 100,
    "PhaseEncodingDirection": "j-",
    "PhaseEncodingSteps": 104,
    "PhaseResolution": 1,
    "PixelBandwidth": 2290,
    "ProcedureStepDescription": "video5_generic",
    "ProtocolName": "func_task-figures5",
    "PulseSequenceDetails": "%CustomerSeq%_cmrr_mbep2d_bold",
    "ReceiveCoilActiveElements": "HC1-7;NC1,2",
    "ReceiveCoilName": "HeadNeck_64",
    "ReconMatrixPE": 104,
    "RepetitionTime": 1.49,
    "SAR": 0.0395719,
    "ScanOptions": "FS",
    "ScanningSequence": "EP",
    "SequenceName": "epfid2d1_104",
    "SequenceVariant": "SK_SS",
    "SeriesDescription": "func_task-figures5",
    "SeriesNumber": 9,
    "ShimSetting": [
      640,
      -7190,
      -8845,
      705,
      139,
      23,
      28,
      -14
    ],
    "SliceThickness": 2,
    "SliceTiming": [
      0,
      0.785,
      0.0975,
      0.8825,
      0.195,
      0.98,
      0.295,
      1.0775,
      0.3925,
      1.175,
      0.49,
      1.275,
      0.5875,
      1.3725,
      0.685,
      0,
      0.785,
      0.0975,
      0.8825,
      0.195,
      0.98,
      0.295,
      1.0775,
      0.3925,
      1.175,
      0.49,
      1.275,
      0.5875,
      1.3725,
      0.685,
      0,
      0.785,
      0.0975,
      0.8825,
      0.195,
      0.98,
      0.295,
      1.0775,
      0.3925,
      1.175,
      0.49,
      1.275,
      0.5875,
      1.3725,
      0.685,
      0,
      0.785,
      0.0975,
      0.8825,
      0.195,
      0.98,
      0.295,
      1.0775,
      0.3925,
      1.175,
      0.49,
      1.275,
      0.5875,
      1.3725,
      0.685
    ],
    "SoftwareVersions": "syngo_MR_E11",
    "SpacingBetweenSlices": 2,
    "StationName": "MRC35049",
    "TaskName": "figures05",
    "TotalReadoutTime": 0.0576811,
    "TxRefAmp": 254.215,
    "dataset": "<unset>",
    "dcmmeta_affine": [
      [
        -1.9884024858474731,
        -0.18130861222743988,
        0.11568344384431839,
        112.50240325927734
      ],
      [
        -0.20430642366409302,
        1.928436279296875,
        -0.4892774224281311,
        -62.19740295410156
      ],
      [
        0.06718897074460983,
        0.49825766682624817,
        1.9357750415802002,
        -61.488792419433594
      ],
      [
        0.0,
        0.0,
        0.0,
        1.0
      ]
    ],
    "dcmmeta_reorient_transform": [
      [
        0.0,
        -1.0,
        0.0,
        103.0
      ],
      [
        1.0,
        0.0,
        0.0,
        0.0
      ],
      [
        0.0,
        0.0,
        1.0,
        0.0
      ],
      [
        0.0,
        0.0,
        0.0,
        1.0
      ]
    ],
    "dcmmeta_shape": [
      104,
      104,
      60,
      410
    ],
    "dcmmeta_slice_dim": 2,
    "dcmmeta_version": 0.6,
    "global": {
      "const": {
        "AcquisitionMatrix": [
          104,
          0,
          0,
          104
        ],
        "AngioFlag": "N",
        "BitsAllocated": 16,
        "BitsStored": 16,
        "BodyPartExamined": "BRAIN",
        "Columns": 832,
        "EchoNumbers": 1,
        "EchoTime": 37.0,
        "EchoTrainLength": 104,
        "FlipAngle": 52.0,
        "HighBit": 15,
        "ImageOrientationPatient": [
          0.99420125300546,
          0.10215321423367,
          0.03359448383432,
          -0.0906543091053,
          0.96421813993707,
          -0.249128831846
        ],
        "ImagePositionPatient": [
          -751.60978743244,
          -912.74988016798,
          146.74075338796
        ],
        "ImageType": [
          "ORIGINAL",
          "PRIMARY",
          "M",
          "MB",
          "ND",
          "MOSAIC"
        ],
        "ImagedNucleus": "1H",
        "ImagingFrequency": 123.259206,
        "InPlanePhaseEncodingDirection": "COL",
        "MRAcquisitionType": "2D",
        "MagneticFieldStrength": 3.0,
        "Manufacturer": "SIEMENS",
        "ManufacturerModelName": "Prisma_fit",
        "Modality": "MR",
        "NumberOfAverages": 1.0,
        "NumberOfPhaseEncodingSteps": 104,
        "PercentPhaseFieldOfView": 100.0,
        "PercentSampling": 100.0,
        "PerformedProcedureStepStartTime": "151303.387000",
        "PhotometricInterpretation": "MONOCHROME2",
        "PixelBandwidth": 2290.0,
        "PixelRepresentation": 0,
        "PixelSpacing": [
          2.0,
          2.0
        ],
        "ProtocolName": "func_task-figures5",
        "RepetitionTime": 1490.0,
        "Rows": 832,
        "SAR": 0.03957194385191,
        "SamplesPerPixel": 1,
        "ScanOptions": "FS",
        "ScanningSequence": "EP",
        "SequenceName": "epfid2d1_104",
        "SequenceVariant": [
          "SK",
          "SS"
        ],
        "SeriesDescription": "func_task-figures5",
        "SeriesNumber": 9,
        "SeriesTime": "153618.292000",
        "SliceLocation": -37.7910083062,
        "SliceThickness": 2.0,
        "SmallestImagePixelValue": 0,
        "SoftwareVersions": "syngo MR E11",
        "SpacingBetweenSlices": 1.9999999593585,
        "SpecificCharacterSet": "ISO_IR 100",
        "StudyID": "1",
        "StudyTime": "151303.321000",
        "TransmitCoilName": "Body",
        "VariableFlipAngleFlag": "N",
        "WindowCenterWidthExplanation": "Algo1",
        "dBdt": 0.0
      },
      "slices": {}
    },
    "modality": "bold",
    "run_id": 2,
    "session_id": "012",
    "subject_id": "01",
    "task_id": "figures05",
    "time": {
      "samples": {
        "AcquisitionNumber": [
          1,
          2,
          3,
          4,
          5,
          6,
          7,
          8,
          9,
          10,
          11,
          12,
          13,
          14,
          15,
          16,
          17,
          18,
          19,
          20,
          21,
          22,
          23,
          24,
          25,
          26,
          27,
          28,
          29,
          30,
          31,
          32,
          33,
          34,
          35,
          36,
          37,
          38,
          39,
          40,
          41,
          42,
          43,
          44,
          45,
          46,
          47,
          48,
          49,
          50,
          51,
          52,
          53,
          54,
          55,
          56,
          57,
          58,
          59,
          60,
          61,
          62,
          63,
          64,
          65,
          66,
          67,
          68,
          69,
          70,
          71,
          72,
          73,
          74,
          75,
          76,
          77,
          78,
          79,
          80,
          81,
          82,
          83,
          84,
          85,
          86,
          87,
          88,
          89,
          90,
          91,
          92,
          93,
          94,
          95,
          96,
          97,
          98,
          99,
          100,
          101,
          102,
          103,
          104,
          105,
          106,
          107,
          108,
          109,
          110,
          111,
          112,
          113,
          114,
          115,
          116,
          117,
          118,
          119,
          120,
          121,
          122,
          123,
          124,
          125,
          126,
          127,
          128,
          129,
          130,
          131,
          132,
          133,
          134,
          135,
          136,
          137,
          138,
          139,
          140,
          141,
          142,
          143,
          144,
          145,
          146,
          147,
          148,
          149,
          150,
          151,
          152,
          153,
          154,
          155,
          156,
          157,
          158,
          159,
          160,
          161,
          162,
          163,
          164,
          165,
          166,
          167,
          168,
          169,
          170,
          171,
          172,
          173,
          174,
          175,
          176,
          177,
          178,
          179,
          180,
          181,
          182,
          183,
          184,
          185,
          186,
          187,
          188,
          189,
          190,
          191,
          192,
          193,
          194,
          195,
          196,
          197,
          198,
          199,
          200,
          201,
          202,
          203,
          204,
          205,
          206,
          207,
          208,
          209,
          210,
          211,
          212,
          213,
          214,
          215,
          216,
          217,
          218,
          219,
          220,
          221,
          222,
          223,
          224,
          225,
          226,
          227,
          228,
          229,
          230,
          231,
          232,
          233,
          234,
          235,
          236,
          237,
          238,
          239,
          240,
          241,
          242,
          243,
          244,
          245,
          246,
          247,
          248,
          249,
          250,
          251,
          252,
          253,
          254,
          255,
          256,
          257,
          258,
          259,
          260,
          261,
          262,
          263,
          264,
          265,
          266,
          267,
          268,
          269,
          270,
          271,
          272,
          273,
          274,
          275,
          276,
          277,
          278,
          279,
          280,
          281,
          282,
          283,
          284,
          285,
          286,
          287,
          288,
          289,
          290,
          291,
          292,
          293,
          294,
          295,
          296,
          297,
          298,
          299,
          300,
          301,
          302,
          303,
          304,
          305,
          306,
          307,
          308,
          309,
          310,
          311,
          312,
          313,
          314,
          315,
          316,
          317,
          318,
          319,
          320,
          321,
          322,
          323,
          324,
          325,
          326,
          327,
          328,
          329,
          330,
          331,
          332,
          333,
          334,
          335,
          336,
          337,
          338,
          339,
          340,
          341,
          342,
          343,
          344,
          345,
          346,
          347,
          348,
          349,
          350,
          351,
          352,
          353,
          354,
          355,
          356,
          357,
          358,
          359,
          360,
          361,
          362,
          363,
          364,
          365,
          366,
          367,
          368,
          369,
          370,
          371,
          372,
          373,
          374,
          375,
          376,
          377,
          378,
          379,
          380,
          381,
          382,
          383,
          384,
          385,
          386,
          387,
          388,
          389,
          390,
          391,
          392,
          393,
          394,
          395,
          396,
          397,
          398,
          399,
          400,
          401,
          402,
          403,
          404,
          405,
          406,
          407,
          408,
          409,
          410
        ],
        "AcquisitionTime": [
          "153444.512500",
          "153446.002500",
          "153447.492500",
          "153448.982500",
          "153450.472500",
          "153451.962500",
          "153453.452500",
          "153454.942500",
          "153456.432500",
          "153457.922500",
          "153459.412500",
          "153500.902500",
          "153502.392500",
          "153503.882500",
          "153505.372500",
          "153506.862500",
          "153508.352500",
          "153509.842500",
          "153511.332500",
          "153512.822500",
          "153514.312500",
          "153515.802500",
          "153517.292500",
          "153518.782500",
          "153520.272500",
          "153521.762500",
          "153523.252500",
          "153524.742500",
          "153526.232500",
          "153527.722500",
          "153529.212500",
          "153530.702500",
          "153532.192500",
          "153533.682500",
          "153535.172500",
          "153536.662500",
          "153538.152500",
          "153539.642500",
          "153541.132500",
          "153542.622500",
          "153544.112500",
          "153545.602500",
          "153547.092500",
          "153548.582500",
          "153550.072500",
          "153551.562500",
          "153553.052500",
          "153554.542500",
          "153556.032500",
          "153557.522500",
          "153559.012500",
          "153600.502500",
          "153601.992500",
          "153603.482500",
          "153604.972500",
          "153606.462500",
          "153607.952500",
          "153609.442500",
          "153610.932500",
          "153612.422500",
          "153613.912500",
          "153615.402500",
          "153616.892500",
          "153618.382500",
          "153619.872500",
          "153621.362500",
          "153622.852500",
          "153624.342500",
          "153625.832500",
          "153627.322500",
          "153628.812500",
          "153630.302500",
          "153631.792500",
          "153633.282500",
          "153634.772500",
          "153636.262500",
          "153637.752500",
          "153639.242500",
          "153640.732500",
          "153642.222500",
          "153643.712500",
          "153645.202500",
          "153646.692500",
          "153648.182500",
          "153649.672500",
          "153651.162500",
          "153652.652500",
          "153654.142500",
          "153655.632500",
          "153657.122500",
          "153658.612500",
          "153700.102500",
          "153701.592500",
          "153703.082500",
          "153704.572500",
          "153706.062500",
          "153707.552500",
          "153709.042500",
          "153710.532500",
          "153712.022500",
          "153713.512500",
          "153715.002500",
          "153716.492500",
          "153717.982500",
          "153719.472500",
          "153720.962500",
          "153722.452500",
          "153723.942500",
          "153725.432500",
          "153726.922500",
          "153728.412500",
          "153729.902500",
          "153731.392500",
          "153732.882500",
          "153734.372500",
          "153735.862500",
          "153737.352500",
          "153738.842500",
          "153740.332500",
          "153741.822500",
          "153743.312500",
          "153744.802500",
          "153746.292500",
          "153747.782500",
          "153749.272500",
          "153750.762500",
          "153752.252500",
          "153753.742500",
          "153755.232500",
          "153756.722500",
          "153758.212500",
          "153759.702500",
          "153801.192500",
          "153802.682500",
          "153804.172500",
          "153805.662500",
          "153807.152500",
          "153808.642500",
          "153810.132500",
          "153811.622500",
          "153813.112500",
          "153814.602500",
          "153816.092500",
          "153817.582500",
          "153819.072500",
          "153820.562500",
          "153822.052500",
          "153823.542500",
          "153825.032500",
          "153826.522500",
          "153828.012500",
          "153829.502500",
          "153830.992500",
          "153832.482500",
          "153833.972500",
          "153835.462500",
          "153836.952500",
          "153838.442500",
          "153839.932500",
          "153841.422500",
          "153842.912500",
          "153844.402500",
          "153845.892500",
          "153847.382500",
          "153848.872500",
          "153850.362500",
          "153851.852500",
          "153853.342500",
          "153854.832500",
          "153856.322500",
          "153857.812500",
          "153859.302500",
          "153900.792500",
          "153902.282500",
          "153903.772500",
          "153905.262500",
          "153906.752500",
          "153908.242500",
          "153909.732500",
          "153911.222500",
          "153912.712500",
          "153914.202500",
          "153915.692500",
          "153917.182500",
          "153918.672500",
          "153920.162500",
          "153921.652500",
          "153923.142500",
          "153924.632500",
          "153926.122500",
          "153927.612500",
          "153929.102500",
          "153930.592500",
          "153932.082500",
          "153933.572500",
          "153935.062500",
          "153936.552500",
          "153938.042500",
          "153939.532500",
          "153941.022500",
          "153942.512500",
          "153944.002500",
          "153945.492500",
          "153946.982500",
          "153948.472500",
          "153949.962500",
          "153951.452500",
          "153952.942500",
          "153954.432500",
          "153955.922500",
          "153957.412500",
          "153958.902500",
          "154000.392500",
          "154001.882500",
          "154003.372500",
          "154004.862500",
          "154006.352500",
          "154007.842500",
          "154009.332500",
          "154010.822500",
          "154012.312500",
          "154013.802500",
          "154015.292500",
          "154016.782500",
          "154018.272500",
          "154019.762500",
          "154021.252500",
          "154022.742500",
          "154024.232500",
          "154025.722500",
          "154027.212500",
          "154028.702500",
          "154030.192500",
          "154031.682500",
          "154033.172500",
          "154034.662500",
          "154036.152500",
          "154037.642500",
          "154039.132500",
          "154040.622500",
          "154042.112500",
          "154043.602500",
          "154045.092500",
          "154046.582500",
          "154048.072500",
          "154049.562500",
          "154051.052500",
          "154052.542500",
          "154054.032500",
          "154055.522500",
          "154057.012500",
          "154058.502500",
          "154059.992500",
          "154101.482500",
          "154102.972500",
          "154104.462500",
          "154105.952500",
          "154107.442500",
          "154108.932500",
          "154110.422500",
          "154111.912500",
          "154113.402500",
          "154114.892500",
          "154116.382500",
          "154117.872500",
          "154119.362500",
          "154120.852500",
          "154122.342500",
          "154123.832500",
          "154125.322500",
          "154126.812500",
          "154128.302500",
          "154129.792500",
          "154131.282500",
          "154132.772500",
          "154134.262500",
          "154135.752500",
          "154137.242500",
          "154138.732500",
          "154140.222500",
          "154141.712500",
          "154143.202500",
          "154144.692500",
          "154146.182500",
          "154147.672500",
          "154149.162500",
          "154150.652500",
          "154152.142500",
          "154153.632500",
          "154155.122500",
          "154156.612500",
          "154158.102500",
          "154159.592500",
          "154201.082500",
          "154202.572500",
          "154204.062500",
          "154205.552500",
          "154207.042500",
          "154208.532500",
          "154210.022500",
          "154211.512500",
          "154213.002500",
          "154214.492500",
          "154215.982500",
          "154217.472500",
          "154218.962500",
          "154220.452500",
          "154221.942500",
          "154223.432500",
          "154224.922500",
          "154226.412500",
          "154227.902500",
          "154229.392500",
          "154230.882500",
          "154232.372500",
          "154233.862500",
          "154235.352500",
          "154236.842500",
          "154238.332500",
          "154239.822500",
          "154241.312500",
          "154242.802500",
          "154244.292500",
          "154245.782500",
          "154247.272500",
          "154248.762500",
          "154250.252500",
          "154251.742500",
          "154253.232500",
          "154254.722500",
          "154256.212500",
          "154257.702500",
          "154259.192500",
          "154300.682500",
          "154302.172500",
          "154303.662500",
          "154305.152500",
          "154306.642500",
          "154308.132500",
          "154309.622500",
          "154311.112500",
          "154312.602500",
          "154314.092500",
          "154315.582500",
          "154317.072500",
          "154318.562500",
          "154320.052500",
          "154321.542500",
          "154323.032500",
          "154324.522500",
          "154326.012500",
          "154327.502500",
          "154328.992500",
          "154330.482500",
          "154331.972500",
          "154333.462500",
          "154334.952500",
          "154336.442500",
          "154337.932500",
          "154339.422500",
          "154340.912500",
          "154342.402500",
          "154343.892500",
          "154345.382500",
          "154346.872500",
          "154348.362500",
          "154349.852500",
          "154351.342500",
          "154352.832500",
          "154354.322500",
          "154355.812500",
          "154357.302500",
          "154358.792500",
          "154400.282500",
          "154401.772500",
          "154403.262500",
          "154404.752500",
          "154406.242500",
          "154407.732500",
          "154409.222500",
          "154410.712500",
          "154412.202500",
          "154413.692500",
          "154415.182500",
          "154416.672500",
          "154418.162500",
          "154419.652500",
          "154421.142500",
          "154422.632500",
          "154424.122500",
          "154425.612500",
          "154427.102500",
          "154428.592500",
          "154430.082500",
          "154431.572500",
          "154433.062500",
          "154434.552500",
          "154436.042500",
          "154437.532500",
          "154439.022500",
          "154440.512500",
          "154442.002500",
          "154443.492500",
          "154444.982500",
          "154446.472500",
          "154447.962500",
          "154449.452500",
          "154450.942500",
          "154452.432500",
          "154453.922500"
        ],
        "ContentTime": [
          "153618.295000",
          "153618.298000",
          "153618.301000",
          "153618.304000",
          "153618.307000",
          "153618.310000",
          "153618.313000",
          "153618.316000",
          "153618.319000",
          "153618.322000",
          "153618.325000",
          "153618.328000",
          "153618.331000",
          "153618.333000",
          "153618.336000",
          "153618.339000",
          "153618.342000",
          "153618.345000",
          "153618.348000",
          "153618.351000",
          "153618.354000",
          "153618.357000",
          "153618.360000",
          "153618.363000",
          "153618.365000",
          "153618.382000",
          "153618.385000",
          "153618.394000",
          "153618.397000",
          "153618.400000",
          "153618.403000",
          "153618.406000",
          "153618.409000",
          "153618.412000",
          "153618.415000",
          "153618.418000",
          "153638.257000",
          "153638.260000",
          "153638.268000",
          "153638.271000",
          "153638.274000",
          "153638.277000",
          "153638.280000",
          "153638.283000",
          "153638.286000",
          "153638.289000",
          "153638.292000",
          "153638.295000",
          "153638.297000",
          "153638.300000",
          "153638.303000",
          "153638.306000",
          "153638.309000",
          "153638.312000",
          "153638.315000",
          "153638.318000",
          "153638.326000",
          "153658.256000",
          "153658.259000",
          "153658.262000",
          "153658.265000",
          "153658.268000",
          "153658.271000",
          "153658.274000",
          "153658.277000",
          "153658.280000",
          "153658.283000",
          "153658.286000",
          "153658.289000",
          "153658.292000",
          "153658.295000",
          "153658.298000",
          "153658.300000",
          "153658.303000",
          "153658.306000",
          "153658.309000",
          "153658.312000",
          "153718.256000",
          "153718.259000",
          "153718.262000",
          "153718.265000",
          "153718.268000",
          "153718.271000",
          "153718.274000",
          "153718.277000",
          "153718.280000",
          "153718.283000",
          "153718.286000",
          "153718.288000",
          "153718.291000",
          "153718.295000",
          "153718.298000",
          "153718.300000",
          "153718.303000",
          "153718.306000",
          "153718.309000",
          "153718.312000",
          "153758.257000",
          "153758.260000",
          "153758.263000",
          "153758.266000",
          "153758.269000",
          "153758.272000",
          "153758.275000",
          "153758.278000",
          "153758.281000",
          "153758.284000",
          "153758.287000",
          "153758.289000",
          "153758.292000",
          "153758.295000",
          "153758.298000",
          "153758.301000",
          "153758.304000",
          "153758.307000",
          "153758.310000",
          "153758.313000",
          "153758.316000",
          "153758.319000",
          "153758.331000",
          "153758.334000",
          "153758.337000",
          "153758.340000",
          "153758.343000",
          "153758.346000",
          "153758.349000",
          "153758.352000",
          "153758.355000",
          "153758.358000",
          "153838.257000",
          "153838.260000",
          "153838.263000",
          "153838.266000",
          "153838.269000",
          "153838.272000",
          "153838.275000",
          "153838.278000",
          "153838.281000",
          "153838.283000",
          "153838.286000",
          "153838.289000",
          "153838.292000",
          "153838.295000",
          "153838.298000",
          "153838.301000",
          "153838.304000",
          "153838.307000",
          "153838.310000",
          "153838.313000",
          "153838.316000",
          "153838.319000",
          "153838.321000",
          "153838.325000",
          "153838.327000",
          "153838.330000",
          "153838.333000",
          "153918.256000",
          "153918.259000",
          "153918.262000",
          "153918.265000",
          "153918.268000",
          "153918.271000",
          "153918.274000",
          "153918.276000",
          "153918.279000",
          "153918.282000",
          "153918.285000",
          "153918.288000",
          "153918.291000",
          "153918.294000",
          "153918.297000",
          "153918.300000",
          "153918.303000",
          "153918.306000",
          "153918.309000",
          "153918.312000",
          "153918.315000",
          "153918.318000",
          "153918.321000",
          "153918.324000",
          "153918.327000",
          "153918.329000",
          "153918.332000",
          "153958.256000",
          "153958.259000",
          "153958.262000",
          "153958.265000",
          "153958.268000",
          "153958.271000",
          "153958.274000",
          "153958.277000",
          "153958.280000",
          "153958.283000",
          "153958.286000",
          "153958.289000",
          "153958.292000",
          "153958.295000",
          "153958.298000",
          "153958.301000",
          "153958.304000",
          "153958.307000",
          "153958.310000",
          "153958.313000",
          "153958.316000",
          "153958.319000",
          "153958.326000",
          "153958.329000",
          "153958.332000",
          "153958.335000",
          "154038.257000",
          "154038.260000",
          "154038.263000",
          "154038.266000",
          "154038.269000",
          "154038.272000",
          "154038.275000",
