{
  "aor": 0.0012359756097560977,
  "aqi": 0.007337420926829268,
  "bids_meta": {
    "AcquisitionMatrixPE": 104,
    "AcquisitionNumber": 1,
    "AcquisitionTime": "10:09:54.630000",
    "BandwidthPerPixelPhaseEncode": 17.17,
    "BaseResolution": 104,
    "BodyPartExamined": "BRAIN",
    "CogAtlasID": "trm_4c898da401420",
    "ConsistencyInfo": "N4_VE11C_LATEST_20160120",
    "ConversionSoftware": "dcm2niix",
    "ConversionSoftwareVersion": "v1.0.20171215 (OpenJPEG build) GCC7.3.0",
    "DerivedVendorReportedEchoSpacing": 0.000560011,
    "DeviceSerialNumber": "167006",
    "DwellTime": 2.1e-06,
    "EchoTime": 0.037,
    "EchoTrainLength": 104,
    "EffectiveEchoSpacing": 0.000560011,
    "FlipAngle": 52,
    "ImageComments": "Unaliased_MB4_PE3_LB",
    "ImageOrientationPatientDICOM": [
      0.999382,
      0.0303119,
      -0.0177839,
      -0.0350739,
      0.892135,
      -0.450405
    ],
    "ImageType": [
      "ORIGINAL",
      "PRIMARY",
      "M",
      "MB",
      "ND",
      "MOSAIC"
    ],
    "InPlanePhaseEncodingDirectionDICOM": "COL",
    "InstitutionAddress": "Chemin_Queen-Mary_4565_Montreal_District_CA_H3W_1W5",
    "InstitutionName": "IUGM",
    "InstitutionalDepartmentName": "Department",
    "MRAcquisitionType": "2D",
    "MagneticFieldStrength": 3,
    "Manufacturer": "Siemens",
    "ManufacturersModelName": "Prisma_fit",
    "Modality": "MR",
    "MultibandAccelerationFactor": 4,
    "PartialFourier": 1,
    "PatientPosition": "HFS",
    "PercentPhaseFOV": 100,
    "PhaseEncodingDirection": "j-",
    "PhaseEncodingSteps": 104,
    "PhaseResolution": 1,
    "PixelBandwidth": 2290,
    "ProcedureStepDescription": "video5_generic",
    "ProtocolName": "func_task-figures11",
    "PulseSequenceDetails": "%CustomerSeq%_cmrr_mbep2d_bold",
    "ReceiveCoilActiveElements": "HC1-7;NC1,2",
    "ReceiveCoilName": "HeadNeck_64",
    "ReconMatrixPE": 104,
    "RepetitionTime": 1.49,
    "SAR": 0.0366368,
    "ScanOptions": "FS",
    "ScanningSequence": "EP",
    "SequenceName": "epfid2d1_104",
    "SequenceVariant": "SK_SS",
    "SeriesDescription": "func_task-figures11",
    "SeriesNumber": 15,
    "ShimSetting": [
      616,
      -7194,
      -8874,
      358,
      -7,
      -156,
      16,
      -19
    ],
    "SliceThickness": 2,
    "SliceTiming": [
      0,
      0.785,
      0.0975,
      0.8825,
      0.195,
      0.98,
      0.295,
      1.0775,
      0.3925,
      1.175,
      0.49,
      1.2725,
      0.5875,
      1.3725,
      0.685,
      0,
      0.785,
      0.0975,
      0.8825,
      0.195,
      0.98,
      0.295,
      1.0775,
      0.3925,
      1.175,
      0.49,
      1.2725,
      0.5875,
      1.3725,
      0.685,
      0,
      0.785,
      0.0975,
      0.8825,
      0.195,
      0.98,
      0.295,
      1.0775,
      0.3925,
      1.175,
      0.49,
      1.2725,
      0.5875,
      1.3725,
      0.685,
      0,
      0.785,
      0.0975,
      0.8825,
      0.195,
      0.98,
      0.295,
      1.0775,
      0.3925,
      1.175,
      0.49,
      1.2725,
      0.5875,
      1.3725,
      0.685
    ],
    "SoftwareVersions": "syngo_MR_E11",
    "SpacingBetweenSlices": 2,
    "StationName": "MRC35049",
    "TaskName": "figures11",
    "TotalReadoutTime": 0.0576811,
    "TxRefAmp": 250.574,
    "dataset": "<unset>",
    "dcmmeta_affine": [
      [
        -1.9987645149230957,
        -0.07014776021242142,
        -0.0044260150752961636,
        109.74117279052734
      ],
      [
        -0.060623716562986374,
        1.7842706441879272,
        -0.9015003442764282,
        -58.71073913574219
      ],
      [
        -0.035567715764045715,
        0.9008092880249023,
        1.785294771194458,
        -89.19865417480469
      ],
      [
        0.0,
        0.0,
        0.0,
        1.0
      ]
    ],
    "dcmmeta_reorient_transform": [
      [
        0.0,
        -1.0,
        0.0,
        103.0
      ],
      [
        1.0,
        0.0,
        0.0,
        0.0
      ],
      [
        0.0,
        0.0,
        1.0,
        0.0
      ],
      [
        0.0,
        0.0,
        0.0,
        1.0
      ]
    ],
    "dcmmeta_shape": [
      104,
      104,
      60,
      410
    ],
    "dcmmeta_slice_dim": 2,
    "dcmmeta_version": 0.6,
    "global": {
      "const": {
        "AcquisitionMatrix": [
          104,
          0,
          0,
          104
        ],
        "AngioFlag": "N",
        "BitsAllocated": 16,
        "BitsStored": 16,
        "BodyPartExamined": "BRAIN",
        "Columns": 832,
        "EchoNumbers": 1,
        "EchoTime": 37.0,
        "EchoTrainLength": 104,
        "FlipAngle": 52.0,
        "HighBit": 15,
        "ImageOrientationPatient": [
          0.99938227203562,
          0.03031185754101,
          -0.0177838587867,
          -0.0350738782869,
          0.8921353483044,
          -0.4504046440343
        ],
        "ImagePositionPatient": [
          -804.53246216947,
          -796.61070928133,
          344.42593127095
        ],
        "ImageType": [
          "ORIGINAL",
          "PRIMARY",
          "M",
          "MB",
          "ND",
          "MOSAIC"
        ],
        "ImagedNucleus": "1H",
        "ImagingFrequency": 123.259257,
        "InPlanePhaseEncodingDirection": "COL",
        "MRAcquisitionType": "2D",
        "MagneticFieldStrength": 3.0,
        "Manufacturer": "SIEMENS",
        "ManufacturerModelName": "Prisma_fit",
        "Modality": "MR",
        "NumberOfAverages": 1.0,
        "NumberOfPhaseEncodingSteps": 104,
        "PercentPhaseFieldOfView": 100.0,
        "PercentSampling": 100.0,
        "PerformedProcedureStepStartTime": "085252.658000",
        "PhotometricInterpretation": "MONOCHROME2",
        "PixelBandwidth": 2290.0,
        "PixelRepresentation": 0,
        "PixelSpacing": [
          2.0,
          2.0
        ],
        "ProtocolName": "func_task-figures11",
        "RepetitionTime": 1490.0,
        "Rows": 832,
        "SAR": 0.03663682254845,
        "SamplesPerPixel": 1,
        "ScanOptions": "FS",
        "ScanningSequence": "EP",
        "SequenceName": "epfid2d1_104",
        "SequenceVariant": [
          "SK",
          "SS"
        ],
        "SeriesDescription": "func_task-figures11",
        "SeriesNumber": 15,
        "SeriesTime": "101121.643000",
        "SliceLocation": -53.401931426982,
        "SliceThickness": 2.0,
        "SmallestImagePixelValue": 0,
        "SoftwareVersions": "syngo MR E11",
        "SpacingBetweenSlices": 2.0000000035445,
        "SpecificCharacterSet": "ISO_IR 100",
        "StudyID": "1",
        "StudyTime": "085252.559000",
        "TransmitCoilName": "Body",
        "VariableFlipAngleFlag": "N",
        "WindowCenterWidthExplanation": "Algo1",
        "dBdt": 0.0
      },
      "slices": {}
    },
    "modality": "bold",
    "run_id": 1,
    "session_id": "003",
    "subject_id": "02",
    "task_id": "figures11",
    "time": {
      "samples": {
        "AcquisitionNumber": [
          1,
          2,
          3,
          4,
          5,
          6,
          7,
          8,
          9,
          10,
          11,
          12,
          13,
          14,
          15,
          16,
          17,
          18,
          19,
          20,
          21,
          22,
          23,
          24,
          25,
          26,
          27,
          28,
          29,
          30,
          31,
          32,
          33,
          34,
          35,
          36,
          37,
          38,
          39,
          40,
          41,
          42,
          43,
          44,
          45,
          46,
          47,
          48,
          49,
          50,
          51,
          52,
          53,
          54,
          55,
          56,
          57,
          58,
          59,
          60,
          61,
          62,
          63,
          64,
          65,
          66,
          67,
          68,
          69,
          70,
          71,
          72,
          73,
          74,
          75,
          76,
          77,
          78,
          79,
          80,
          81,
          82,
          83,
          84,
          85,
          86,
          87,
          88,
          89,
          90,
          91,
          92,
          93,
          94,
          95,
          96,
          97,
          98,
          99,
          100,
          101,
          102,
          103,
          104,
          105,
          106,
          107,
          108,
          109,
          110,
          111,
          112,
          113,
          114,
          115,
          116,
          117,
          118,
          119,
          120,
          121,
          122,
          123,
          124,
          125,
          126,
          127,
          128,
          129,
          130,
          131,
          132,
          133,
          134,
          135,
          136,
          137,
          138,
          139,
          140,
          141,
          142,
          143,
          144,
          145,
          146,
          147,
          148,
          149,
          150,
          151,
          152,
          153,
          154,
          155,
          156,
          157,
          158,
          159,
          160,
          161,
          162,
          163,
          164,
          165,
          166,
          167,
          168,
          169,
          170,
          171,
          172,
          173,
          174,
          175,
          176,
          177,
          178,
          179,
          180,
          181,
          182,
          183,
          184,
          185,
          186,
          187,
          188,
          189,
          190,
          191,
          192,
          193,
          194,
          195,
          196,
          197,
          198,
          199,
          200,
          201,
          202,
          203,
          204,
          205,
          206,
          207,
          208,
          209,
          210,
          211,
          212,
          213,
          214,
          215,
          216,
          217,
          218,
          219,
          220,
          221,
          222,
          223,
          224,
          225,
          226,
          227,
          228,
          229,
          230,
          231,
          232,
          233,
          234,
          235,
          236,
          237,
          238,
          239,
          240,
          241,
          242,
          243,
          244,
          245,
          246,
          247,
          248,
          249,
          250,
          251,
          252,
          253,
          254,
          255,
          256,
          257,
          258,
          259,
          260,
          261,
          262,
          263,
          264,
          265,
          266,
          267,
          268,
          269,
          270,
          271,
          272,
          273,
          274,
          275,
          276,
          277,
          278,
          279,
          280,
          281,
          282,
          283,
          284,
          285,
          286,
          287,
          288,
          289,
          290,
          291,
          292,
          293,
          294,
          295,
          296,
          297,
          298,
          299,
          300,
          301,
          302,
          303,
          304,
          305,
          306,
          307,
          308,
          309,
          310,
          311,
          312,
          313,
          314,
          315,
          316,
          317,
          318,
          319,
          320,
          321,
          322,
          323,
          324,
          325,
          326,
          327,
          328,
          329,
          330,
          331,
          332,
          333,
          334,
          335,
          336,
          337,
          338,
          339,
          340,
          341,
          342,
          343,
          344,
          345,
          346,
          347,
          348,
          349,
          350,
          351,
          352,
          353,
          354,
          355,
          356,
          357,
          358,
          359,
          360,
          361,
          362,
          363,
          364,
          365,
          366,
          367,
          368,
          369,
          370,
          371,
          372,
          373,
          374,
          375,
          376,
          377,
          378,
          379,
          380,
          381,
          382,
          383,
          384,
          385,
          386,
          387,
          388,
          389,
          390,
          391,
          392,
          393,
          394,
          395,
          396,
          397,
          398,
          399,
          400,
          401,
          402,
          403,
          404,
          405,
          406,
          407,
          408,
          409,
          410
        ],
        "AcquisitionTime": [
          "100954.630000",
          "100956.120000",
          "100957.610000",
          "100959.100000",
          "101000.590000",
          "101002.080000",
          "101003.570000",
          "101005.060000",
          "101006.550000",
          "101008.040000",
          "101009.530000",
          "101011.020000",
          "101012.510000",
          "101014.000000",
          "101015.490000",
          "101016.980000",
          "101018.470000",
          "101019.960000",
          "101021.450000",
          "101022.940000",
          "101024.430000",
          "101025.920000",
          "101027.410000",
          "101028.900000",
          "101030.390000",
          "101031.880000",
          "101033.370000",
          "101034.860000",
          "101036.350000",
          "101037.840000",
          "101039.330000",
          "101040.820000",
          "101042.310000",
          "101043.800000",
          "101045.290000",
          "101046.780000",
          "101048.270000",
          "101049.760000",
          "101051.250000",
          "101052.740000",
          "101054.230000",
          "101055.720000",
          "101057.210000",
          "101058.700000",
          "101100.190000",
          "101101.680000",
          "101103.170000",
          "101104.660000",
          "101106.150000",
          "101107.640000",
          "101109.130000",
          "101110.620000",
          "101112.110000",
          "101113.600000",
          "101115.090000",
          "101116.580000",
          "101118.070000",
          "101119.560000",
          "101121.050000",
          "101122.540000",
          "101124.030000",
          "101125.520000",
          "101127.010000",
          "101128.500000",
          "101129.990000",
          "101131.480000",
          "101132.970000",
          "101134.460000",
          "101135.950000",
          "101137.440000",
          "101138.930000",
          "101140.420000",
          "101141.910000",
          "101143.400000",
          "101144.890000",
          "101146.380000",
          "101147.870000",
          "101149.360000",
          "101150.850000",
          "101152.340000",
          "101153.830000",
          "101155.320000",
          "101156.810000",
          "101158.300000",
          "101159.790000",
          "101201.280000",
          "101202.770000",
          "101204.260000",
          "101205.750000",
          "101207.240000",
          "101208.730000",
          "101210.220000",
          "101211.710000",
          "101213.200000",
          "101214.690000",
          "101216.180000",
          "101217.670000",
          "101219.160000",
          "101220.650000",
          "101222.140000",
          "101223.630000",
          "101225.120000",
          "101226.610000",
          "101228.100000",
          "101229.590000",
          "101231.080000",
          "101232.570000",
          "101234.060000",
          "101235.550000",
          "101237.040000",
          "101238.530000",
          "101240.020000",
          "101241.510000",
          "101243.000000",
          "101244.490000",
          "101245.980000",
          "101247.470000",
          "101248.960000",
          "101250.450000",
          "101251.940000",
          "101253.430000",
          "101254.920000",
          "101256.410000",
          "101257.900000",
          "101259.390000",
          "101300.880000",
          "101302.370000",
          "101303.860000",
          "101305.350000",
          "101306.840000",
          "101308.330000",
          "101309.820000",
          "101311.310000",
          "101312.800000",
          "101314.290000",
          "101315.780000",
          "101317.270000",
          "101318.760000",
          "101320.250000",
          "101321.740000",
          "101323.230000",
          "101324.720000",
          "101326.210000",
          "101327.700000",
          "101329.190000",
          "101330.680000",
          "101332.170000",
          "101333.660000",
          "101335.150000",
          "101336.640000",
          "101338.130000",
          "101339.620000",
          "101341.110000",
          "101342.600000",
          "101344.090000",
          "101345.580000",
          "101347.070000",
          "101348.560000",
          "101350.050000",
          "101351.540000",
          "101353.030000",
          "101354.520000",
          "101356.010000",
          "101357.500000",
          "101358.990000",
          "101400.480000",
          "101401.970000",
          "101403.460000",
          "101404.950000",
          "101406.440000",
          "101407.930000",
          "101409.420000",
          "101410.910000",
          "101412.400000",
          "101413.890000",
          "101415.380000",
          "101416.870000",
          "101418.360000",
          "101419.850000",
          "101421.340000",
          "101422.830000",
          "101424.320000",
          "101425.810000",
          "101427.300000",
          "101428.790000",
          "101430.280000",
          "101431.770000",
          "101433.260000",
          "101434.750000",
          "101436.240000",
          "101437.730000",
          "101439.220000",
          "101440.710000",
          "101442.200000",
          "101443.690000",
          "101445.180000",
          "101446.670000",
          "101448.160000",
          "101449.650000",
          "101451.140000",
          "101452.630000",
          "101454.120000",
          "101455.610000",
          "101457.100000",
          "101458.590000",
          "101500.080000",
          "101501.570000",
          "101503.060000",
          "101504.550000",
          "101506.040000",
          "101507.530000",
          "101509.020000",
          "101510.510000",
          "101512.000000",
          "101513.490000",
          "101514.980000",
          "101516.470000",
          "101517.960000",
          "101519.450000",
          "101520.940000",
          "101522.430000",
          "101523.920000",
          "101525.410000",
          "101526.900000",
          "101528.390000",
          "101529.880000",
          "101531.370000",
          "101532.860000",
          "101534.350000",
          "101535.840000",
          "101537.330000",
          "101538.820000",
          "101540.310000",
          "101541.800000",
          "101543.290000",
          "101544.780000",
          "101546.270000",
          "101547.760000",
          "101549.250000",
          "101550.740000",
          "101552.230000",
          "101553.720000",
          "101555.210000",
          "101556.700000",
          "101558.190000",
          "101559.680000",
          "101601.170000",
          "101602.660000",
          "101604.150000",
          "101605.640000",
          "101607.130000",
          "101608.620000",
          "101610.110000",
          "101611.600000",
          "101613.090000",
          "101614.580000",
          "101616.070000",
          "101617.560000",
          "101619.050000",
          "101620.540000",
          "101622.030000",
          "101623.520000",
          "101625.010000",
          "101626.500000",
          "101627.990000",
          "101629.480000",
          "101630.970000",
          "101632.460000",
          "101633.950000",
          "101635.440000",
          "101636.930000",
          "101638.420000",
          "101639.910000",
          "101641.400000",
          "101642.890000",
          "101644.380000",
          "101645.870000",
          "101647.360000",
          "101648.850000",
          "101650.340000",
          "101651.830000",
          "101653.320000",
          "101654.810000",
          "101656.300000",
          "101657.790000",
          "101659.280000",
          "101700.770000",
          "101702.260000",
          "101703.750000",
          "101705.240000",
          "101706.730000",
          "101708.220000",
          "101709.710000",
          "101711.200000",
          "101712.690000",
          "101714.180000",
          "101715.670000",
          "101717.160000",
          "101718.650000",
          "101720.140000",
          "101721.630000",
          "101723.120000",
          "101724.610000",
          "101726.100000",
          "101727.590000",
          "101729.080000",
          "101730.570000",
          "101732.060000",
          "101733.550000",
          "101735.040000",
          "101736.530000",
          "101738.020000",
          "101739.510000",
          "101741.000000",
          "101742.490000",
          "101743.980000",
          "101745.470000",
          "101746.960000",
          "101748.450000",
          "101749.940000",
          "101751.430000",
          "101752.920000",
          "101754.410000",
          "101755.900000",
          "101757.390000",
          "101758.880000",
          "101800.370000",
          "101801.860000",
          "101803.350000",
          "101804.840000",
          "101806.330000",
          "101807.820000",
          "101809.310000",
          "101810.800000",
          "101812.290000",
          "101813.780000",
          "101815.270000",
          "101816.760000",
          "101818.250000",
          "101819.740000",
          "101821.230000",
          "101822.720000",
          "101824.210000",
          "101825.700000",
          "101827.190000",
          "101828.680000",
          "101830.170000",
          "101831.660000",
          "101833.150000",
          "101834.640000",
          "101836.130000",
          "101837.620000",
          "101839.110000",
          "101840.600000",
          "101842.090000",
          "101843.580000",
          "101845.070000",
          "101846.560000",
          "101848.050000",
          "101849.540000",
          "101851.030000",
          "101852.520000",
          "101854.010000",
          "101855.500000",
          "101856.990000",
          "101858.480000",
          "101859.970000",
          "101901.460000",
          "101902.950000",
          "101904.440000",
          "101905.930000",
          "101907.420000",
          "101908.910000",
          "101910.400000",
          "101911.890000",
          "101913.380000",
          "101914.870000",
          "101916.360000",
          "101917.850000",
          "101919.340000",
          "101920.830000",
          "101922.320000",
          "101923.810000",
          "101925.300000",
          "101926.790000",
          "101928.280000",
          "101929.770000",
          "101931.260000",
          "101932.750000",
          "101934.240000",
          "101935.730000",
          "101937.220000",
          "101938.710000",
          "101940.200000",
          "101941.690000",
          "101943.180000",
          "101944.670000",
          "101946.160000",
          "101947.650000",
          "101949.140000",
          "101950.630000",
          "101952.120000",
          "101953.610000",
          "101955.100000",
          "101956.590000",
          "101958.080000",
          "101959.570000",
          "102001.060000",
          "102002.550000",
          "102004.040000"
        ],
        "ContentTime": [
          "101121.646000",
          "101121.650000",
          "101121.653000",
          "101121.664000",
          "101121.667000",
          "101121.678000",
          "101121.681000",
          "101121.684000",
          "101121.687000",
          "101121.690000",
          "101121.693000",
          "101121.696000",
          "101121.699000",
          "101121.702000",
          "101121.705000",
          "101121.708000",
          "101121.711000",
          "101121.714000",
          "101121.717000",
          "101121.719000",
          "101121.722000",
          "101121.725000",
          "101121.728000",
          "101121.735000",
          "101121.738000",
          "101121.741000",
          "101121.744000",
          "101121.747000",
          "101121.750000",
          "101121.752000",
          "101121.755000",
          "101141.621000",
          "101141.624000",
          "101141.627000",
          "101141.630000",
          "101141.633000",
          "101141.636000",
          "101141.639000",
          "101141.642000",
          "101141.645000",
          "101141.648000",
          "101141.650000",
          "101141.653000",
          "101141.656000",
          "101141.659000",
          "101141.662000",
          "101141.665000",
          "101141.668000",
          "101141.671000",
          "101141.674000",
          "101141.676000",
          "101201.620000",
          "101201.623000",
          "101201.626000",
          "101201.629000",
          "101201.632000",
          "101201.635000",
          "101201.638000",
          "101201.641000",
          "101201.644000",
          "101201.647000",
          "101201.650000",
          "101201.657000",
          "101201.660000",
          "101201.663000",
          "101201.666000",
          "101201.669000",
          "101201.672000",
          "101201.675000",
          "101201.678000",
          "101201.681000",
          "101221.620000",
          "101221.623000",
          "101221.626000",
          "101221.629000",
          "101221.632000",
          "101221.635000",
          "101221.638000",
          "101221.641000",
          "101221.644000",
          "101221.647000",
          "101221.650000",
          "101221.652000",
          "101221.655000",
          "101221.658000",
          "101221.666000",
          "101221.669000",
          "101221.672000",
          "101221.675000",
          "101221.678000",
          "101221.681000",
          "101241.620000",
          "101241.623000",
          "101241.626000",
          "101241.629000",
          "101241.632000",
          "101241.635000",
          "101241.638000",
          "101241.641000",
          "101241.644000",
          "101241.647000",
          "101241.650000",
          "101241.652000",
          "101241.655000",
          "101241.658000",
          "101241.661000",
          "101241.664000",
          "101241.667000",
          "101241.670000",
          "101241.673000",
          "101241.676000",
          "101321.621000",
          "101321.624000",
          "101321.627000",
          "101321.630000",
          "101321.633000",
          "101321.636000",
          "101321.639000",
          "101321.642000",
          "101321.644000",
          "101321.652000",
          "101321.655000",
          "101321.658000",
          "101321.666000",
          "101321.669000",
          "101321.672000",
          "101321.675000",
          "101321.678000",
          "101321.681000",
          "101321.684000",
          "101321.687000",
          "101321.690000",
          "101321.692000",
          "101321.695000",
          "101321.698000",
          "101321.701000",
          "101321.704000",
          "101321.707000",
          "101401.621000",
          "101401.624000",
          "101401.627000",
          "101401.630000",
          "101401.633000",
          "101401.636000",
          "101401.639000",
          "101401.642000",
          "101401.645000",
          "101401.648000",
          "101401.651000",
          "101401.654000",
          "101401.657000",
          "101401.659000",
          "101401.662000",
          "101401.665000",
          "101401.668000",
          "101401.671000",
          "101401.674000",
          "101401.677000",
          "101401.680000",
          "101401.683000",
          "101401.686000",
          "101401.689000",
          "101401.692000",
          "101401.694000",
          "101401.697000",
          "101441.620000",
          "101441.623000",
          "101441.626000",
          "101441.629000",
          "101441.640000",
          "101441.643000",
          "101441.646000",
          "101441.649000",
          "101441.652000",
          "101441.655000",
          "101441.658000",
          "101441.661000",
          "101441.663000",
          "101441.666000",
          "101441.669000",
          "101441.672000",
          "101441.675000",
          "101441.678000",
          "101441.681000",
          "101441.684000",
          "101441.687000",
          "101441.690000",
          "101441.693000",
          "101441.695000",
          "101441.698000",
          "101441.701000",
          "101441.704000",
          "101521.620000",
          "101521.623000",
          "101521.626000",
          "101521.629000",
          "101521.632000",
          "101521.635000",
          "101521.638000",
          "101521.641000",
          "101521.644000",
          "101521.647000",
          "101521.650000",
          "101521.653000",
          "101521.656000",
          "101521.659000",
          "101521.662000",
          "101521.665000",
          "101521.668000",
          "101521.671000",
          "101521.674000",
          "101521.677000",
          "101521.679000",
          "101521.682000",
          "101521.685000",
          "101521.688000",
