{
  "aor": 0.000739249329758713,
  "aqi": 0.009586161313672922,
  "bids_meta": {
    "AcquisitionMatrixPE": 104,
    "AcquisitionNumber": 1,
    "AcquisitionTime": "10:20:32.537500",
    "BandwidthPerPixelPhaseEncode": 17.17,
    "BaseResolution": 104,
    "BodyPartExamined": "BRAIN",
    "CogAtlasID": "trm_4c898da401420",
    "ConsistencyInfo": "N4_VE11C_LATEST_20160120",
    "ConversionSoftware": "dcm2niix",
    "ConversionSoftwareVersion": "v1.0.20171215 (OpenJPEG build) GCC7.3.0",
    "DerivedVendorReportedEchoSpacing": 0.000560011,
    "DeviceSerialNumber": "167006",
    "DwellTime": 2.1e-06,
    "EchoTime": 0.037,
    "EchoTrainLength": 104,
    "EffectiveEchoSpacing": 0.000560011,
    "FlipAngle": 52,
    "ImageComments": "Unaliased_MB4_PE3_LB",
    "ImageOrientationPatientDICOM": [
      0.999382,
      0.0303119,
      -0.0177839,
      -0.0350739,
      0.892135,
      -0.450405
    ],
    "ImageType": [
      "ORIGINAL",
      "PRIMARY",
      "M",
      "MB",
      "ND",
      "MOSAIC"
    ],
    "InPlanePhaseEncodingDirectionDICOM": "COL",
    "InstitutionAddress": "Chemin_Queen-Mary_4565_Montreal_District_CA_H3W_1W5",
    "InstitutionName": "IUGM",
    "InstitutionalDepartmentName": "Department",
    "MRAcquisitionType": "2D",
    "MagneticFieldStrength": 3,
    "Manufacturer": "Siemens",
    "ManufacturersModelName": "Prisma_fit",
    "Modality": "MR",
    "MultibandAccelerationFactor": 4,
    "PartialFourier": 1,
    "PatientPosition": "HFS",
    "PercentPhaseFOV": 100,
    "PhaseEncodingDirection": "j-",
    "PhaseEncodingSteps": 104,
    "PhaseResolution": 1,
    "PixelBandwidth": 2290,
    "ProcedureStepDescription": "video5_generic",
    "ProtocolName": "func_task-figures12",
    "PulseSequenceDetails": "%CustomerSeq%_cmrr_mbep2d_bold",
    "ReceiveCoilActiveElements": "HC1-7;NC1,2",
    "ReceiveCoilName": "HeadNeck_64",
    "ReconMatrixPE": 104,
    "RepetitionTime": 1.49,
    "SAR": 0.0366194,
    "ScanOptions": "FS",
    "ScanningSequence": "EP",
    "SequenceName": "epfid2d1_104",
    "SequenceVariant": "SK_SS",
    "SeriesDescription": "func_task-figures12",
    "SeriesNumber": 17,
    "ShimSetting": [
      616,
      -7194,
      -8874,
      358,
      -7,
      -156,
      16,
      -19
    ],
    "SliceThickness": 2,
    "SliceTiming": [
      0,
      0.785,
      0.1,
      0.8825,
      0.1975,
      0.98,
      0.295,
      1.08,
      0.3925,
      1.1775,
      0.49,
      1.275,
      0.59,
      1.3725,
      0.6875,
      0,
      0.785,
      0.1,
      0.8825,
      0.1975,
      0.98,
      0.295,
      1.08,
      0.3925,
      1.1775,
      0.49,
      1.275,
      0.59,
      1.3725,
      0.6875,
      0,
      0.785,
      0.1,
      0.8825,
      0.1975,
      0.98,
      0.295,
      1.08,
      0.3925,
      1.1775,
      0.49,
      1.275,
      0.59,
      1.3725,
      0.6875,
      0,
      0.785,
      0.1,
      0.8825,
      0.1975,
      0.98,
      0.295,
      1.08,
      0.3925,
      1.1775,
      0.49,
      1.275,
      0.59,
      1.3725,
      0.6875
    ],
    "SoftwareVersions": "syngo_MR_E11",
    "SpacingBetweenSlices": 2,
    "StationName": "MRC35049",
    "TaskName": "figures12",
    "TotalReadoutTime": 0.0576811,
    "TxRefAmp": 250.574,
    "dataset": "<unset>",
    "dcmmeta_affine": [
      [
        -1.9987645149230957,
        -0.07014776021242142,
        -0.0044260150752961636,
        109.74117279052734
      ],
      [
        -0.060623716562986374,
        1.7842706441879272,
        -0.9015003442764282,
        -58.71073913574219
      ],
      [
        -0.035567715764045715,
        0.9008092880249023,
        1.785294771194458,
        -89.19865417480469
      ],
      [
        0.0,
        0.0,
        0.0,
        1.0
      ]
    ],
    "dcmmeta_reorient_transform": [
      [
        0.0,
        -1.0,
        0.0,
        103.0
      ],
      [
        1.0,
        0.0,
        0.0,
        0.0
      ],
      [
        0.0,
        0.0,
        1.0,
        0.0
      ],
      [
        0.0,
        0.0,
        0.0,
        1.0
      ]
    ],
    "dcmmeta_shape": [
      104,
      104,
      60,
      373
    ],
    "dcmmeta_slice_dim": 2,
    "dcmmeta_version": 0.6,
    "global": {
      "const": {
        "AcquisitionMatrix": [
          104,
          0,
          0,
          104
        ],
        "AngioFlag": "N",
        "BitsAllocated": 16,
        "BitsStored": 16,
        "BodyPartExamined": "BRAIN",
        "Columns": 832,
        "EchoNumbers": 1,
        "EchoTime": 37.0,
        "EchoTrainLength": 104,
        "FlipAngle": 52.0,
        "HighBit": 15,
        "ImageOrientationPatient": [
          0.99938227203562,
          0.03031185754101,
          -0.0177838587867,
          -0.0350738782869,
          0.8921353483044,
          -0.4504046440343
        ],
        "ImagePositionPatient": [
          -804.53246216947,
          -796.61070928133,
          344.42593127095
        ],
        "ImageType": [
          "ORIGINAL",
          "PRIMARY",
          "M",
          "MB",
          "ND",
          "MOSAIC"
        ],
        "ImagedNucleus": "1H",
        "ImagingFrequency": 123.259258,
        "InPlanePhaseEncodingDirection": "COL",
        "MRAcquisitionType": "2D",
        "MagneticFieldStrength": 3.0,
        "Manufacturer": "SIEMENS",
        "ManufacturerModelName": "Prisma_fit",
        "Modality": "MR",
        "NumberOfAverages": 1.0,
        "NumberOfPhaseEncodingSteps": 104,
        "PercentPhaseFieldOfView": 100.0,
        "PercentSampling": 100.0,
        "PerformedProcedureStepStartTime": "085252.658000",
        "PhotometricInterpretation": "MONOCHROME2",
        "PixelBandwidth": 2290.0,
        "PixelRepresentation": 0,
        "PixelSpacing": [
          2.0,
          2.0
        ],
        "ProtocolName": "func_task-figures12",
        "RepetitionTime": 1490.0,
        "Rows": 832,
        "SAR": 0.03661940453455,
        "SamplesPerPixel": 1,
        "ScanOptions": "FS",
        "ScanningSequence": "EP",
        "SequenceName": "epfid2d1_104",
        "SequenceVariant": [
          "SK",
          "SS"
        ],
        "SeriesDescription": "func_task-figures12",
        "SeriesNumber": 17,
        "SeriesTime": "102156.642000",
        "SliceLocation": -53.401931426982,
        "SliceThickness": 2.0,
        "SmallestImagePixelValue": 0,
        "SoftwareVersions": "syngo MR E11",
        "SpacingBetweenSlices": 2.0000000035445,
        "SpecificCharacterSet": "ISO_IR 100",
        "StudyID": "1",
        "StudyTime": "085252.559000",
        "TransmitCoilName": "Body",
        "VariableFlipAngleFlag": "N",
        "WindowCenterWidthExplanation": "Algo1",
        "dBdt": 0.0
      },
      "slices": {}
    },
    "modality": "bold",
    "run_id": 1,
    "session_id": "003",
    "subject_id": "02",
    "task_id": "figures12",
    "time": {
      "samples": {
        "AcquisitionNumber": [
          1,
          2,
          3,
          4,
          5,
          6,
          7,
          8,
          9,
          10,
          11,
          12,
          13,
          14,
          15,
          16,
          17,
          18,
          19,
          20,
          21,
          22,
          23,
          24,
          25,
          26,
          27,
          28,
          29,
          30,
          31,
          32,
          33,
          34,
          35,
          36,
          37,
          38,
          39,
          40,
          41,
          42,
          43,
          44,
          45,
          46,
          47,
          48,
          49,
          50,
          51,
          52,
          53,
          54,
          55,
          56,
          57,
          58,
          59,
          60,
          61,
          62,
          63,
          64,
          65,
          66,
          67,
          68,
          69,
          70,
          71,
          72,
          73,
          74,
          75,
          76,
          77,
          78,
          79,
          80,
          81,
          82,
          83,
          84,
          85,
          86,
          87,
          88,
          89,
          90,
          91,
          92,
          93,
          94,
          95,
          96,
          97,
          98,
          99,
          100,
          101,
          102,
          103,
          104,
          105,
          106,
          107,
          108,
          109,
          110,
          111,
          112,
          113,
          114,
          115,
          116,
          117,
          118,
          119,
          120,
          121,
          122,
          123,
          124,
          125,
          126,
          127,
          128,
          129,
          130,
          131,
          132,
          133,
          134,
          135,
          136,
          137,
          138,
          139,
          140,
          141,
          142,
          143,
          144,
          145,
          146,
          147,
          148,
          149,
          150,
          151,
          152,
          153,
          154,
          155,
          156,
          157,
          158,
          159,
          160,
          161,
          162,
          163,
          164,
          165,
          166,
          167,
          168,
          169,
          170,
          171,
          172,
          173,
          174,
          175,
          176,
          177,
          178,
          179,
          180,
          181,
          182,
          183,
          184,
          185,
          186,
          187,
          188,
          189,
          190,
          191,
          192,
          193,
          194,
          195,
          196,
          197,
          198,
          199,
          200,
          201,
          202,
          203,
          204,
          205,
          206,
          207,
          208,
          209,
          210,
          211,
          212,
          213,
          214,
          215,
          216,
          217,
          218,
          219,
          220,
          221,
          222,
          223,
          224,
          225,
          226,
          227,
          228,
          229,
          230,
          231,
          232,
          233,
          234,
          235,
          236,
          237,
          238,
          239,
          240,
          241,
          242,
          243,
          244,
          245,
          246,
          247,
          248,
          249,
          250,
          251,
          252,
          253,
          254,
          255,
          256,
          257,
          258,
          259,
          260,
          261,
          262,
          263,
          264,
          265,
          266,
          267,
          268,
          269,
          270,
          271,
          272,
          273,
          274,
          275,
          276,
          277,
          278,
          279,
          280,
          281,
          282,
          283,
          284,
          285,
          286,
          287,
          288,
          289,
          290,
          291,
          292,
          293,
          294,
          295,
          296,
          297,
          298,
          299,
          300,
          301,
          302,
          303,
          304,
          305,
          306,
          307,
          308,
          309,
          310,
          311,
          312,
          313,
          314,
          315,
          316,
          317,
          318,
          319,
          320,
          321,
          322,
          323,
          324,
          325,
          326,
          327,
          328,
          329,
          330,
          331,
          332,
          333,
          334,
          335,
          336,
          337,
          338,
          339,
          340,
          341,
          342,
          343,
          344,
          345,
          346,
          347,
          348,
          349,
          350,
          351,
          352,
          353,
          354,
          355,
          356,
          357,
          358,
          359,
          360,
          361,
          362,
          363,
          364,
          365,
          366,
          367,
          368,
          369,
          370,
          371,
          372,
          373
        ],
        "AcquisitionTime": [
          "102032.537500",
          "102034.027500",
          "102035.517500",
          "102037.007500",
          "102038.497500",
          "102039.987500",
          "102041.477500",
          "102042.967500",
          "102044.457500",
          "102045.947500",
          "102047.437500",
          "102048.927500",
          "102050.417500",
          "102051.907500",
          "102053.397500",
          "102054.887500",
          "102056.377500",
          "102057.867500",
          "102059.357500",
          "102100.847500",
          "102102.337500",
          "102103.827500",
          "102105.317500",
          "102106.807500",
          "102108.297500",
          "102109.787500",
          "102111.277500",
          "102112.767500",
          "102114.257500",
          "102115.747500",
          "102117.237500",
          "102118.727500",
          "102120.217500",
          "102121.707500",
          "102123.197500",
          "102124.687500",
          "102126.177500",
          "102127.667500",
          "102129.157500",
          "102130.647500",
          "102132.137500",
          "102133.627500",
          "102135.117500",
          "102136.607500",
          "102138.097500",
          "102139.587500",
          "102141.077500",
          "102142.567500",
          "102144.057500",
          "102145.547500",
          "102147.037500",
          "102148.527500",
          "102150.017500",
          "102151.507500",
          "102152.997500",
          "102154.487500",
          "102155.977500",
          "102157.467500",
          "102158.957500",
          "102200.447500",
          "102201.937500",
          "102203.427500",
          "102204.917500",
          "102206.407500",
          "102207.897500",
          "102209.387500",
          "102210.877500",
          "102212.367500",
          "102213.857500",
          "102215.347500",
          "102216.837500",
          "102218.327500",
          "102219.817500",
          "102221.307500",
          "102222.797500",
          "102224.287500",
          "102225.777500",
          "102227.267500",
          "102228.757500",
          "102230.247500",
          "102231.737500",
          "102233.227500",
          "102234.717500",
          "102236.207500",
          "102237.697500",
          "102239.187500",
          "102240.677500",
          "102242.167500",
          "102243.657500",
          "102245.147500",
          "102246.637500",
          "102248.127500",
          "102249.617500",
          "102251.107500",
          "102252.597500",
          "102254.087500",
          "102255.577500",
          "102257.067500",
          "102258.557500",
          "102300.047500",
          "102301.537500",
          "102303.027500",
          "102304.517500",
          "102306.007500",
          "102307.497500",
          "102308.987500",
          "102310.477500",
          "102311.967500",
          "102313.457500",
          "102314.947500",
          "102316.437500",
          "102317.927500",
          "102319.417500",
          "102320.907500",
          "102322.397500",
          "102323.887500",
          "102325.377500",
          "102326.867500",
          "102328.357500",
          "102329.847500",
          "102331.337500",
          "102332.827500",
          "102334.317500",
          "102335.807500",
          "102337.297500",
          "102338.787500",
          "102340.277500",
          "102341.767500",
          "102343.257500",
          "102344.747500",
          "102346.237500",
          "102347.727500",
          "102349.217500",
          "102350.707500",
          "102352.197500",
          "102353.687500",
          "102355.177500",
          "102356.667500",
          "102358.157500",
          "102359.647500",
          "102401.137500",
          "102402.627500",
          "102404.117500",
          "102405.607500",
          "102407.097500",
          "102408.587500",
          "102410.077500",
          "102411.567500",
          "102413.057500",
          "102414.547500",
          "102416.037500",
          "102417.527500",
          "102419.017500",
          "102420.507500",
          "102421.997500",
          "102423.487500",
          "102424.977500",
          "102426.467500",
          "102427.957500",
          "102429.447500",
          "102430.937500",
          "102432.427500",
          "102433.917500",
          "102435.407500",
          "102436.897500",
          "102438.387500",
          "102439.877500",
          "102441.367500",
          "102442.857500",
          "102444.347500",
          "102445.837500",
          "102447.327500",
          "102448.817500",
          "102450.307500",
          "102451.797500",
          "102453.287500",
          "102454.777500",
          "102456.267500",
          "102457.757500",
          "102459.247500",
          "102500.737500",
          "102502.227500",
          "102503.717500",
          "102505.207500",
          "102506.697500",
          "102508.187500",
          "102509.677500",
          "102511.167500",
          "102512.657500",
          "102514.147500",
          "102515.637500",
          "102517.127500",
          "102518.617500",
          "102520.107500",
          "102521.597500",
          "102523.087500",
          "102524.577500",
          "102526.067500",
          "102527.557500",
          "102529.047500",
          "102530.537500",
          "102532.027500",
          "102533.517500",
          "102535.007500",
          "102536.497500",
          "102537.987500",
          "102539.477500",
          "102540.967500",
          "102542.457500",
          "102543.947500",
          "102545.437500",
          "102546.927500",
          "102548.417500",
          "102549.907500",
          "102551.397500",
          "102552.887500",
          "102554.377500",
          "102555.867500",
          "102557.357500",
          "102558.847500",
          "102600.337500",
          "102601.827500",
          "102603.317500",
          "102604.807500",
          "102606.297500",
          "102607.787500",
          "102609.277500",
          "102610.767500",
          "102612.257500",
          "102613.747500",
          "102615.237500",
          "102616.727500",
          "102618.217500",
          "102619.707500",
          "102621.197500",
          "102622.687500",
          "102624.177500",
          "102625.667500",
          "102627.157500",
          "102628.647500",
          "102630.137500",
          "102631.627500",
          "102633.117500",
          "102634.607500",
          "102636.097500",
          "102637.587500",
          "102639.077500",
          "102640.567500",
          "102642.057500",
          "102643.547500",
          "102645.037500",
          "102646.527500",
          "102648.017500",
          "102649.507500",
          "102650.997500",
          "102652.487500",
          "102653.977500",
          "102655.467500",
          "102656.957500",
          "102658.447500",
          "102659.937500",
          "102701.427500",
          "102702.917500",
          "102704.407500",
          "102705.897500",
          "102707.387500",
          "102708.877500",
          "102710.367500",
          "102711.857500",
          "102713.347500",
          "102714.837500",
          "102716.327500",
          "102717.817500",
          "102719.307500",
          "102720.797500",
          "102722.287500",
          "102723.777500",
          "102725.267500",
          "102726.757500",
          "102728.247500",
          "102729.737500",
          "102731.227500",
          "102732.717500",
          "102734.207500",
          "102735.697500",
          "102737.187500",
          "102738.677500",
          "102740.167500",
          "102741.657500",
          "102743.147500",
          "102744.637500",
          "102746.127500",
          "102747.617500",
          "102749.107500",
          "102750.597500",
          "102752.087500",
          "102753.577500",
          "102755.067500",
          "102756.557500",
          "102758.047500",
          "102759.537500",
          "102801.027500",
          "102802.517500",
          "102804.007500",
          "102805.497500",
          "102806.987500",
          "102808.477500",
          "102809.967500",
          "102811.457500",
          "102812.947500",
          "102814.437500",
          "102815.927500",
          "102817.417500",
          "102818.907500",
          "102820.397500",
          "102821.887500",
          "102823.377500",
          "102824.867500",
          "102826.357500",
          "102827.847500",
          "102829.337500",
          "102830.827500",
          "102832.317500",
          "102833.807500",
          "102835.297500",
          "102836.787500",
          "102838.277500",
          "102839.767500",
          "102841.257500",
          "102842.747500",
          "102844.237500",
          "102845.727500",
          "102847.217500",
          "102848.707500",
          "102850.197500",
          "102851.687500",
          "102853.177500",
          "102854.667500",
          "102856.157500",
          "102857.647500",
          "102859.137500",
          "102900.627500",
          "102902.117500",
          "102903.607500",
          "102905.097500",
          "102906.587500",
          "102908.077500",
          "102909.567500",
          "102911.057500",
          "102912.547500",
          "102914.037500",
          "102915.527500",
          "102917.017500",
          "102918.507500",
          "102919.997500",
          "102921.487500",
          "102922.977500",
          "102924.467500",
          "102925.957500",
          "102927.447500",
          "102928.937500",
          "102930.427500",
          "102931.917500",
          "102933.407500",
          "102934.897500",
          "102936.387500",
          "102937.877500",
          "102939.367500",
          "102940.857500",
          "102942.347500",
          "102943.837500",
          "102945.327500",
          "102946.817500"
        ],
        "ContentTime": [
          "102156.645000",
          "102156.649000",
          "102156.652000",
          "102156.655000",
          "102156.667000",
          "102156.669000",
          "102156.672000",
          "102156.675000",
          "102156.678000",
          "102156.681000",
          "102156.684000",
          "102156.687000",
          "102156.690000",
          "102156.693000",
          "102156.696000",
          "102156.699000",
          "102156.702000",
          "102156.705000",
          "102156.707000",
          "102156.710000",
          "102156.713000",
          "102156.716000",
          "102156.719000",
          "102156.722000",
          "102156.725000",
          "102156.728000",
          "102156.731000",
          "102156.734000",
          "102216.613000",
          "102216.616000",
          "102216.619000",
          "102216.630000",
          "102216.633000",
          "102216.636000",
          "102216.639000",
          "102216.642000",
          "102216.645000",
          "102216.648000",
          "102216.651000",
          "102216.654000",
          "102216.657000",
          "102216.660000",
          "102216.663000",
          "102216.665000",
          "102216.668000",
          "102216.671000",
          "102216.674000",
          "102216.677000",
          "102236.612000",
          "102236.615000",
          "102236.618000",
          "102236.621000",
          "102236.624000",
          "102236.627000",
          "102236.630000",
          "102236.633000",
          "102236.636000",
          "102236.639000",
          "102236.642000",
          "102236.645000",
          "102236.648000",
          "102236.654000",
          "102236.657000",
          "102236.660000",
          "102236.683000",
          "102236.686000",
          "102236.689000",
          "102236.692000",
          "102256.612000",
          "102256.615000",
          "102256.618000",
          "102256.621000",
          "102256.624000",
          "102256.627000",
          "102256.630000",
          "102256.633000",
          "102256.635000",
          "102256.638000",
          "102256.641000",
          "102256.644000",
          "102256.647000",
          "102256.650000",
          "102256.653000",
          "102256.661000",
          "102256.664000",
          "102256.667000",
          "102256.670000",
          "102256.673000",
          "102256.676000",
          "102316.613000",
          "102316.616000",
          "102316.619000",
          "102316.622000",
          "102316.625000",
          "102316.634000",
          "102316.637000",
          "102316.640000",
          "102316.643000",
          "102316.646000",
          "102316.649000",
          "102316.651000",
          "102316.654000",
          "102316.657000",
          "102316.660000",
          "102316.663000",
          "102316.666000",
          "102316.669000",
          "102316.672000",
          "102316.675000",
          "102356.613000",
          "102356.616000",
          "102356.619000",
          "102356.622000",
          "102356.625000",
          "102356.628000",
          "102356.631000",
          "102356.652000",
          "102356.655000",
          "102356.658000",
          "102356.661000",
          "102356.664000",
          "102356.666000",
          "102356.669000",
          "102356.672000",
          "102356.675000",
          "102356.678000",
          "102356.681000",
          "102356.694000",
          "102356.697000",
          "102356.700000",
          "102356.708000",
          "102356.711000",
          "102356.714000",
          "102356.717000",
          "102356.720000",
          "102356.723000",
          "102436.613000",
          "102436.616000",
          "102436.619000",
          "102436.622000",
          "102436.625000",
          "102436.628000",
          "102436.631000",
          "102436.634000",
          "102436.637000",
          "102436.640000",
          "102436.643000",
          "102436.645000",
          "102436.648000",
          "102436.651000",
          "102436.654000",
          "102436.657000",
          "102436.660000",
          "102436.663000",
          "102436.666000",
          "102436.669000",
          "102436.672000",
          "102436.675000",
          "102436.678000",
          "102436.681000",
          "102436.684000",
          "102436.687000",
          "102436.690000",
          "102516.613000",
          "102516.616000",
          "102516.619000",
          "102516.622000",
          "102516.625000",
          "102516.628000",
          "102516.631000",
          "102516.634000",
          "102516.637000",
          "102516.640000",
          "102516.643000",
          "102516.647000",
          "102516.650000",
          "102516.653000",
          "102516.656000",
          "102516.659000",
          "102516.662000",
          "102516.665000",
          "102516.668000",
          "102516.671000",
          "102516.674000",
          "102516.677000",
          "102516.679000",
          "102516.682000",
          "102516.685000",
          "102516.688000",
          "102556.613000",
          "102556.616000",
          "102556.619000",
          "102556.622000",
          "102556.625000",
          "102556.628000",
          "102556.631000",
          "102556.634000",
          "102556.637000",
          "102556.640000",
          "102556.643000",
          "102556.646000",
          "102556.649000",
          "102556.652000",
          "102556.654000",
          "102556.657000",
          "102556.660000",
          "102556.663000",
          "102556.666000",
          "102556.669000",
          "102556.672000",
          "102556.675000",
          "102556.678000",
          "102556.681000",
          "102556.684000",
          "102556.687000",
          "102556.689000",
          "102636.613000",
          "102636.616000",
          "102636.619000",
          "102636.631000",
          "102636.634000",
          "102636.637000",
          "102636.640000",
          "102636.643000",
          "102636.646000",
          "102636.649000",
          "102636.652000",
          "102636.655000",
          "102636.657000",
          "102636.661000",
          "102636.664000",
          "102636.667000",
          "102636.669000",
          "102636.672000",
          "102636.675000",
          "102636.678000",
          "102636.681000",
          "102636.684000",
          "102636.687000",
          "102636.690000",
          "102636.693000",
          "102636.696000",
          "102636.699000",
          "102716.612000",
          "102716.615000",
          "102716.618000",
          "102716.621000",
          "102716.624000",
          "102716.627000",
          "102716.630000",
          "102716.633000",
          "102716.636000",
          "102716.639000",
          "102716.642000",
          "102716.645000",
          "102716.648000",
          "102716.651000",
          "102716.654000",
          "102716.657000",
          "102716.660000",
          "102716.663000",
          "102716.666000",
          "102716.669000",
          "102716.672000",
          "102716.674000",
          "102716.677000",
          "102716.680000",
          "102716.683000",
          "102716.686000",
          "102716.689000",
          "102756.613000",
          "102756.616000",
          "102756.619000",
          "102756.622000",
