{
  "aor": 0.0004569682151589242,
  "aqi": 0.006250199339853301,
  "bids_meta": {
    "AcquisitionMatrixPE": 104,
    "AcquisitionNumber": 1,
    "AcquisitionTime": "09:38:6.370000",
    "BandwidthPerPixelPhaseEncode": 17.17,
    "BaseResolution": 104,
    "BodyPartExamined": "BRAIN",
    "CogAtlasID": "trm_4c898da401420",
    "ConsistencyInfo": "N4_VE11C_LATEST_20160120",
    "ConversionSoftware": "dcm2niix",
    "ConversionSoftwareVersion": "v1.0.20171215 (OpenJPEG build) GCC7.3.0",
    "DerivedVendorReportedEchoSpacing": 0.000560011,
    "DeviceSerialNumber": "167006",
    "DwellTime": 2.1e-06,
    "EchoTime": 0.037,
    "EchoTrainLength": 104,
    "EffectiveEchoSpacing": 0.000560011,
    "FlipAngle": 52,
    "ImageComments": "Unaliased_MB4_PE3_LB",
    "ImageOrientationPatientDICOM": [
      0.999382,
      0.0303119,
      -0.0177839,
      -0.0350739,
      0.892135,
      -0.450405
    ],
    "ImageType": [
      "ORIGINAL",
      "PRIMARY",
      "M",
      "MB",
      "ND",
      "MOSAIC"
    ],
    "InPlanePhaseEncodingDirectionDICOM": "COL",
    "InstitutionAddress": "Chemin_Queen-Mary_4565_Montreal_District_CA_H3W_1W5",
    "InstitutionName": "IUGM",
    "InstitutionalDepartmentName": "Department",
    "MRAcquisitionType": "2D",
    "MagneticFieldStrength": 3,
    "Manufacturer": "Siemens",
    "ManufacturersModelName": "Prisma_fit",
    "Modality": "MR",
    "MultibandAccelerationFactor": 4,
    "PartialFourier": 1,
    "PatientPosition": "HFS",
    "PercentPhaseFOV": 100,
    "PhaseEncodingDirection": "j-",
    "PhaseEncodingSteps": 104,
    "PhaseResolution": 1,
    "PixelBandwidth": 2290,
    "ProcedureStepDescription": "video5_generic",
    "ProtocolName": "func_task-figures8",
    "PulseSequenceDetails": "%CustomerSeq%_cmrr_mbep2d_bold",
    "ReceiveCoilActiveElements": "HC1-7;NC1,2",
    "ReceiveCoilName": "HeadNeck_64",
    "ReconMatrixPE": 104,
    "RepetitionTime": 1.49,
    "SAR": 0.0366368,
    "ScanOptions": "FS",
    "ScanningSequence": "EP",
    "SequenceName": "epfid2d1_104",
    "SequenceVariant": "SK_SS",
    "SeriesDescription": "func_task-figures8",
    "SeriesNumber": 9,
    "ShimSetting": [
      616,
      -7194,
      -8874,
      358,
      -7,
      -156,
      16,
      -19
    ],
    "SliceThickness": 2,
    "SliceTiming": [
      0,
      0.785,
      0.0975,
      0.8825,
      0.1975,
      0.98,
      0.295,
      1.0775,
      0.3925,
      1.1775,
      0.49,
      1.275,
      0.5875,
      1.3725,
      0.6875,
      0,
      0.785,
      0.0975,
      0.8825,
      0.1975,
      0.98,
      0.295,
      1.0775,
      0.3925,
      1.1775,
      0.49,
      1.275,
      0.5875,
      1.3725,
      0.6875,
      0,
      0.785,
      0.0975,
      0.8825,
      0.1975,
      0.98,
      0.295,
      1.0775,
      0.3925,
      1.1775,
      0.49,
      1.275,
      0.5875,
      1.3725,
      0.6875,
      0,
      0.785,
      0.0975,
      0.8825,
      0.1975,
      0.98,
      0.295,
      1.0775,
      0.3925,
      1.1775,
      0.49,
      1.275,
      0.5875,
      1.3725,
      0.6875
    ],
    "SoftwareVersions": "syngo_MR_E11",
    "SpacingBetweenSlices": 2,
    "StationName": "MRC35049",
    "TaskName": "figures08",
    "TotalReadoutTime": 0.0576811,
    "TxRefAmp": 250.574,
    "dataset": "<unset>",
    "dcmmeta_affine": [
      [
        -1.9987645149230957,
        -0.07014776021242142,
        -0.0044260150752961636,
        109.74117279052734
      ],
      [
        -0.060623716562986374,
        1.7842706441879272,
        -0.9015003442764282,
        -58.71073913574219
      ],
      [
        -0.035567715764045715,
        0.9008092880249023,
        1.785294771194458,
        -89.19865417480469
      ],
      [
        0.0,
        0.0,
        0.0,
        1.0
      ]
    ],
    "dcmmeta_reorient_transform": [
      [
        0.0,
        -1.0,
        0.0,
        103.0
      ],
      [
        1.0,
        0.0,
        0.0,
        0.0
      ],
      [
        0.0,
        0.0,
        1.0,
        0.0
      ],
      [
        0.0,
        0.0,
        0.0,
        1.0
      ]
    ],
    "dcmmeta_shape": [
      104,
      104,
      60,
      410
    ],
    "dcmmeta_slice_dim": 2,
    "dcmmeta_version": 0.6,
    "global": {
      "const": {
        "AcquisitionMatrix": [
          104,
          0,
          0,
          104
        ],
        "AngioFlag": "N",
        "BitsAllocated": 16,
        "BitsStored": 16,
        "BodyPartExamined": "BRAIN",
        "Columns": 832,
        "EchoNumbers": 1,
        "EchoTime": 37.0,
        "EchoTrainLength": 104,
        "FlipAngle": 52.0,
        "HighBit": 15,
        "ImageOrientationPatient": [
          0.99938227203562,
          0.03031185754101,
          -0.0177838587867,
          -0.0350738782869,
          0.8921353483044,
          -0.4504046440343
        ],
        "ImagePositionPatient": [
          -804.53246216947,
          -796.61070928133,
          344.42593127095
        ],
        "ImageType": [
          "ORIGINAL",
          "PRIMARY",
          "M",
          "MB",
          "ND",
          "MOSAIC"
        ],
        "ImagedNucleus": "1H",
        "ImagingFrequency": 123.259238,
        "InPlanePhaseEncodingDirection": "COL",
        "MRAcquisitionType": "2D",
        "MagneticFieldStrength": 3.0,
        "Manufacturer": "SIEMENS",
        "ManufacturerModelName": "Prisma_fit",
        "Modality": "MR",
        "NumberOfAverages": 1.0,
        "NumberOfPhaseEncodingSteps": 104,
        "PercentPhaseFieldOfView": 100.0,
        "PercentSampling": 100.0,
        "PerformedProcedureStepStartTime": "085252.658000",
        "PhotometricInterpretation": "MONOCHROME2",
        "PixelBandwidth": 2290.0,
        "PixelRepresentation": 0,
        "PixelSpacing": [
          2.0,
          2.0
        ],
        "ProtocolName": "func_task-figures8",
        "RepetitionTime": 1490.0,
        "Rows": 832,
        "SAR": 0.03663682254845,
        "SamplesPerPixel": 1,
        "ScanOptions": "FS",
        "ScanningSequence": "EP",
        "SequenceName": "epfid2d1_104",
        "SequenceVariant": [
          "SK",
          "SS"
        ],
        "SeriesDescription": "func_task-figures8",
        "SeriesNumber": 9,
        "SeriesTime": "093921.648000",
        "SliceLocation": -53.401931426982,
        "SliceThickness": 2.0,
        "SmallestImagePixelValue": 0,
        "SoftwareVersions": "syngo MR E11",
        "SpacingBetweenSlices": 2.0000000035445,
        "SpecificCharacterSet": "ISO_IR 100",
        "StudyID": "1",
        "StudyTime": "085252.559000",
        "TransmitCoilName": "Body",
        "VariableFlipAngleFlag": "N",
        "WindowCenterWidthExplanation": "Algo1",
        "dBdt": 0.0
      },
      "slices": {}
    },
    "modality": "bold",
    "run_id": 1,
    "session_id": "003",
    "subject_id": "02",
    "task_id": "figures08",
    "time": {
      "samples": {
        "AcquisitionNumber": [
          1,
          2,
          3,
          4,
          5,
          6,
          7,
          8,
          9,
          10,
          11,
          12,
          13,
          14,
          15,
          16,
          17,
          18,
          19,
          20,
          21,
          22,
          23,
          24,
          25,
          26,
          27,
          28,
          29,
          30,
          31,
          32,
          33,
          34,
          35,
          36,
          37,
          38,
          39,
          40,
          41,
          42,
          43,
          44,
          45,
          46,
          47,
          48,
          49,
          50,
          51,
          52,
          53,
          54,
          55,
          56,
          57,
          58,
          59,
          60,
          61,
          62,
          63,
          64,
          65,
          66,
          67,
          68,
          69,
          70,
          71,
          72,
          73,
          74,
          75,
          76,
          77,
          78,
          79,
          80,
          81,
          82,
          83,
          84,
          85,
          86,
          87,
          88,
          89,
          90,
          91,
          92,
          93,
          94,
          95,
          96,
          97,
          98,
          99,
          100,
          101,
          102,
          103,
          104,
          105,
          106,
          107,
          108,
          109,
          110,
          111,
          112,
          113,
          114,
          115,
          116,
          117,
          118,
          119,
          120,
          121,
          122,
          123,
          124,
          125,
          126,
          127,
          128,
          129,
          130,
          131,
          132,
          133,
          134,
          135,
          136,
          137,
          138,
          139,
          140,
          141,
          142,
          143,
          144,
          145,
          146,
          147,
          148,
          149,
          150,
          151,
          152,
          153,
          154,
          155,
          156,
          157,
          158,
          159,
          160,
          161,
          162,
          163,
          164,
          165,
          166,
          167,
          168,
          169,
          170,
          171,
          172,
          173,
          174,
          175,
          176,
          177,
          178,
          179,
          180,
          181,
          182,
          183,
          184,
          185,
          186,
          187,
          188,
          189,
          190,
          191,
          192,
          193,
          194,
          195,
          196,
          197,
          198,
          199,
          200,
          201,
          202,
          203,
          204,
          205,
          206,
          207,
          208,
          209,
          210,
          211,
          212,
          213,
          214,
          215,
          216,
          217,
          218,
          219,
          220,
          221,
          222,
          223,
          224,
          225,
          226,
          227,
          228,
          229,
          230,
          231,
          232,
          233,
          234,
          235,
          236,
          237,
          238,
          239,
          240,
          241,
          242,
          243,
          244,
          245,
          246,
          247,
          248,
          249,
          250,
          251,
          252,
          253,
          254,
          255,
          256,
          257,
          258,
          259,
          260,
          261,
          262,
          263,
          264,
          265,
          266,
          267,
          268,
          269,
          270,
          271,
          272,
          273,
          274,
          275,
          276,
          277,
          278,
          279,
          280,
          281,
          282,
          283,
          284,
          285,
          286,
          287,
          288,
          289,
          290,
          291,
          292,
          293,
          294,
          295,
          296,
          297,
          298,
          299,
          300,
          301,
          302,
          303,
          304,
          305,
          306,
          307,
          308,
          309,
          310,
          311,
          312,
          313,
          314,
          315,
          316,
          317,
          318,
          319,
          320,
          321,
          322,
          323,
          324,
          325,
          326,
          327,
          328,
          329,
          330,
          331,
          332,
          333,
          334,
          335,
          336,
          337,
          338,
          339,
          340,
          341,
          342,
          343,
          344,
          345,
          346,
          347,
          348,
          349,
          350,
          351,
          352,
          353,
          354,
          355,
          356,
          357,
          358,
          359,
          360,
          361,
          362,
          363,
          364,
          365,
          366,
          367,
          368,
          369,
          370,
          371,
          372,
          373,
          374,
          375,
          376,
          377,
          378,
          379,
          380,
          381,
          382,
          383,
          384,
          385,
          386,
          387,
          388,
          389,
          390,
          391,
          392,
          393,
          394,
          395,
          396,
          397,
          398,
          399,
          400,
          401,
          402,
          403,
          404,
          405,
          406,
          407,
          408,
          409,
          410
        ],
        "AcquisitionTime": [
          "093806.370000",
          "093807.860000",
          "093809.350000",
          "093810.840000",
          "093812.330000",
          "093813.820000",
          "093815.310000",
          "093816.800000",
          "093818.290000",
          "093819.780000",
          "093821.270000",
          "093822.760000",
          "093824.250000",
          "093825.740000",
          "093827.230000",
          "093828.720000",
          "093830.210000",
          "093831.700000",
          "093833.190000",
          "093834.680000",
          "093836.170000",
          "093837.660000",
          "093839.150000",
          "093840.640000",
          "093842.130000",
          "093843.620000",
          "093845.110000",
          "093846.600000",
          "093848.090000",
          "093849.580000",
          "093851.070000",
          "093852.560000",
          "093854.050000",
          "093855.540000",
          "093857.030000",
          "093858.520000",
          "093900.010000",
          "093901.500000",
          "093902.990000",
          "093904.480000",
          "093905.970000",
          "093907.460000",
          "093908.950000",
          "093910.440000",
          "093911.930000",
          "093913.420000",
          "093914.910000",
          "093916.400000",
          "093917.890000",
          "093919.380000",
          "093920.870000",
          "093922.360000",
          "093923.850000",
          "093925.340000",
          "093926.830000",
          "093928.320000",
          "093929.810000",
          "093931.300000",
          "093932.790000",
          "093934.280000",
          "093935.770000",
          "093937.260000",
          "093938.750000",
          "093940.240000",
          "093941.730000",
          "093943.220000",
          "093944.710000",
          "093946.200000",
          "093947.690000",
          "093949.180000",
          "093950.670000",
          "093952.160000",
          "093953.650000",
          "093955.140000",
          "093956.630000",
          "093958.120000",
          "093959.610000",
          "094001.100000",
          "094002.590000",
          "094004.080000",
          "094005.570000",
          "094007.060000",
          "094008.550000",
          "094010.040000",
          "094011.530000",
          "094013.020000",
          "094014.510000",
          "094016.000000",
          "094017.490000",
          "094018.980000",
          "094020.470000",
          "094021.960000",
          "094023.450000",
          "094024.940000",
          "094026.430000",
          "094027.920000",
          "094029.410000",
          "094030.900000",
          "094032.390000",
          "094033.880000",
          "094035.370000",
          "094036.860000",
          "094038.350000",
          "094039.840000",
          "094041.330000",
          "094042.820000",
          "094044.310000",
          "094045.800000",
          "094047.290000",
          "094048.780000",
          "094050.270000",
          "094051.760000",
          "094053.250000",
          "094054.740000",
          "094056.230000",
          "094057.720000",
          "094059.210000",
          "094100.700000",
          "094102.190000",
          "094103.680000",
          "094105.170000",
          "094106.660000",
          "094108.150000",
          "094109.640000",
          "094111.130000",
          "094112.620000",
          "094114.110000",
          "094115.600000",
          "094117.090000",
          "094118.580000",
          "094120.070000",
          "094121.560000",
          "094123.050000",
          "094124.540000",
          "094126.030000",
          "094127.520000",
          "094129.010000",
          "094130.500000",
          "094131.990000",
          "094133.480000",
          "094134.970000",
          "094136.460000",
          "094137.950000",
          "094139.440000",
          "094140.930000",
          "094142.420000",
          "094143.910000",
          "094145.400000",
          "094146.890000",
          "094148.380000",
          "094149.870000",
          "094151.360000",
          "094152.850000",
          "094154.340000",
          "094155.830000",
          "094157.320000",
          "094158.810000",
          "094200.300000",
          "094201.790000",
          "094203.280000",
          "094204.770000",
          "094206.260000",
          "094207.750000",
          "094209.240000",
          "094210.730000",
          "094212.220000",
          "094213.710000",
          "094215.200000",
          "094216.690000",
          "094218.180000",
          "094219.670000",
          "094221.160000",
          "094222.650000",
          "094224.140000",
          "094225.630000",
          "094227.120000",
          "094228.610000",
          "094230.100000",
          "094231.590000",
          "094233.080000",
          "094234.570000",
          "094236.060000",
          "094237.550000",
          "094239.040000",
          "094240.530000",
          "094242.020000",
          "094243.510000",
          "094245.000000",
          "094246.490000",
          "094247.980000",
          "094249.470000",
          "094250.960000",
          "094252.450000",
          "094253.940000",
          "094255.430000",
          "094256.920000",
          "094258.410000",
          "094259.900000",
          "094301.390000",
          "094302.880000",
          "094304.370000",
          "094305.860000",
          "094307.350000",
          "094308.840000",
          "094310.330000",
          "094311.820000",
          "094313.310000",
          "094314.800000",
          "094316.290000",
          "094317.780000",
          "094319.270000",
          "094320.760000",
          "094322.250000",
          "094323.740000",
          "094325.230000",
          "094326.720000",
          "094328.210000",
          "094329.700000",
          "094331.190000",
          "094332.680000",
          "094334.170000",
          "094335.660000",
          "094337.150000",
          "094338.640000",
          "094340.130000",
          "094341.620000",
          "094343.110000",
          "094344.600000",
          "094346.090000",
          "094347.580000",
          "094349.070000",
          "094350.560000",
          "094352.050000",
          "094353.540000",
          "094355.030000",
          "094356.520000",
          "094358.010000",
          "094359.500000",
          "094400.990000",
          "094402.480000",
          "094403.970000",
          "094405.460000",
          "094406.950000",
          "094408.440000",
          "094409.930000",
          "094411.420000",
          "094412.910000",
          "094414.400000",
          "094415.890000",
          "094417.380000",
          "094418.870000",
          "094420.360000",
          "094421.850000",
          "094423.340000",
          "094424.830000",
          "094426.320000",
          "094427.810000",
          "094429.300000",
          "094430.790000",
          "094432.280000",
          "094433.770000",
          "094435.260000",
          "094436.750000",
          "094438.240000",
          "094439.730000",
          "094441.220000",
          "094442.710000",
          "094444.200000",
          "094445.690000",
          "094447.180000",
          "094448.670000",
          "094450.160000",
          "094451.650000",
          "094453.140000",
          "094454.630000",
          "094456.120000",
          "094457.610000",
          "094459.100000",
          "094500.590000",
          "094502.080000",
          "094503.570000",
          "094505.060000",
          "094506.550000",
          "094508.040000",
          "094509.530000",
          "094511.020000",
          "094512.510000",
          "094514.000000",
          "094515.490000",
          "094516.980000",
          "094518.470000",
          "094519.960000",
          "094521.450000",
          "094522.940000",
          "094524.430000",
          "094525.920000",
          "094527.410000",
          "094528.900000",
          "094530.390000",
          "094531.880000",
          "094533.370000",
          "094534.860000",
          "094536.350000",
          "094537.840000",
          "094539.330000",
          "094540.820000",
          "094542.310000",
          "094543.800000",
          "094545.290000",
          "094546.780000",
          "094548.270000",
          "094549.760000",
          "094551.250000",
          "094552.740000",
          "094554.230000",
          "094555.720000",
          "094557.210000",
          "094558.700000",
          "094600.190000",
          "094601.680000",
          "094603.170000",
          "094604.660000",
          "094606.150000",
          "094607.640000",
          "094609.130000",
          "094610.620000",
          "094612.110000",
          "094613.600000",
          "094615.090000",
          "094616.580000",
          "094618.070000",
          "094619.560000",
          "094621.050000",
          "094622.540000",
          "094624.030000",
          "094625.520000",
          "094627.010000",
          "094628.500000",
          "094629.990000",
          "094631.480000",
          "094632.970000",
          "094634.460000",
          "094635.950000",
          "094637.440000",
          "094638.930000",
          "094640.420000",
          "094641.910000",
          "094643.400000",
          "094644.890000",
          "094646.380000",
          "094647.870000",
          "094649.360000",
          "094650.850000",
          "094652.340000",
          "094653.830000",
          "094655.320000",
          "094656.810000",
          "094658.300000",
          "094659.790000",
          "094701.280000",
          "094702.770000",
          "094704.260000",
          "094705.750000",
          "094707.240000",
          "094708.730000",
          "094710.220000",
          "094711.710000",
          "094713.200000",
          "094714.690000",
          "094716.180000",
          "094717.670000",
          "094719.160000",
          "094720.650000",
          "094722.140000",
          "094723.630000",
          "094725.120000",
          "094726.610000",
          "094728.100000",
          "094729.590000",
          "094731.080000",
          "094732.570000",
          "094734.060000",
          "094735.550000",
          "094737.040000",
          "094738.530000",
          "094740.020000",
          "094741.510000",
          "094743.000000",
          "094744.490000",
          "094745.980000",
          "094747.470000",
          "094748.960000",
          "094750.450000",
          "094751.940000",
          "094753.430000",
          "094754.920000",
          "094756.410000",
          "094757.900000",
          "094759.390000",
          "094800.880000",
          "094802.370000",
          "094803.860000",
          "094805.350000",
          "094806.840000",
          "094808.330000",
          "094809.820000",
          "094811.310000",
          "094812.800000",
          "094814.290000",
          "094815.780000"
        ],
        "ContentTime": [
          "093921.651000",
          "093921.654000",
          "093921.657000",
          "093921.660000",
          "093921.663000",
          "093921.666000",
          "093921.668000",
          "093921.671000",
          "093921.674000",
          "093921.677000",
          "093921.680000",
          "093921.683000",
          "093921.686000",
          "093921.689000",
          "093921.698000",
          "093921.701000",
          "093921.704000",
          "093921.707000",
          "093921.710000",
          "093921.713000",
          "093921.716000",
          "093921.719000",
          "093941.620000",
          "093941.623000",
          "093941.626000",
          "093941.629000",
          "093941.632000",
          "093941.635000",
          "093941.638000",
          "093941.641000",
          "093941.644000",
          "093941.648000",
          "093941.651000",
          "093941.654000",
          "093941.657000",
          "093941.660000",
          "093941.663000",
          "093941.666000",
          "093941.669000",
          "093941.672000",
          "093941.675000",
          "093941.677000",
          "094001.620000",
          "094001.623000",
          "094001.626000",
          "094001.629000",
          "094001.632000",
          "094001.635000",
          "094001.640000",
          "094001.643000",
          "094001.646000",
          "094001.649000",
          "094001.652000",
          "094001.654000",
          "094001.657000",
          "094001.660000",
          "094001.663000",
          "094001.666000",
          "094001.673000",
          "094001.676000",
          "094001.679000",
          "094001.682000",
          "094001.685000",
          "094021.620000",
          "094021.623000",
          "094021.626000",
          "094021.629000",
          "094021.632000",
          "094021.635000",
          "094021.638000",
          "094021.641000",
          "094021.643000",
          "094021.647000",
          "094021.649000",
          "094021.653000",
          "094021.656000",
          "094021.658000",
          "094021.662000",
          "094021.664000",
          "094021.667000",
          "094021.670000",
          "094021.673000",
          "094021.676000",
          "094041.621000",
          "094041.624000",
          "094041.627000",
          "094041.630000",
          "094041.633000",
          "094041.642000",
          "094041.644000",
          "094041.647000",
          "094041.650000",
          "094041.653000",
          "094041.656000",
          "094041.659000",
          "094041.662000",
          "094041.665000",
          "094041.668000",
          "094041.670000",
          "094041.673000",
          "094041.676000",
          "094041.679000",
          "094041.682000",
          "094121.621000",
          "094121.624000",
          "094121.627000",
          "094121.630000",
          "094121.633000",
          "094121.636000",
          "094121.639000",
          "094121.642000",
          "094121.645000",
          "094121.648000",
          "094121.651000",
          "094121.660000",
          "094121.663000",
          "094121.672000",
          "094121.675000",
          "094121.677000",
          "094121.680000",
          "094121.683000",
          "094121.686000",
          "094121.689000",
          "094121.692000",
          "094121.695000",
          "094121.698000",
          "094121.701000",
          "094121.704000",
          "094121.707000",
          "094121.725000",
          "094201.620000",
          "094201.623000",
          "094201.626000",
          "094201.629000",
          "094201.632000",
          "094201.635000",
          "094201.638000",
          "094201.641000",
          "094201.644000",
          "094201.647000",
          "094201.650000",
          "094201.653000",
          "094201.656000",
          "094201.659000",
          "094201.662000",
          "094201.664000",
          "094201.667000",
          "094201.670000",
          "094201.673000",
          "094201.676000",
          "094201.679000",
          "094201.682000",
          "094201.685000",
          "094201.688000",
          "094201.691000",
          "094201.694000",
          "094201.697000",
          "094241.620000",
          "094241.623000",
          "094241.626000",
          "094241.629000",
          "094241.632000",
          "094241.635000",
          "094241.638000",
          "094241.641000",
          "094241.643000",
          "094241.646000",
          "094241.649000",
          "094241.652000",
          "094241.655000",
          "094241.658000",
          "094241.661000",
          "094241.673000",
          "094241.676000",
          "094241.679000",
          "094241.682000",
          "094241.685000",
          "094241.688000",
          "094241.691000",
          "094241.694000",
          "094241.699000",
          "094241.702000",
          "094241.705000",
          "094241.708000",
          "094321.621000",
          "094321.624000",
          "094321.627000",
          "094321.630000",
          "094321.633000",
          "094321.636000",
          "094321.639000",
          "094321.642000",
          "094321.644000",
          "094321.647000",
          "094321.650000",
          "094321.653000",
          "094321.656000",
          "094321.659000",
          "094321.662000",
          "094321.665000",
          "094321.668000",
          "094321.671000",
          "094321.674000",
          "094321.677000",
          "094321.680000",
          "094321.683000",
          "094321.686000",
          "094321.688000",
          "094321.691000",
          "094321.694000",
          "094321.697000",
          "094401.621000",
          "094401.624000",
          "094401.627000",
          "094401.630000",
          "094401.633000",
