{
  "aor": 0.002629828850855746,
  "aqi": 0.010334596772616137,
  "bids_meta": {
    "AcquisitionMatrixPE": 104,
    "AcquisitionNumber": 1,
    "AcquisitionTime": "09:27:24.905000",
    "BandwidthPerPixelPhaseEncode": 17.17,
    "BaseResolution": 104,
    "BodyPartExamined": "BRAIN",
    "CogAtlasID": "trm_4c898da401420",
    "ConsistencyInfo": "N4_VE11C_LATEST_20160120",
    "ConversionSoftware": "dcm2niix",
    "ConversionSoftwareVersion": "v1.0.20171215 (OpenJPEG build) GCC7.3.0",
    "DerivedVendorReportedEchoSpacing": 0.000560011,
    "DeviceSerialNumber": "167006",
    "DwellTime": 2.1e-06,
    "EchoTime": 0.037,
    "EchoTrainLength": 104,
    "EffectiveEchoSpacing": 0.000560011,
    "FlipAngle": 52,
    "ImageComments": "Unaliased_MB4_PE3_LB",
    "ImageOrientationPatientDICOM": [
      0.999382,
      0.0303119,
      -0.0177839,
      -0.0350739,
      0.892135,
      -0.450405
    ],
    "ImageType": [
      "ORIGINAL",
      "PRIMARY",
      "M",
      "MB",
      "ND",
      "MOSAIC"
    ],
    "InPlanePhaseEncodingDirectionDICOM": "COL",
    "InstitutionAddress": "Chemin_Queen-Mary_4565_Montreal_District_CA_H3W_1W5",
    "InstitutionName": "IUGM",
    "InstitutionalDepartmentName": "Department",
    "MRAcquisitionType": "2D",
    "MagneticFieldStrength": 3,
    "Manufacturer": "Siemens",
    "ManufacturersModelName": "Prisma_fit",
    "Modality": "MR",
    "MultibandAccelerationFactor": 4,
    "PartialFourier": 1,
    "PatientPosition": "HFS",
    "PercentPhaseFOV": 100,
    "PhaseEncodingDirection": "j-",
    "PhaseEncodingSteps": 104,
    "PhaseResolution": 1,
    "PixelBandwidth": 2290,
    "ProcedureStepDescription": "video5_generic",
    "ProtocolName": "func_task-figures7",
    "PulseSequenceDetails": "%CustomerSeq%_cmrr_mbep2d_bold",
    "ReceiveCoilActiveElements": "HC1-7;NC1,2",
    "ReceiveCoilName": "HeadNeck_64",
    "ReconMatrixPE": 104,
    "RepetitionTime": 1.49,
    "SAR": 0.0366368,
    "ScanOptions": "FS",
    "ScanningSequence": "EP",
    "SequenceName": "epfid2d1_104",
    "SequenceVariant": "SK_SS",
    "SeriesDescription": "func_task-figures7",
    "SeriesNumber": 7,
    "ShimSetting": [
      616,
      -7192,
      -8871,
      376,
      -19,
      -159,
      24,
      -18
    ],
    "SliceThickness": 2,
    "SliceTiming": [
      0,
      0.785,
      0.0975,
      0.8825,
      0.1975,
      0.98,
      0.295,
      1.0775,
      0.3925,
      1.1775,
      0.49,
      1.275,
      0.5875,
      1.3725,
      0.6875,
      0,
      0.785,
      0.0975,
      0.8825,
      0.1975,
      0.98,
      0.295,
      1.0775,
      0.3925,
      1.1775,
      0.49,
      1.275,
      0.5875,
      1.3725,
      0.6875,
      0,
      0.785,
      0.0975,
      0.8825,
      0.1975,
      0.98,
      0.295,
      1.0775,
      0.3925,
      1.1775,
      0.49,
      1.275,
      0.5875,
      1.3725,
      0.6875,
      0,
      0.785,
      0.0975,
      0.8825,
      0.1975,
      0.98,
      0.295,
      1.0775,
      0.3925,
      1.1775,
      0.49,
      1.275,
      0.5875,
      1.3725,
      0.6875
    ],
    "SoftwareVersions": "syngo_MR_E11",
    "SpacingBetweenSlices": 2,
    "StationName": "MRC35049",
    "TaskName": "figures07",
    "TotalReadoutTime": 0.0576811,
    "TxRefAmp": 250.574,
    "dataset": "<unset>",
    "dcmmeta_affine": [
      [
        -1.9987645149230957,
        -0.07014776021242142,
        -0.0044260150752961636,
        109.74117279052734
      ],
      [
        -0.060623716562986374,
        1.7842706441879272,
        -0.9015003442764282,
        -58.71073913574219
      ],
      [
        -0.035567715764045715,
        0.9008092880249023,
        1.785294771194458,
        -89.19865417480469
      ],
      [
        0.0,
        0.0,
        0.0,
        1.0
      ]
    ],
    "dcmmeta_reorient_transform": [
      [
        0.0,
        -1.0,
        0.0,
        103.0
      ],
      [
        1.0,
        0.0,
        0.0,
        0.0
      ],
      [
        0.0,
        0.0,
        1.0,
        0.0
      ],
      [
        0.0,
        0.0,
        0.0,
        1.0
      ]
    ],
    "dcmmeta_shape": [
      104,
      104,
      60,
      410
    ],
    "dcmmeta_slice_dim": 2,
    "dcmmeta_version": 0.6,
    "global": {
      "const": {
        "AcquisitionMatrix": [
          104,
          0,
          0,
          104
        ],
        "AngioFlag": "N",
        "BitsAllocated": 16,
        "BitsStored": 16,
        "BodyPartExamined": "BRAIN",
        "Columns": 832,
        "EchoNumbers": 1,
        "EchoTime": 37.0,
        "EchoTrainLength": 104,
        "FlipAngle": 52.0,
        "HighBit": 15,
        "ImageOrientationPatient": [
          0.99938227203562,
          0.03031185754101,
          -0.0177838587867,
          -0.0350738782869,
          0.8921353483044,
          -0.4504046440343
        ],
        "ImagePositionPatient": [
          -804.53246216947,
          -796.61070928133,
          344.42593127095
        ],
        "ImageType": [
          "ORIGINAL",
          "PRIMARY",
          "M",
          "MB",
          "ND",
          "MOSAIC"
        ],
        "ImagedNucleus": "1H",
        "ImagingFrequency": 123.259227,
        "InPlanePhaseEncodingDirection": "COL",
        "MRAcquisitionType": "2D",
        "MagneticFieldStrength": 3.0,
        "Manufacturer": "SIEMENS",
        "ManufacturerModelName": "Prisma_fit",
        "Modality": "MR",
        "NumberOfAverages": 1.0,
        "NumberOfPhaseEncodingSteps": 104,
        "PercentPhaseFieldOfView": 100.0,
        "PercentSampling": 100.0,
        "PerformedProcedureStepStartTime": "085252.658000",
        "PhotometricInterpretation": "MONOCHROME2",
        "PixelBandwidth": 2290.0,
        "PixelRepresentation": 0,
        "PixelSpacing": [
          2.0,
          2.0
        ],
        "ProtocolName": "func_task-figures7",
        "RepetitionTime": 1490.0,
        "Rows": 832,
        "SAR": 0.03663682254845,
        "SamplesPerPixel": 1,
        "ScanOptions": "FS",
        "ScanningSequence": "EP",
        "SequenceName": "epfid2d1_104",
        "SequenceVariant": [
          "SK",
          "SS"
        ],
        "SeriesDescription": "func_task-figures7",
        "SeriesNumber": 7,
        "SeriesTime": "092849.711000",
        "SliceLocation": -53.401931426982,
        "SliceThickness": 2.0,
        "SmallestImagePixelValue": 0,
        "SoftwareVersions": "syngo MR E11",
        "SpacingBetweenSlices": 2.0000000035445,
        "SpecificCharacterSet": "ISO_IR 100",
        "StudyID": "1",
        "StudyTime": "085252.559000",
        "TransmitCoilName": "Body",
        "VariableFlipAngleFlag": "N",
        "WindowCenterWidthExplanation": "Algo1",
        "dBdt": 0.0
      },
      "slices": {}
    },
    "modality": "bold",
    "run_id": 1,
    "session_id": "003",
    "subject_id": "02",
    "task_id": "figures07",
    "time": {
      "samples": {
        "AcquisitionNumber": [
          1,
          2,
          3,
          4,
          5,
          6,
          7,
          8,
          9,
          10,
          11,
          12,
          13,
          14,
          15,
          16,
          17,
          18,
          19,
          20,
          21,
          22,
          23,
          24,
          25,
          26,
          27,
          28,
          29,
          30,
          31,
          32,
          33,
          34,
          35,
          36,
          37,
          38,
          39,
          40,
          41,
          42,
          43,
          44,
          45,
          46,
          47,
          48,
          49,
          50,
          51,
          52,
          53,
          54,
          55,
          56,
          57,
          58,
          59,
          60,
          61,
          62,
          63,
          64,
          65,
          66,
          67,
          68,
          69,
          70,
          71,
          72,
          73,
          74,
          75,
          76,
          77,
          78,
          79,
          80,
          81,
          82,
          83,
          84,
          85,
          86,
          87,
          88,
          89,
          90,
          91,
          92,
          93,
          94,
          95,
          96,
          97,
          98,
          99,
          100,
          101,
          102,
          103,
          104,
          105,
          106,
          107,
          108,
          109,
          110,
          111,
          112,
          113,
          114,
          115,
          116,
          117,
          118,
          119,
          120,
          121,
          122,
          123,
          124,
          125,
          126,
          127,
          128,
          129,
          130,
          131,
          132,
          133,
          134,
          135,
          136,
          137,
          138,
          139,
          140,
          141,
          142,
          143,
          144,
          145,
          146,
          147,
          148,
          149,
          150,
          151,
          152,
          153,
          154,
          155,
          156,
          157,
          158,
          159,
          160,
          161,
          162,
          163,
          164,
          165,
          166,
          167,
          168,
          169,
          170,
          171,
          172,
          173,
          174,
          175,
          176,
          177,
          178,
          179,
          180,
          181,
          182,
          183,
          184,
          185,
          186,
          187,
          188,
          189,
          190,
          191,
          192,
          193,
          194,
          195,
          196,
          197,
          198,
          199,
          200,
          201,
          202,
          203,
          204,
          205,
          206,
          207,
          208,
          209,
          210,
          211,
          212,
          213,
          214,
          215,
          216,
          217,
          218,
          219,
          220,
          221,
          222,
          223,
          224,
          225,
          226,
          227,
          228,
          229,
          230,
          231,
          232,
          233,
          234,
          235,
          236,
          237,
          238,
          239,
          240,
          241,
          242,
          243,
          244,
          245,
          246,
          247,
          248,
          249,
          250,
          251,
          252,
          253,
          254,
          255,
          256,
          257,
          258,
          259,
          260,
          261,
          262,
          263,
          264,
          265,
          266,
          267,
          268,
          269,
          270,
          271,
          272,
          273,
          274,
          275,
          276,
          277,
          278,
          279,
          280,
          281,
          282,
          283,
          284,
          285,
          286,
          287,
          288,
          289,
          290,
          291,
          292,
          293,
          294,
          295,
          296,
          297,
          298,
          299,
          300,
          301,
          302,
          303,
          304,
          305,
          306,
          307,
          308,
          309,
          310,
          311,
          312,
          313,
          314,
          315,
          316,
          317,
          318,
          319,
          320,
          321,
          322,
          323,
          324,
          325,
          326,
          327,
          328,
          329,
          330,
          331,
          332,
          333,
          334,
          335,
          336,
          337,
          338,
          339,
          340,
          341,
          342,
          343,
          344,
          345,
          346,
          347,
          348,
          349,
          350,
          351,
          352,
          353,
          354,
          355,
          356,
          357,
          358,
          359,
          360,
          361,
          362,
          363,
          364,
          365,
          366,
          367,
          368,
          369,
          370,
          371,
          372,
          373,
          374,
          375,
          376,
          377,
          378,
          379,
          380,
          381,
          382,
          383,
          384,
          385,
          386,
          387,
          388,
          389,
          390,
          391,
          392,
          393,
          394,
          395,
          396,
          397,
          398,
          399,
          400,
          401,
          402,
          403,
          404,
          405,
          406,
          407,
          408,
          409,
          410
        ],
        "AcquisitionTime": [
          "092724.905000",
          "092726.395000",
          "092727.885000",
          "092729.375000",
          "092730.865000",
          "092732.355000",
          "092733.845000",
          "092735.335000",
          "092736.825000",
          "092738.315000",
          "092739.805000",
          "092741.295000",
          "092742.785000",
          "092744.275000",
          "092745.765000",
          "092747.255000",
          "092748.745000",
          "092750.235000",
          "092751.725000",
          "092753.215000",
          "092754.705000",
          "092756.195000",
          "092757.685000",
          "092759.175000",
          "092800.665000",
          "092802.155000",
          "092803.645000",
          "092805.135000",
          "092806.625000",
          "092808.115000",
          "092809.605000",
          "092811.095000",
          "092812.585000",
          "092814.075000",
          "092815.565000",
          "092817.055000",
          "092818.545000",
          "092820.035000",
          "092821.525000",
          "092823.015000",
          "092824.505000",
          "092825.995000",
          "092827.485000",
          "092828.975000",
          "092830.465000",
          "092831.955000",
          "092833.445000",
          "092834.935000",
          "092836.425000",
          "092837.915000",
          "092839.405000",
          "092840.895000",
          "092842.385000",
          "092843.875000",
          "092845.365000",
          "092846.855000",
          "092848.345000",
          "092849.835000",
          "092851.325000",
          "092852.815000",
          "092854.305000",
          "092855.795000",
          "092857.285000",
          "092858.775000",
          "092900.265000",
          "092901.755000",
          "092903.245000",
          "092904.735000",
          "092906.225000",
          "092907.715000",
          "092909.205000",
          "092910.695000",
          "092912.185000",
          "092913.675000",
          "092915.165000",
          "092916.655000",
          "092918.145000",
          "092919.635000",
          "092921.125000",
          "092922.615000",
          "092924.105000",
          "092925.595000",
          "092927.085000",
          "092928.575000",
          "092930.065000",
          "092931.555000",
          "092933.045000",
          "092934.535000",
          "092936.025000",
          "092937.515000",
          "092939.005000",
          "092940.495000",
          "092941.985000",
          "092943.475000",
          "092944.965000",
          "092946.455000",
          "092947.945000",
          "092949.435000",
          "092950.925000",
          "092952.415000",
          "092953.905000",
          "092955.395000",
          "092956.885000",
          "092958.375000",
          "092959.865000",
          "093001.355000",
          "093002.845000",
          "093004.335000",
          "093005.825000",
          "093007.315000",
          "093008.805000",
          "093010.295000",
          "093011.785000",
          "093013.275000",
          "093014.765000",
          "093016.255000",
          "093017.745000",
          "093019.235000",
          "093020.725000",
          "093022.215000",
          "093023.705000",
          "093025.195000",
          "093026.685000",
          "093028.175000",
          "093029.665000",
          "093031.155000",
          "093032.645000",
          "093034.135000",
          "093035.625000",
          "093037.115000",
          "093038.605000",
          "093040.095000",
          "093041.585000",
          "093043.075000",
          "093044.565000",
          "093046.055000",
          "093047.545000",
          "093049.035000",
          "093050.525000",
          "093052.015000",
          "093053.505000",
          "093054.995000",
          "093056.485000",
          "093057.975000",
          "093059.465000",
          "093100.955000",
          "093102.445000",
          "093103.935000",
          "093105.425000",
          "093106.915000",
          "093108.405000",
          "093109.895000",
          "093111.385000",
          "093112.875000",
          "093114.365000",
          "093115.855000",
          "093117.345000",
          "093118.835000",
          "093120.325000",
          "093121.815000",
          "093123.305000",
          "093124.795000",
          "093126.285000",
          "093127.775000",
          "093129.265000",
          "093130.755000",
          "093132.245000",
          "093133.735000",
          "093135.225000",
          "093136.715000",
          "093138.205000",
          "093139.695000",
          "093141.185000",
          "093142.675000",
          "093144.165000",
          "093145.655000",
          "093147.145000",
          "093148.635000",
          "093150.125000",
          "093151.615000",
          "093153.105000",
          "093154.595000",
          "093156.085000",
          "093157.575000",
          "093159.065000",
          "093200.555000",
          "093202.045000",
          "093203.535000",
          "093205.025000",
          "093206.515000",
          "093208.005000",
          "093209.495000",
          "093210.985000",
          "093212.475000",
          "093213.965000",
          "093215.455000",
          "093216.945000",
          "093218.435000",
          "093219.925000",
          "093221.415000",
          "093222.905000",
          "093224.395000",
          "093225.885000",
          "093227.375000",
          "093228.865000",
          "093230.355000",
          "093231.845000",
          "093233.335000",
          "093234.825000",
          "093236.315000",
          "093237.805000",
          "093239.295000",
          "093240.785000",
          "093242.275000",
          "093243.765000",
          "093245.255000",
          "093246.745000",
          "093248.235000",
          "093249.725000",
          "093251.215000",
          "093252.705000",
          "093254.195000",
          "093255.685000",
          "093257.175000",
          "093258.665000",
          "093300.155000",
          "093301.645000",
          "093303.135000",
          "093304.625000",
          "093306.115000",
          "093307.605000",
          "093309.095000",
          "093310.585000",
          "093312.075000",
          "093313.565000",
          "093315.055000",
          "093316.545000",
          "093318.035000",
          "093319.525000",
          "093321.015000",
          "093322.505000",
          "093323.995000",
          "093325.485000",
          "093326.975000",
          "093328.465000",
          "093329.955000",
          "093331.445000",
          "093332.935000",
          "093334.425000",
          "093335.915000",
          "093337.405000",
          "093338.895000",
          "093340.385000",
          "093341.875000",
          "093343.365000",
          "093344.855000",
          "093346.345000",
          "093347.835000",
          "093349.325000",
          "093350.815000",
          "093352.305000",
          "093353.795000",
          "093355.285000",
          "093356.775000",
          "093358.265000",
          "093359.755000",
          "093401.245000",
          "093402.735000",
          "093404.225000",
          "093405.715000",
          "093407.205000",
          "093408.695000",
          "093410.185000",
          "093411.675000",
          "093413.165000",
          "093414.655000",
          "093416.145000",
          "093417.635000",
          "093419.125000",
          "093420.615000",
          "093422.105000",
          "093423.595000",
          "093425.085000",
          "093426.575000",
          "093428.065000",
          "093429.555000",
          "093431.045000",
          "093432.535000",
          "093434.025000",
          "093435.515000",
          "093437.005000",
          "093438.495000",
          "093439.985000",
          "093441.475000",
          "093442.965000",
          "093444.455000",
          "093445.945000",
          "093447.435000",
          "093448.925000",
          "093450.415000",
          "093451.905000",
          "093453.395000",
          "093454.885000",
          "093456.375000",
          "093457.865000",
          "093459.355000",
          "093500.845000",
          "093502.335000",
          "093503.825000",
          "093505.315000",
          "093506.805000",
          "093508.295000",
          "093509.785000",
          "093511.275000",
          "093512.765000",
          "093514.255000",
          "093515.745000",
          "093517.235000",
          "093518.725000",
          "093520.215000",
          "093521.705000",
          "093523.195000",
          "093524.685000",
          "093526.175000",
          "093527.665000",
          "093529.155000",
          "093530.645000",
          "093532.135000",
          "093533.625000",
          "093535.115000",
          "093536.605000",
          "093538.095000",
          "093539.585000",
          "093541.075000",
          "093542.565000",
          "093544.055000",
          "093545.545000",
          "093547.035000",
          "093548.525000",
          "093550.015000",
          "093551.505000",
          "093552.995000",
          "093554.485000",
          "093555.975000",
          "093557.465000",
          "093558.955000",
          "093600.445000",
          "093601.935000",
          "093603.425000",
          "093604.915000",
          "093606.405000",
          "093607.895000",
          "093609.385000",
          "093610.875000",
          "093612.365000",
          "093613.855000",
          "093615.345000",
          "093616.835000",
          "093618.325000",
          "093619.815000",
          "093621.305000",
          "093622.795000",
          "093624.285000",
          "093625.775000",
          "093627.265000",
          "093628.755000",
          "093630.245000",
          "093631.735000",
          "093633.225000",
          "093634.715000",
          "093636.205000",
          "093637.695000",
          "093639.185000",
          "093640.675000",
          "093642.165000",
          "093643.655000",
          "093645.145000",
          "093646.635000",
          "093648.125000",
          "093649.615000",
          "093651.105000",
          "093652.595000",
          "093654.085000",
          "093655.575000",
          "093657.065000",
          "093658.555000",
          "093700.045000",
          "093701.535000",
          "093703.025000",
          "093704.515000",
          "093706.005000",
          "093707.495000",
          "093708.985000",
          "093710.475000",
          "093711.965000",
          "093713.455000",
          "093714.945000",
          "093716.435000",
          "093717.925000",
          "093719.415000",
          "093720.905000",
          "093722.395000",
          "093723.885000",
          "093725.375000",
          "093726.865000",
          "093728.355000",
          "093729.845000",
          "093731.335000",
          "093732.825000",
          "093734.315000"
        ],
        "ContentTime": [
          "092849.713000",
          "092849.723000",
          "092849.726000",
          "092849.729000",
          "092849.735000",
          "092849.738000",
          "092849.741000",
          "092849.744000",
          "092849.747000",
          "092849.750000",
          "092849.753000",
          "092849.756000",
          "092849.770000",
          "092849.773000",
          "092849.777000",
          "092849.780000",
          "092849.783000",
          "092849.786000",
          "092849.789000",
          "092849.792000",
          "092849.795000",
          "092849.798000",
          "092849.801000",
          "092849.804000",
          "092849.807000",
          "092849.810000",
          "092849.813000",
          "092849.816000",
          "092849.819000",
          "092849.822000",
          "092909.657000",
          "092909.668000",
          "092909.671000",
          "092909.674000",
          "092909.677000",
          "092909.680000",
          "092909.682000",
          "092909.685000",
          "092909.688000",
          "092909.691000",
          "092909.694000",
          "092909.697000",
          "092909.706000",
          "092909.709000",
          "092909.712000",
          "092909.715000",
          "092909.718000",
          "092909.721000",
          "092909.724000",
          "092909.726000",
          "092909.730000",
          "092929.657000",
          "092929.660000",
          "092929.663000",
          "092929.666000",
          "092929.669000",
          "092929.672000",
          "092929.675000",
          "092929.678000",
          "092929.681000",
          "092929.684000",
          "092929.692000",
          "092929.695000",
          "092929.698000",
          "092929.701000",
          "092929.704000",
          "092929.706000",
          "092929.709000",
          "092929.712000",
          "092929.715000",
          "092929.718000",
          "092949.657000",
          "092949.660000",
          "092949.663000",
          "092949.670000",
          "092949.673000",
          "092949.676000",
          "092949.679000",
          "092949.682000",
          "092949.685000",
          "092949.688000",
          "092949.691000",
          "092949.694000",
          "092949.697000",
          "092949.699000",
          "092949.702000",
          "092949.705000",
          "092949.708000",
          "092949.711000",
          "092949.714000",
          "092949.717000",
          "093029.657000",
          "093029.660000",
          "093029.663000",
          "093029.666000",
          "093029.669000",
          "093029.672000",
          "093029.677000",
          "093029.680000",
          "093029.683000",
          "093029.686000",
          "093029.689000",
          "093029.692000",
          "093029.695000",
          "093029.698000",
          "093029.701000",
          "093029.704000",
          "093029.707000",
          "093029.710000",
          "093029.713000",
          "093029.715000",
          "093029.718000",
          "093029.721000",
          "093029.724000",
          "093029.727000",
          "093029.730000",
          "093029.733000",
          "093029.736000",
          "093029.739000",
          "093029.742000",
          "093029.745000",
          "093029.748000",
          "093029.751000",
          "093109.657000",
          "093109.660000",
          "093109.663000",
          "093109.666000",
          "093109.669000",
          "093109.672000",
          "093109.675000",
          "093109.678000",
          "093109.681000",
          "093109.684000",
          "093109.687000",
          "093109.690000",
          "093109.693000",
          "093109.696000",
          "093109.699000",
          "093109.702000",
          "093109.705000",
          "093109.707000",
          "093109.710000",
          "093109.714000",
          "093109.716000",
          "093109.719000",
          "093109.722000",
          "093109.725000",
          "093109.728000",
          "093109.731000",
          "093109.734000",
          "093149.657000",
          "093149.660000",
          "093149.663000",
          "093149.666000",
          "093149.669000",
          "093149.672000",
          "093149.675000",
          "093149.678000",
          "093149.681000",
          "093149.684000",
          "093149.687000",
          "093149.690000",
          "093149.693000",
          "093149.696000",
          "093149.699000",
          "093149.702000",
          "093149.705000",
          "093149.708000",
          "093149.711000",
          "093149.740000",
          "093149.743000",
          "093149.745000",
          "093149.748000",
          "093149.751000",
          "093149.754000",
          "093149.763000",
          "093149.766000",
          "093229.657000",
          "093229.660000",
          "093229.663000",
          "093229.666000",
          "093229.669000",
          "093229.672000",
          "093229.675000",
          "093229.678000",
          "093229.681000",
          "093229.684000",
          "093229.687000",
          "093229.690000",
          "093229.693000",
          "093229.696000",
          "093229.699000",
          "093229.702000",
          "093229.705000",
          "093229.708000",
          "093229.711000",
          "093229.714000",
          "093229.716000",
          "093229.719000",
          "093229.722000",
          "093229.725000",
          "093229.728000",
          "093229.731000",
          "093229.734000",
          "093309.657000",
          "093309.660000",
          "093309.663000",
          "093309.666000",
          "093309.669000",
          "093309.672000",
          "093309.675000",
          "093309.678000",
          "093309.681000",
          "093309.684000",
          "093309.687000",
          "093309.690000",
