{
  "aor": 0.0008167560975609757,
  "aqi": 0.007749694658536585,
  "bids_meta": {
    "AcquisitionMatrixPE": 104,
    "AcquisitionNumber": 1,
    "AcquisitionTime": "09:59:17.607500",
    "BandwidthPerPixelPhaseEncode": 17.17,
    "BaseResolution": 104,
    "BodyPartExamined": "BRAIN",
    "CogAtlasID": "trm_4c898da401420",
    "ConsistencyInfo": "N4_VE11C_LATEST_20160120",
    "ConversionSoftware": "dcm2niix",
    "ConversionSoftwareVersion": "v1.0.20171215 (OpenJPEG build) GCC7.3.0",
    "DerivedVendorReportedEchoSpacing": 0.000560011,
    "DeviceSerialNumber": "167006",
    "DwellTime": 2.1e-06,
    "EchoTime": 0.037,
    "EchoTrainLength": 104,
    "EffectiveEchoSpacing": 0.000560011,
    "FlipAngle": 52,
    "ImageComments": "Unaliased_MB4_PE3_LB",
    "ImageOrientationPatientDICOM": [
      0.999382,
      0.0303119,
      -0.0177839,
      -0.0350739,
      0.892135,
      -0.450405
    ],
    "ImageType": [
      "ORIGINAL",
      "PRIMARY",
      "M",
      "MB",
      "ND",
      "MOSAIC"
    ],
    "InPlanePhaseEncodingDirectionDICOM": "COL",
    "InstitutionAddress": "Chemin_Queen-Mary_4565_Montreal_District_CA_H3W_1W5",
    "InstitutionName": "IUGM",
    "InstitutionalDepartmentName": "Department",
    "MRAcquisitionType": "2D",
    "MagneticFieldStrength": 3,
    "Manufacturer": "Siemens",
    "ManufacturersModelName": "Prisma_fit",
    "Modality": "MR",
    "MultibandAccelerationFactor": 4,
    "PartialFourier": 1,
    "PatientPosition": "HFS",
    "PercentPhaseFOV": 100,
    "PhaseEncodingDirection": "j-",
    "PhaseEncodingSteps": 104,
    "PhaseResolution": 1,
    "PixelBandwidth": 2290,
    "ProcedureStepDescription": "video5_generic",
    "ProtocolName": "func_task-figures10",
    "PulseSequenceDetails": "%CustomerSeq%_cmrr_mbep2d_bold",
    "ReceiveCoilActiveElements": "HC1-7;NC1,2",
    "ReceiveCoilName": "HeadNeck_64",
    "ReconMatrixPE": 104,
    "RepetitionTime": 1.49,
    "SAR": 0.0366368,
    "ScanOptions": "FS",
    "ScanningSequence": "EP",
    "SequenceName": "epfid2d1_104",
    "SequenceVariant": "SK_SS",
    "SeriesDescription": "func_task-figures10",
    "SeriesNumber": 13,
    "ShimSetting": [
      616,
      -7194,
      -8874,
      358,
      -7,
      -156,
      16,
      -19
    ],
    "SliceThickness": 2,
    "SliceTiming": [
      0,
      0.785,
      0.0975,
      0.8825,
      0.195,
      0.98,
      0.295,
      1.0775,
      0.3925,
      1.175,
      0.49,
      1.275,
      0.5875,
      1.3725,
      0.685,
      0,
      0.785,
      0.0975,
      0.8825,
      0.195,
      0.98,
      0.295,
      1.0775,
      0.3925,
      1.175,
      0.49,
      1.275,
      0.5875,
      1.3725,
      0.685,
      0,
      0.785,
      0.0975,
      0.8825,
      0.195,
      0.98,
      0.295,
      1.0775,
      0.3925,
      1.175,
      0.49,
      1.275,
      0.5875,
      1.3725,
      0.685,
      0,
      0.785,
      0.0975,
      0.8825,
      0.195,
      0.98,
      0.295,
      1.0775,
      0.3925,
      1.175,
      0.49,
      1.275,
      0.5875,
      1.3725,
      0.685
    ],
    "SoftwareVersions": "syngo_MR_E11",
    "SpacingBetweenSlices": 2,
    "StationName": "MRC35049",
    "TaskName": "figures10",
    "TotalReadoutTime": 0.0576811,
    "TxRefAmp": 250.574,
    "dataset": "<unset>",
    "dcmmeta_affine": [
      [
        -1.9987645149230957,
        -0.07014776021242142,
        -0.0044260150752961636,
        109.74117279052734
      ],
      [
        -0.060623716562986374,
        1.7842706441879272,
        -0.9015003442764282,
        -58.71073913574219
      ],
      [
        -0.035567715764045715,
        0.9008092880249023,
        1.785294771194458,
        -89.19865417480469
      ],
      [
        0.0,
        0.0,
        0.0,
        1.0
      ]
    ],
    "dcmmeta_reorient_transform": [
      [
        0.0,
        -1.0,
        0.0,
        103.0
      ],
      [
        1.0,
        0.0,
        0.0,
        0.0
      ],
      [
        0.0,
        0.0,
        1.0,
        0.0
      ],
      [
        0.0,
        0.0,
        0.0,
        1.0
      ]
    ],
    "dcmmeta_shape": [
      104,
      104,
      60,
      410
    ],
    "dcmmeta_slice_dim": 2,
    "dcmmeta_version": 0.6,
    "global": {
      "const": {
        "AcquisitionMatrix": [
          104,
          0,
          0,
          104
        ],
        "AngioFlag": "N",
        "BitsAllocated": 16,
        "BitsStored": 16,
        "BodyPartExamined": "BRAIN",
        "Columns": 832,
        "EchoNumbers": 1,
        "EchoTime": 37.0,
        "EchoTrainLength": 104,
        "FlipAngle": 52.0,
        "HighBit": 15,
        "ImageOrientationPatient": [
          0.99938227203562,
          0.03031185754101,
          -0.0177838587867,
          -0.0350738782869,
          0.8921353483044,
          -0.4504046440343
        ],
        "ImagePositionPatient": [
          -804.53246216947,
          -796.61070928133,
          344.42593127095
        ],
        "ImageType": [
          "ORIGINAL",
          "PRIMARY",
          "M",
          "MB",
          "ND",
          "MOSAIC"
        ],
        "ImagedNucleus": "1H",
        "ImagingFrequency": 123.25925,
        "InPlanePhaseEncodingDirection": "COL",
        "MRAcquisitionType": "2D",
        "MagneticFieldStrength": 3.0,
        "Manufacturer": "SIEMENS",
        "ManufacturerModelName": "Prisma_fit",
        "Modality": "MR",
        "NumberOfAverages": 1.0,
        "NumberOfPhaseEncodingSteps": 104,
        "PercentPhaseFieldOfView": 100.0,
        "PercentSampling": 100.0,
        "PerformedProcedureStepStartTime": "085252.658000",
        "PhotometricInterpretation": "MONOCHROME2",
        "PixelBandwidth": 2290.0,
        "PixelRepresentation": 0,
        "PixelSpacing": [
          2.0,
          2.0
        ],
        "ProtocolName": "func_task-figures10",
        "RepetitionTime": 1490.0,
        "Rows": 832,
        "SAR": 0.03663682254845,
        "SamplesPerPixel": 1,
        "ScanOptions": "FS",
        "ScanningSequence": "EP",
        "SequenceName": "epfid2d1_104",
        "SequenceVariant": [
          "SK",
          "SS"
        ],
        "SeriesDescription": "func_task-figures10",
        "SeriesNumber": 13,
        "SeriesTime": "100049.682000",
        "SliceLocation": -53.401931426982,
        "SliceThickness": 2.0,
        "SmallestImagePixelValue": 0,
        "SoftwareVersions": "syngo MR E11",
        "SpacingBetweenSlices": 2.0000000035445,
        "SpecificCharacterSet": "ISO_IR 100",
        "StudyID": "1",
        "StudyTime": "085252.559000",
        "TransmitCoilName": "Body",
        "VariableFlipAngleFlag": "N",
        "WindowCenterWidthExplanation": "Algo1",
        "dBdt": 0.0
      },
      "slices": {}
    },
    "modality": "bold",
    "run_id": 1,
    "session_id": "003",
    "subject_id": "02",
    "task_id": "figures10",
    "time": {
      "samples": {
        "AcquisitionNumber": [
          1,
          2,
          3,
          4,
          5,
          6,
          7,
          8,
          9,
          10,
          11,
          12,
          13,
          14,
          15,
          16,
          17,
          18,
          19,
          20,
          21,
          22,
          23,
          24,
          25,
          26,
          27,
          28,
          29,
          30,
          31,
          32,
          33,
          34,
          35,
          36,
          37,
          38,
          39,
          40,
          41,
          42,
          43,
          44,
          45,
          46,
          47,
          48,
          49,
          50,
          51,
          52,
          53,
          54,
          55,
          56,
          57,
          58,
          59,
          60,
          61,
          62,
          63,
          64,
          65,
          66,
          67,
          68,
          69,
          70,
          71,
          72,
          73,
          74,
          75,
          76,
          77,
          78,
          79,
          80,
          81,
          82,
          83,
          84,
          85,
          86,
          87,
          88,
          89,
          90,
          91,
          92,
          93,
          94,
          95,
          96,
          97,
          98,
          99,
          100,
          101,
          102,
          103,
          104,
          105,
          106,
          107,
          108,
          109,
          110,
          111,
          112,
          113,
          114,
          115,
          116,
          117,
          118,
          119,
          120,
          121,
          122,
          123,
          124,
          125,
          126,
          127,
          128,
          129,
          130,
          131,
          132,
          133,
          134,
          135,
          136,
          137,
          138,
          139,
          140,
          141,
          142,
          143,
          144,
          145,
          146,
          147,
          148,
          149,
          150,
          151,
          152,
          153,
          154,
          155,
          156,
          157,
          158,
          159,
          160,
          161,
          162,
          163,
          164,
          165,
          166,
          167,
          168,
          169,
          170,
          171,
          172,
          173,
          174,
          175,
          176,
          177,
          178,
          179,
          180,
          181,
          182,
          183,
          184,
          185,
          186,
          187,
          188,
          189,
          190,
          191,
          192,
          193,
          194,
          195,
          196,
          197,
          198,
          199,
          200,
          201,
          202,
          203,
          204,
          205,
          206,
          207,
          208,
          209,
          210,
          211,
          212,
          213,
          214,
          215,
          216,
          217,
          218,
          219,
          220,
          221,
          222,
          223,
          224,
          225,
          226,
          227,
          228,
          229,
          230,
          231,
          232,
          233,
          234,
          235,
          236,
          237,
          238,
          239,
          240,
          241,
          242,
          243,
          244,
          245,
          246,
          247,
          248,
          249,
          250,
          251,
          252,
          253,
          254,
          255,
          256,
          257,
          258,
          259,
          260,
          261,
          262,
          263,
          264,
          265,
          266,
          267,
          268,
          269,
          270,
          271,
          272,
          273,
          274,
          275,
          276,
          277,
          278,
          279,
          280,
          281,
          282,
          283,
          284,
          285,
          286,
          287,
          288,
          289,
          290,
          291,
          292,
          293,
          294,
          295,
          296,
          297,
          298,
          299,
          300,
          301,
          302,
          303,
          304,
          305,
          306,
          307,
          308,
          309,
          310,
          311,
          312,
          313,
          314,
          315,
          316,
          317,
          318,
          319,
          320,
          321,
          322,
          323,
          324,
          325,
          326,
          327,
          328,
          329,
          330,
          331,
          332,
          333,
          334,
          335,
          336,
          337,
          338,
          339,
          340,
          341,
          342,
          343,
          344,
          345,
          346,
          347,
          348,
          349,
          350,
          351,
          352,
          353,
          354,
          355,
          356,
          357,
          358,
          359,
          360,
          361,
          362,
          363,
          364,
          365,
          366,
          367,
          368,
          369,
          370,
          371,
          372,
          373,
          374,
          375,
          376,
          377,
          378,
          379,
          380,
          381,
          382,
          383,
          384,
          385,
          386,
          387,
          388,
          389,
          390,
          391,
          392,
          393,
          394,
          395,
          396,
          397,
          398,
          399,
          400,
          401,
          402,
          403,
          404,
          405,
          406,
          407,
          408,
          409,
          410
        ],
        "AcquisitionTime": [
          "095917.607500",
          "095919.097500",
          "095920.587500",
          "095922.077500",
          "095923.567500",
          "095925.057500",
          "095926.547500",
          "095928.037500",
          "095929.527500",
          "095931.017500",
          "095932.507500",
          "095933.997500",
          "095935.487500",
          "095936.977500",
          "095938.467500",
          "095939.957500",
          "095941.447500",
          "095942.937500",
          "095944.427500",
          "095945.917500",
          "095947.407500",
          "095948.897500",
          "095950.387500",
          "095951.877500",
          "095953.367500",
          "095954.857500",
          "095956.347500",
          "095957.837500",
          "095959.327500",
          "100000.817500",
          "100002.307500",
          "100003.797500",
          "100005.287500",
          "100006.777500",
          "100008.267500",
          "100009.757500",
          "100011.247500",
          "100012.737500",
          "100014.227500",
          "100015.717500",
          "100017.207500",
          "100018.697500",
          "100020.187500",
          "100021.677500",
          "100023.167500",
          "100024.657500",
          "100026.147500",
          "100027.637500",
          "100029.127500",
          "100030.617500",
          "100032.107500",
          "100033.597500",
          "100035.087500",
          "100036.577500",
          "100038.067500",
          "100039.557500",
          "100041.047500",
          "100042.537500",
          "100044.027500",
          "100045.517500",
          "100047.007500",
          "100048.497500",
          "100049.987500",
          "100051.477500",
          "100052.967500",
          "100054.457500",
          "100055.947500",
          "100057.437500",
          "100058.927500",
          "100100.417500",
          "100101.907500",
          "100103.397500",
          "100104.887500",
          "100106.377500",
          "100107.867500",
          "100109.357500",
          "100110.847500",
          "100112.337500",
          "100113.827500",
          "100115.317500",
          "100116.807500",
          "100118.297500",
          "100119.787500",
          "100121.277500",
          "100122.767500",
          "100124.257500",
          "100125.747500",
          "100127.237500",
          "100128.727500",
          "100130.217500",
          "100131.707500",
          "100133.197500",
          "100134.687500",
          "100136.177500",
          "100137.667500",
          "100139.157500",
          "100140.647500",
          "100142.137500",
          "100143.627500",
          "100145.117500",
          "100146.607500",
          "100148.097500",
          "100149.587500",
          "100151.077500",
          "100152.567500",
          "100154.057500",
          "100155.547500",
          "100157.037500",
          "100158.527500",
          "100200.017500",
          "100201.507500",
          "100202.997500",
          "100204.487500",
          "100205.977500",
          "100207.467500",
          "100208.957500",
          "100210.447500",
          "100211.937500",
          "100213.427500",
          "100214.917500",
          "100216.407500",
          "100217.897500",
          "100219.387500",
          "100220.877500",
          "100222.367500",
          "100223.857500",
          "100225.347500",
          "100226.837500",
          "100228.327500",
          "100229.817500",
          "100231.307500",
          "100232.797500",
          "100234.287500",
          "100235.777500",
          "100237.267500",
          "100238.757500",
          "100240.247500",
          "100241.737500",
          "100243.227500",
          "100244.717500",
          "100246.207500",
          "100247.697500",
          "100249.187500",
          "100250.677500",
          "100252.167500",
          "100253.657500",
          "100255.147500",
          "100256.637500",
          "100258.127500",
          "100259.617500",
          "100301.107500",
          "100302.597500",
          "100304.087500",
          "100305.577500",
          "100307.067500",
          "100308.557500",
          "100310.047500",
          "100311.537500",
          "100313.027500",
          "100314.517500",
          "100316.007500",
          "100317.497500",
          "100318.987500",
          "100320.477500",
          "100321.967500",
          "100323.457500",
          "100324.947500",
          "100326.437500",
          "100327.927500",
          "100329.417500",
          "100330.907500",
          "100332.397500",
          "100333.887500",
          "100335.377500",
          "100336.867500",
          "100338.357500",
          "100339.847500",
          "100341.337500",
          "100342.827500",
          "100344.317500",
          "100345.807500",
          "100347.297500",
          "100348.787500",
          "100350.277500",
          "100351.767500",
          "100353.257500",
          "100354.747500",
          "100356.237500",
          "100357.727500",
          "100359.217500",
          "100400.707500",
          "100402.197500",
          "100403.687500",
          "100405.177500",
          "100406.667500",
          "100408.157500",
          "100409.647500",
          "100411.137500",
          "100412.627500",
          "100414.117500",
          "100415.607500",
          "100417.097500",
          "100418.587500",
          "100420.077500",
          "100421.567500",
          "100423.057500",
          "100424.547500",
          "100426.037500",
          "100427.527500",
          "100429.017500",
          "100430.507500",
          "100431.997500",
          "100433.487500",
          "100434.977500",
          "100436.467500",
          "100437.957500",
          "100439.447500",
          "100440.937500",
          "100442.427500",
          "100443.917500",
          "100445.407500",
          "100446.897500",
          "100448.387500",
          "100449.877500",
          "100451.367500",
          "100452.857500",
          "100454.347500",
          "100455.837500",
          "100457.327500",
          "100458.817500",
          "100500.307500",
          "100501.797500",
          "100503.287500",
          "100504.777500",
          "100506.267500",
          "100507.757500",
          "100509.247500",
          "100510.737500",
          "100512.227500",
          "100513.717500",
          "100515.207500",
          "100516.697500",
          "100518.187500",
          "100519.677500",
          "100521.167500",
          "100522.657500",
          "100524.147500",
          "100525.637500",
          "100527.127500",
          "100528.617500",
          "100530.107500",
          "100531.597500",
          "100533.087500",
          "100534.577500",
          "100536.067500",
          "100537.557500",
          "100539.047500",
          "100540.537500",
          "100542.027500",
          "100543.517500",
          "100545.007500",
          "100546.497500",
          "100547.987500",
          "100549.477500",
          "100550.967500",
          "100552.457500",
          "100553.947500",
          "100555.437500",
          "100556.927500",
          "100558.417500",
          "100559.907500",
          "100601.397500",
          "100602.887500",
          "100604.377500",
          "100605.867500",
          "100607.357500",
          "100608.847500",
          "100610.337500",
          "100611.827500",
          "100613.317500",
          "100614.807500",
          "100616.297500",
          "100617.787500",
          "100619.277500",
          "100620.767500",
          "100622.257500",
          "100623.747500",
          "100625.237500",
          "100626.727500",
          "100628.217500",
          "100629.707500",
          "100631.197500",
          "100632.687500",
          "100634.177500",
          "100635.667500",
          "100637.157500",
          "100638.647500",
          "100640.137500",
          "100641.627500",
          "100643.117500",
          "100644.607500",
          "100646.097500",
          "100647.587500",
          "100649.077500",
          "100650.567500",
          "100652.057500",
          "100653.547500",
          "100655.037500",
          "100656.527500",
          "100658.017500",
          "100659.507500",
          "100700.997500",
          "100702.487500",
          "100703.977500",
          "100705.467500",
          "100706.957500",
          "100708.447500",
          "100709.937500",
          "100711.427500",
          "100712.917500",
          "100714.407500",
          "100715.897500",
          "100717.387500",
          "100718.877500",
          "100720.367500",
          "100721.857500",
          "100723.347500",
          "100724.837500",
          "100726.327500",
          "100727.817500",
          "100729.307500",
          "100730.797500",
          "100732.287500",
          "100733.777500",
          "100735.267500",
          "100736.757500",
          "100738.247500",
          "100739.737500",
          "100741.227500",
          "100742.717500",
          "100744.207500",
          "100745.697500",
          "100747.187500",
          "100748.677500",
          "100750.167500",
          "100751.657500",
          "100753.147500",
          "100754.637500",
          "100756.127500",
          "100757.617500",
          "100759.107500",
          "100800.597500",
          "100802.087500",
          "100803.577500",
          "100805.067500",
          "100806.557500",
          "100808.047500",
          "100809.537500",
          "100811.027500",
          "100812.517500",
          "100814.007500",
          "100815.497500",
          "100816.987500",
          "100818.477500",
          "100819.967500",
          "100821.457500",
          "100822.947500",
          "100824.437500",
          "100825.927500",
          "100827.417500",
          "100828.907500",
          "100830.397500",
          "100831.887500",
          "100833.377500",
          "100834.867500",
          "100836.357500",
          "100837.847500",
          "100839.337500",
          "100840.827500",
          "100842.317500",
          "100843.807500",
          "100845.297500",
          "100846.787500",
          "100848.277500",
          "100849.767500",
          "100851.257500",
          "100852.747500",
          "100854.237500",
          "100855.727500",
          "100857.217500",
          "100858.707500",
          "100900.197500",
          "100901.687500",
          "100903.177500",
          "100904.667500",
          "100906.157500",
          "100907.647500",
          "100909.137500",
          "100910.627500",
          "100912.117500",
          "100913.607500",
          "100915.097500",
          "100916.587500",
          "100918.077500",
          "100919.567500",
          "100921.057500",
          "100922.547500",
          "100924.037500",
          "100925.527500",
          "100927.017500"
        ],
        "ContentTime": [
          "100049.685000",
          "100049.689000",
          "100049.692000",
          "100049.695000",
          "100049.698000",
          "100049.701000",
          "100049.704000",
          "100049.710000",
          "100049.713000",
          "100049.716000",
          "100049.719000",
          "100049.722000",
          "100049.725000",
          "100049.728000",
          "100049.731000",
          "100049.734000",
          "100049.737000",
          "100049.740000",
          "100049.743000",
          "100049.746000",
          "100049.749000",
          "100049.752000",
          "100049.755000",
          "100049.758000",
          "100049.760000",
          "100049.763000",
          "100049.766000",
          "100049.769000",
          "100049.772000",
          "100049.782000",
          "100049.785000",
          "100049.788000",
          "100049.791000",
          "100049.794000",
          "100049.797000",
          "100109.657000",
          "100109.660000",
          "100109.663000",
          "100109.679000",
          "100109.682000",
          "100109.685000",
          "100109.688000",
          "100109.691000",
          "100109.694000",
          "100109.696000",
          "100109.699000",
          "100109.702000",
          "100109.705000",
          "100109.708000",
          "100109.711000",
          "100109.714000",
          "100109.717000",
          "100109.720000",
          "100109.723000",
          "100109.726000",
          "100109.729000",
          "100129.657000",
          "100129.660000",
          "100129.663000",
          "100129.666000",
          "100129.669000",
          "100129.672000",
          "100129.675000",
          "100129.678000",
          "100129.682000",
          "100129.685000",
          "100129.688000",
          "100129.691000",
          "100129.694000",
          "100129.697000",
          "100129.700000",
          "100129.703000",
          "100129.706000",
          "100129.710000",
          "100129.713000",
          "100129.716000",
          "100149.657000",
          "100149.660000",
          "100149.663000",
          "100149.666000",
          "100149.669000",
          "100149.672000",
          "100149.675000",
          "100149.678000",
          "100149.681000",
          "100149.684000",
          "100149.687000",
          "100149.690000",
          "100149.692000",
          "100149.695000",
          "100149.709000",
          "100149.712000",
          "100149.715000",
          "100149.718000",
          "100149.721000",
          "100149.724000",
          "100229.657000",
          "100229.660000",
          "100229.663000",
          "100229.666000",
          "100229.669000",
          "100229.672000",
          "100229.675000",
          "100229.678000",
          "100229.681000",
          "100229.684000",
          "100229.687000",
          "100229.689000",
          "100229.701000",
          "100229.703000",
          "100229.706000",
          "100229.709000",
          "100229.712000",
          "100229.715000",
          "100229.718000",
          "100229.721000",
          "100229.724000",
          "100229.727000",
          "100229.735000",
          "100229.738000",
          "100229.741000",
          "100229.744000",
          "100229.747000",
          "100229.750000",
          "100229.753000",
          "100229.756000",
          "100229.759000",
          "100229.762000",
          "100309.657000",
          "100309.660000",
          "100309.663000",
          "100309.666000",
          "100309.669000",
          "100309.672000",
          "100309.675000",
          "100309.678000",
          "100309.681000",
          "100309.684000",
          "100309.686000",
          "100309.689000",
          "100309.692000",
          "100309.695000",
          "100309.698000",
          "100309.701000",
          "100309.704000",
          "100309.707000",
          "100309.710000",
          "100309.713000",
          "100309.716000",
          "100309.719000",
          "100309.721000",
          "100309.724000",
          "100309.727000",
          "100309.737000",
          "100309.740000",
          "100349.657000",
          "100349.660000",
          "100349.663000",
          "100349.666000",
          "100349.669000",
          "100349.672000",
          "100349.675000",
          "100349.678000",
          "100349.680000",
          "100349.683000",
          "100349.686000",
          "100349.689000",
          "100349.692000",
          "100349.695000",
          "100349.698000",
          "100349.701000",
          "100349.704000",
          "100349.707000",
          "100349.715000",
          "100349.718000",
          "100349.721000",
          "100349.724000",
          "100349.727000",
          "100349.729000",
          "100349.732000",
          "100349.735000",
          "100349.738000",
          "100429.657000",
          "100429.660000",
          "100429.663000",
          "100429.666000",
          "100429.669000",
          "100429.672000",
          "100429.675000",
          "100429.678000",
          "100429.681000",
          "100429.684000",
          "100429.686000",
          "100429.690000",
          "100429.693000",
          "100429.696000",
          "100429.699000",
          "100429.709000",
          "100429.711000",
          "100429.714000",
          "100429.717000",
          "100429.720000",
          "100429.723000",
          "100429.726000",
          "100429.729000",
          "100429.732000",
          "100429.735000",
          "100429.738000",
          "100509.657000",
          "100509.665000",
          "100509.668000",
          "100509.671000",
          "100509.674000",
          "100509.676000",
          "100509.679000",
          "100509.682000",
