{
  "aor": 0.0011364603960396038,
  "aqi": 0.007066612301980198,
  "bids_meta": {
    "AcquisitionMatrixPE": 104,
    "AcquisitionNumber": 1,
    "AcquisitionTime": "09:28:55.572500",
    "BandwidthPerPixelPhaseEncode": 17.17,
    "BaseResolution": 104,
    "BodyPartExamined": "BRAIN",
    "CogAtlasID": "trm_4c898da401420",
    "ConsistencyInfo": "N4_VE11C_LATEST_20160120",
    "ConversionSoftware": "dcm2niix",
    "ConversionSoftwareVersion": "v1.0.20171215 (OpenJPEG build) GCC7.3.0",
    "DerivedVendorReportedEchoSpacing": 0.000560011,
    "DeviceSerialNumber": "167006",
    "DwellTime": 2.1e-06,
    "EchoTime": 0.037,
    "EchoTrainLength": 104,
    "EffectiveEchoSpacing": 0.000560011,
    "FlipAngle": 52,
    "ImageComments": "Unaliased_MB4_PE3_LB",
    "ImageOrientationPatientDICOM": [
      0.998598,
      0.0486443,
      -0.0208867,
      -0.0528586,
      0.894486,
      -0.44396
    ],
    "ImageType": [
      "ORIGINAL",
      "PRIMARY",
      "M",
      "MB",
      "ND",
      "MOSAIC"
    ],
    "InPlanePhaseEncodingDirectionDICOM": "COL",
    "InstitutionAddress": "Chemin_Queen-Mary_4565_Montreal_District_CA_H3W_1W5",
    "InstitutionName": "IUGM",
    "InstitutionalDepartmentName": "Department",
    "MRAcquisitionType": "2D",
    "MagneticFieldStrength": 3,
    "Manufacturer": "Siemens",
    "ManufacturersModelName": "Prisma_fit",
    "Modality": "MR",
    "MultibandAccelerationFactor": 4,
    "PartialFourier": 1,
    "PatientPosition": "HFS",
    "PercentPhaseFOV": 100,
    "PhaseEncodingDirection": "j-",
    "PhaseEncodingSteps": 104,
    "PhaseResolution": 1,
    "PixelBandwidth": 2290,
    "ProcedureStepDescription": "video5_generic",
    "ProtocolName": "func_task-wolf1",
    "PulseSequenceDetails": "%CustomerSeq%_cmrr_mbep2d_bold",
    "ReceiveCoilActiveElements": "HC1-7;NC1,2",
    "ReceiveCoilName": "HeadNeck_64",
    "ReconMatrixPE": 104,
    "RepetitionTime": 1.49,
    "SAR": 0.0367867,
    "ScanOptions": "FS",
    "ScanningSequence": "EP",
    "SequenceName": "epfid2d1_104",
    "SequenceVariant": "SK_SS",
    "SeriesDescription": "func_task-wolf1",
    "SeriesNumber": 7,
    "ShimSetting": [
      623,
      -7189,
      -8898,
      395,
      1,
      -132,
      10,
      -30
    ],
    "SliceThickness": 2,
    "SliceTiming": [
      0,
      0.7825,
      0.0975,
      0.88,
      0.195,
      0.98,
      0.2925,
      1.0775,
      0.39,
      1.175,
      0.49,
      1.2725,
      0.5875,
      1.37,
      0.685,
      0,
      0.7825,
      0.0975,
      0.88,
      0.195,
      0.98,
      0.2925,
      1.0775,
      0.39,
      1.175,
      0.49,
      1.2725,
      0.5875,
      1.37,
      0.685,
      0,
      0.7825,
      0.0975,
      0.88,
      0.195,
      0.98,
      0.2925,
      1.0775,
      0.39,
      1.175,
      0.49,
      1.2725,
      0.5875,
      1.37,
      0.685,
      0,
      0.7825,
      0.0975,
      0.88,
      0.195,
      0.98,
      0.2925,
      1.0775,
      0.39,
      1.175,
      0.49,
      1.2725,
      0.5875,
      1.37,
      0.685
    ],
    "SoftwareVersions": "syngo_MR_E11",
    "SpacingBetweenSlices": 2,
    "StationName": "MRC35049",
    "TaskName": "wolf01",
    "TotalReadoutTime": 0.0576811,
    "TxRefAmp": 250.821,
    "dataset": "<unset>",
    "dcmmeta_affine": [
      [
        -1.9971954822540283,
        -0.10571722686290741,
        0.005826470907777548,
        110.60844421386719
      ],
      [
        -0.09728856384754181,
        1.7889727354049683,
        -0.8888822793960571,
        -49.29227066040039
      ],
      [
        -0.04177338629961014,
        0.8879192471504211,
        1.7916066646575928,
        -98.99451446533203
      ],
      [
        0.0,
        0.0,
        0.0,
        1.0
      ]
    ],
    "dcmmeta_reorient_transform": [
      [
        0.0,
        -1.0,
        0.0,
        103.0
      ],
      [
        1.0,
        0.0,
        0.0,
        0.0
      ],
      [
        0.0,
        0.0,
        1.0,
        0.0
      ],
      [
        0.0,
        0.0,
        0.0,
        1.0
      ]
    ],
    "dcmmeta_shape": [
      104,
      104,
      60,
      406
    ],
    "dcmmeta_slice_dim": 2,
    "dcmmeta_version": 0.6,
    "global": {
      "const": {
        "AcquisitionMatrix": [
          104,
          0,
          0,
          104
        ],
        "AngioFlag": "N",
        "BitsAllocated": 16,
        "BitsStored": 16,
        "BodyPartExamined": "BRAIN",
        "Columns": 832,
        "EchoNumbers": 1,
        "EchoTime": 37.0,
        "EchoTrainLength": 104,
        "FlipAngle": 52.0,
        "HighBit": 15,
        "ImageOrientationPatient": [
          0.99859775685552,
          0.04864428093922,
          -0.0208866927738,
          -0.0528586138958,
          0.89448634279993,
          -0.4439596259587
        ],
        "ImagePositionPatient": [
          -788.21766263646,
          -821.57100860185,
          330.86928653852
        ],
        "ImageType": [
          "ORIGINAL",
          "PRIMARY",
          "M",
          "MB",
          "ND",
          "MOSAIC"
        ],
        "ImagedNucleus": "1H",
        "ImagingFrequency": 123.259589,
        "InPlanePhaseEncodingDirection": "COL",
        "MRAcquisitionType": "2D",
        "MagneticFieldStrength": 3.0,
        "Manufacturer": "SIEMENS",
        "ManufacturerModelName": "Prisma_fit",
        "Modality": "MR",
        "NumberOfAverages": 1.0,
        "NumberOfPhaseEncodingSteps": 104,
        "PercentPhaseFieldOfView": 100.0,
        "PercentSampling": 100.0,
        "PerformedProcedureStepStartTime": "092414.231000",
        "PhotometricInterpretation": "MONOCHROME2",
        "PixelBandwidth": 2290.0,
        "PixelRepresentation": 0,
        "PixelSpacing": [
          2.0,
          2.0
        ],
        "ProtocolName": "func_task-wolf1",
        "RepetitionTime": 1490.0,
        "Rows": 832,
        "SAR": 0.03678665619623,
        "SamplesPerPixel": 1,
        "ScanOptions": "FS",
        "ScanningSequence": "EP",
        "SequenceName": "epfid2d1_104",
        "SequenceVariant": [
          "SK",
          "SS"
        ],
        "SeriesDescription": "func_task-wolf1",
        "SeriesNumber": 7,
        "SeriesTime": "093024.826000",
        "SliceLocation": -66.449875518147,
        "SliceThickness": 2.0,
        "SmallestImagePixelValue": 0,
        "SoftwareVersions": "syngo MR E11",
        "SpacingBetweenSlices": 2.0000000357554,
        "SpecificCharacterSet": "ISO_IR 100",
        "StudyID": "1",
        "StudyTime": "092414.077000",
        "TransmitCoilName": "Body",
        "VariableFlipAngleFlag": "N",
        "WindowCenterWidthExplanation": "Algo1",
        "dBdt": 0.0
      },
      "slices": {}
    },
    "modality": "bold",
    "session_id": "006",
    "subject_id": "02",
    "task_id": "wolf01",
    "time": {
      "samples": {
        "AcquisitionNumber": [
          1,
          2,
          3,
          4,
          5,
          6,
          7,
          8,
          9,
          10,
          11,
          12,
          13,
          14,
          15,
          16,
          17,
          18,
          19,
          20,
          21,
          22,
          23,
          24,
          25,
          26,
          27,
          28,
          29,
          30,
          31,
          32,
          33,
          34,
          35,
          36,
          37,
          38,
          39,
          40,
          41,
          42,
          43,
          44,
          45,
          46,
          47,
          48,
          49,
          50,
          51,
          52,
          53,
          54,
          55,
          56,
          57,
          58,
          59,
          60,
          61,
          62,
          63,
          64,
          65,
          66,
          67,
          68,
          69,
          70,
          71,
          72,
          73,
          74,
          75,
          76,
          77,
          78,
          79,
          80,
          81,
          82,
          83,
          84,
          85,
          86,
          87,
          88,
          89,
          90,
          91,
          92,
          93,
          94,
          95,
          96,
          97,
          98,
          99,
          100,
          101,
          102,
          103,
          104,
          105,
          106,
          107,
          108,
          109,
          110,
          111,
          112,
          113,
          114,
          115,
          116,
          117,
          118,
          119,
          120,
          121,
          122,
          123,
          124,
          125,
          126,
          127,
          128,
          129,
          130,
          131,
          132,
          133,
          134,
          135,
          136,
          137,
          138,
          139,
          140,
          141,
          142,
          143,
          144,
          145,
          146,
          147,
          148,
          149,
          150,
          151,
          152,
          153,
          154,
          155,
          156,
          157,
          158,
          159,
          160,
          161,
          162,
          163,
          164,
          165,
          166,
          167,
          168,
          169,
          170,
          171,
          172,
          173,
          174,
          175,
          176,
          177,
          178,
          179,
          180,
          181,
          182,
          183,
          184,
          185,
          186,
          187,
          188,
          189,
          190,
          191,
          192,
          193,
          194,
          195,
          196,
          197,
          198,
          199,
          200,
          201,
          202,
          203,
          204,
          205,
          206,
          207,
          208,
          209,
          210,
          211,
          212,
          213,
          214,
          215,
          216,
          217,
          218,
          219,
          220,
          221,
          222,
          223,
          224,
          225,
          226,
          227,
          228,
          229,
          230,
          231,
          232,
          233,
          234,
          235,
          236,
          237,
          238,
          239,
          240,
          241,
          242,
          243,
          244,
          245,
          246,
          247,
          248,
          249,
          250,
          251,
          252,
          253,
          254,
          255,
          256,
          257,
          258,
          259,
          260,
          261,
          262,
          263,
          264,
          265,
          266,
          267,
          268,
          269,
          270,
          271,
          272,
          273,
          274,
          275,
          276,
          277,
          278,
          279,
          280,
          281,
          282,
          283,
          284,
          285,
          286,
          287,
          288,
          289,
          290,
          291,
          292,
          293,
          294,
          295,
          296,
          297,
          298,
          299,
          300,
          301,
          302,
          303,
          304,
          305,
          306,
          307,
          308,
          309,
          310,
          311,
          312,
          313,
          314,
          315,
          316,
          317,
          318,
          319,
          320,
          321,
          322,
          323,
          324,
          325,
          326,
          327,
          328,
          329,
          330,
          331,
          332,
          333,
          334,
          335,
          336,
          337,
          338,
          339,
          340,
          341,
          342,
          343,
          344,
          345,
          346,
          347,
          348,
          349,
          350,
          351,
          352,
          353,
          354,
          355,
          356,
          357,
          358,
          359,
          360,
          361,
          362,
          363,
          364,
          365,
          366,
          367,
          368,
          369,
          370,
          371,
          372,
          373,
          374,
          375,
          376,
          377,
          378,
          379,
          380,
          381,
          382,
          383,
          384,
          385,
          386,
          387,
          388,
          389,
          390,
          391,
          392,
          393,
          394,
          395,
          396,
          397,
          398,
          399,
          400,
          401,
          402,
          403,
          404,
          405,
          406
        ],
        "AcquisitionTime": [
          "092855.572500",
          "092857.062500",
          "092858.552500",
          "092900.042500",
          "092901.532500",
          "092903.022500",
          "092904.512500",
          "092906.002500",
          "092907.492500",
          "092908.982500",
          "092910.472500",
          "092911.962500",
          "092913.452500",
          "092914.942500",
          "092916.432500",
          "092917.922500",
          "092919.412500",
          "092920.902500",
          "092922.392500",
          "092923.882500",
          "092925.372500",
          "092926.862500",
          "092928.352500",
          "092929.842500",
          "092931.332500",
          "092932.822500",
          "092934.312500",
          "092935.802500",
          "092937.292500",
          "092938.782500",
          "092940.272500",
          "092941.762500",
          "092943.252500",
          "092944.742500",
          "092946.232500",
          "092947.722500",
          "092949.212500",
          "092950.702500",
          "092952.192500",
          "092953.682500",
          "092955.172500",
          "092956.662500",
          "092958.152500",
          "092959.642500",
          "093001.132500",
          "093002.622500",
          "093004.112500",
          "093005.602500",
          "093007.092500",
          "093008.582500",
          "093010.072500",
          "093011.562500",
          "093013.052500",
          "093014.542500",
          "093016.032500",
          "093017.522500",
          "093019.012500",
          "093020.502500",
          "093021.992500",
          "093023.482500",
          "093024.972500",
          "093026.462500",
          "093027.952500",
          "093029.442500",
          "093030.932500",
          "093032.422500",
          "093033.912500",
          "093035.402500",
          "093036.892500",
          "093038.382500",
          "093039.872500",
          "093041.362500",
          "093042.852500",
          "093044.342500",
          "093045.832500",
          "093047.322500",
          "093048.812500",
          "093050.302500",
          "093051.792500",
          "093053.282500",
          "093054.772500",
          "093056.262500",
          "093057.752500",
          "093059.242500",
          "093100.732500",
          "093102.222500",
          "093103.712500",
          "093105.202500",
          "093106.692500",
          "093108.182500",
          "093109.672500",
          "093111.162500",
          "093112.652500",
          "093114.142500",
          "093115.632500",
          "093117.122500",
          "093118.612500",
          "093120.102500",
          "093121.592500",
          "093123.082500",
          "093124.572500",
          "093126.062500",
          "093127.552500",
          "093129.042500",
          "093130.532500",
          "093132.022500",
          "093133.512500",
          "093135.002500",
          "093136.492500",
          "093137.982500",
          "093139.472500",
          "093140.962500",
          "093142.452500",
          "093143.942500",
          "093145.432500",
          "093146.922500",
          "093148.412500",
          "093149.902500",
          "093151.392500",
          "093152.882500",
          "093154.372500",
          "093155.862500",
          "093157.352500",
          "093158.842500",
          "093200.332500",
          "093201.822500",
          "093203.312500",
          "093204.802500",
          "093206.292500",
          "093207.782500",
          "093209.272500",
          "093210.762500",
          "093212.252500",
          "093213.742500",
          "093215.232500",
          "093216.722500",
          "093218.212500",
          "093219.702500",
          "093221.192500",
          "093222.682500",
          "093224.172500",
          "093225.662500",
          "093227.152500",
          "093228.642500",
          "093230.132500",
          "093231.622500",
          "093233.112500",
          "093234.602500",
          "093236.092500",
          "093237.582500",
          "093239.072500",
          "093240.562500",
          "093242.052500",
          "093243.542500",
          "093245.032500",
          "093246.522500",
          "093248.012500",
          "093249.502500",
          "093250.992500",
          "093252.482500",
          "093253.972500",
          "093255.462500",
          "093256.952500",
          "093258.442500",
          "093259.932500",
          "093301.422500",
          "093302.912500",
          "093304.402500",
          "093305.892500",
          "093307.382500",
          "093308.872500",
          "093310.362500",
          "093311.852500",
          "093313.342500",
          "093314.832500",
          "093316.322500",
          "093317.812500",
          "093319.302500",
          "093320.792500",
          "093322.282500",
          "093323.772500",
          "093325.262500",
          "093326.752500",
          "093328.242500",
          "093329.732500",
          "093331.222500",
          "093332.712500",
          "093334.202500",
          "093335.692500",
          "093337.182500",
          "093338.672500",
          "093340.162500",
          "093341.652500",
          "093343.142500",
          "093344.632500",
          "093346.122500",
          "093347.612500",
          "093349.102500",
          "093350.592500",
          "093352.082500",
          "093353.572500",
          "093355.062500",
          "093356.552500",
          "093358.042500",
          "093359.532500",
          "093401.022500",
          "093402.512500",
          "093404.002500",
          "093405.492500",
          "093406.982500",
          "093408.472500",
          "093409.962500",
          "093411.452500",
          "093412.942500",
          "093414.432500",
          "093415.922500",
          "093417.412500",
          "093418.902500",
          "093420.392500",
          "093421.882500",
          "093423.372500",
          "093424.862500",
          "093426.352500",
          "093427.842500",
          "093429.332500",
          "093430.822500",
          "093432.312500",
          "093433.802500",
          "093435.292500",
          "093436.782500",
          "093438.272500",
          "093439.762500",
          "093441.252500",
          "093442.742500",
          "093444.232500",
          "093445.722500",
          "093447.212500",
          "093448.702500",
          "093450.192500",
          "093451.682500",
          "093453.172500",
          "093454.662500",
          "093456.152500",
          "093457.642500",
          "093459.132500",
          "093500.622500",
          "093502.112500",
          "093503.602500",
          "093505.092500",
          "093506.582500",
          "093508.072500",
          "093509.562500",
          "093511.052500",
          "093512.542500",
          "093514.032500",
          "093515.522500",
          "093517.012500",
          "093518.502500",
          "093519.992500",
          "093521.482500",
          "093522.972500",
          "093524.462500",
          "093525.952500",
          "093527.442500",
          "093528.932500",
          "093530.422500",
          "093531.912500",
          "093533.402500",
          "093534.892500",
          "093536.382500",
          "093537.872500",
          "093539.362500",
          "093540.852500",
          "093542.342500",
          "093543.832500",
          "093545.322500",
          "093546.812500",
          "093548.302500",
          "093549.792500",
          "093551.282500",
          "093552.772500",
          "093554.262500",
          "093555.752500",
          "093557.242500",
          "093558.732500",
          "093600.222500",
          "093601.712500",
          "093603.202500",
          "093604.692500",
          "093606.182500",
          "093607.672500",
          "093609.162500",
          "093610.652500",
          "093612.142500",
          "093613.632500",
          "093615.122500",
          "093616.612500",
          "093618.102500",
          "093619.592500",
          "093621.082500",
          "093622.572500",
          "093624.062500",
          "093625.552500",
          "093627.042500",
          "093628.532500",
          "093630.022500",
          "093631.512500",
          "093633.002500",
          "093634.492500",
          "093635.982500",
          "093637.472500",
          "093638.962500",
          "093640.452500",
          "093641.942500",
          "093643.432500",
          "093644.922500",
          "093646.412500",
          "093647.902500",
          "093649.392500",
          "093650.882500",
          "093652.372500",
          "093653.862500",
          "093655.352500",
          "093656.842500",
          "093658.332500",
          "093659.822500",
          "093701.312500",
          "093702.802500",
          "093704.292500",
          "093705.782500",
          "093707.272500",
          "093708.762500",
          "093710.252500",
          "093711.742500",
          "093713.232500",
          "093714.722500",
          "093716.212500",
          "093717.702500",
          "093719.192500",
          "093720.682500",
          "093722.172500",
          "093723.662500",
          "093725.152500",
          "093726.642500",
          "093728.132500",
          "093729.622500",
          "093731.112500",
          "093732.602500",
          "093734.092500",
          "093735.582500",
          "093737.072500",
          "093738.562500",
          "093740.052500",
          "093741.542500",
          "093743.032500",
          "093744.522500",
          "093746.012500",
          "093747.502500",
          "093748.992500",
          "093750.482500",
          "093751.972500",
          "093753.462500",
          "093754.952500",
          "093756.442500",
          "093757.932500",
          "093759.422500",
          "093800.912500",
          "093802.402500",
          "093803.892500",
          "093805.382500",
          "093806.872500",
          "093808.362500",
          "093809.852500",
          "093811.342500",
          "093812.832500",
          "093814.322500",
          "093815.812500",
          "093817.302500",
          "093818.792500",
          "093820.282500",
          "093821.772500",
          "093823.262500",
          "093824.752500",
          "093826.242500",
          "093827.732500",
          "093829.222500",
          "093830.712500",
          "093832.202500",
          "093833.692500",
          "093835.182500",
          "093836.672500",
          "093838.162500",
          "093839.652500",
          "093841.142500",
          "093842.632500",
          "093844.122500",
          "093845.612500",
          "093847.102500",
          "093848.592500",
          "093850.082500",
          "093851.572500",
          "093853.062500",
          "093854.552500",
          "093856.042500",
          "093857.532500",
          "093859.022500"
        ],
        "ContentTime": [
          "093024.829000",
          "093024.833000",
          "093024.839000",
          "093024.841000",
          "093024.844000",
          "093024.847000",
          "093024.850000",
          "093024.853000",
          "093024.856000",
          "093024.867000",
          "093024.870000",
          "093024.873000",
          "093024.876000",
          "093024.879000",
          "093024.882000",
          "093024.885000",
          "093024.888000",
          "093024.891000",
          "093024.893000",
          "093024.896000",
          "093024.899000",
          "093024.902000",
          "093024.905000",
          "093024.914000",
          "093024.916000",
          "093024.920000",
          "093024.922000",
          "093024.925000",
          "093024.928000",
          "093024.931000",
          "093024.934000",
          "093024.937000",
          "093024.940000",
          "093024.943000",
          "093044.791000",
          "093044.794000",
          "093044.802000",
          "093044.805000",
          "093044.808000",
          "093044.810000",
          "093044.813000",
          "093044.816000",
          "093044.819000",
          "093044.822000",
          "093044.825000",
          "093044.828000",
          "093044.830000",
          "093044.833000",
          "093044.836000",
          "093044.843000",
          "093044.846000",
          "093044.849000",
          "093044.852000",
          "093044.855000",
          "093104.791000",
          "093104.794000",
          "093104.797000",
          "093104.800000",
          "093104.802000",
          "093104.805000",
          "093104.808000",
          "093104.811000",
          "093104.814000",
          "093104.817000",
          "093104.820000",
          "093104.823000",
          "093104.825000",
          "093104.828000",
          "093104.831000",
          "093104.834000",
          "093104.837000",
          "093104.840000",
          "093104.843000",
          "093104.845000",
          "093124.792000",
          "093124.795000",
          "093124.798000",
          "093124.812000",
          "093124.815000",
          "093124.818000",
          "093124.821000",
          "093124.823000",
          "093124.826000",
          "093124.829000",
          "093124.832000",
          "093124.835000",
          "093124.838000",
          "093124.851000",
          "093124.854000",
          "093124.857000",
          "093124.860000",
          "093124.863000",
          "093124.866000",
          "093124.868000",
          "093204.791000",
          "093204.794000",
          "093204.797000",
          "093204.800000",
          "093204.803000",
          "093204.805000",
          "093204.808000",
          "093204.811000",
          "093204.814000",
          "093204.817000",
          "093204.820000",
          "093204.823000",
          "093204.826000",
          "093204.829000",
          "093204.832000",
          "093204.835000",
          "093204.837000",
          "093204.840000",
          "093204.843000",
          "093204.846000",
          "093204.849000",
          "093204.852000",
          "093204.855000",
          "093204.858000",
          "093204.860000",
          "093204.863000",
          "093204.866000",
          "093204.869000",
          "093204.872000",
          "093204.875000",
          "093204.878000",
          "093204.881000",
          "093244.791000",
          "093244.794000",
          "093244.797000",
          "093244.800000",
          "093244.803000",
          "093244.805000",
          "093244.808000",
          "093244.811000",
          "093244.814000",
          "093244.817000",
          "093244.820000",
          "093244.823000",
          "093244.826000",
          "093244.829000",
          "093244.831000",
          "093244.834000",
          "093244.837000",
          "093244.840000",
          "093244.843000",
          "093244.846000",
          "093244.849000",
          "093244.852000",
          "093244.855000",
          "093244.857000",
          "093244.860000",
          "093244.863000",
          "093244.866000",
          "093324.791000",
          "093324.794000",
          "093324.797000",
          "093324.800000",
          "093324.803000",
          "093324.806000",
          "093324.809000",
          "093324.812000",
          "093324.814000",
          "093324.817000",
          "093324.820000",
          "093324.823000",
          "093324.826000",
          "093324.829000",
          "093324.832000",
          "093324.835000",
          "093324.838000",
          "093324.840000",
          "093324.843000",
          "093324.846000",
          "093324.849000",
          "093324.852000",
          "093324.855000",
          "093324.858000",
          "093324.861000",
          "093324.863000",
          "093324.866000",
          "093404.791000",
          "093404.794000",
          "093404.797000",
          "093404.800000",
          "093404.802000",
          "093404.805000",
          "093404.808000",
          "093404.811000",
          "093404.814000",
          "093404.817000",
          "093404.820000",
          "093404.823000",
          "093404.826000",
          "093404.829000",
          "093404.832000",
          "093404.835000",
          "093404.838000",
          "093404.840000",
          "093404.843000",
          "093404.846000",
          "093404.849000",
          "093404.852000",
          "093404.855000",
          "093404.858000",
          "093404.860000",
          "093404.863000",
          "093404.866000",
          "093444.791000",
          "093444.794000",
          "093444.797000",
          "093444.800000",
          "093444.803000",
          "093444.806000",
          "093444.809000",
          "093444.812000",
          "093444.814000",
          "093444.817000",
          "093444.820000",
          "093444.823000",
          "093444.826000",
          "093444.829000",
          "093444.832000",
          "093444.835000",
          "093444.838000",
