{
  "aor": 0.0008951485148514851,
  "aqi": 0.0073848999009901,
  "bids_meta": {
    "AcquisitionMatrixPE": 104,
    "AcquisitionNumber": 1,
    "AcquisitionTime": "10:00:27.777500",
    "BandwidthPerPixelPhaseEncode": 17.17,
    "BaseResolution": 104,
    "BodyPartExamined": "BRAIN",
    "CogAtlasID": "trm_4c898da401420",
    "ConsistencyInfo": "N4_VE11C_LATEST_20160120",
    "ConversionSoftware": "dcm2niix",
    "ConversionSoftwareVersion": "v1.0.20171215 (OpenJPEG build) GCC7.3.0",
    "DerivedVendorReportedEchoSpacing": 0.000560011,
    "DeviceSerialNumber": "167006",
    "DwellTime": 2.1e-06,
    "EchoTime": 0.037,
    "EchoTrainLength": 104,
    "EffectiveEchoSpacing": 0.000560011,
    "FlipAngle": 52,
    "ImageComments": "Unaliased_MB4_PE3_LB",
    "ImageOrientationPatientDICOM": [
      0.998598,
      0.0486443,
      -0.0208867,
      -0.0528586,
      0.894486,
      -0.44396
    ],
    "ImageType": [
      "ORIGINAL",
      "PRIMARY",
      "M",
      "MB",
      "ND",
      "MOSAIC"
    ],
    "InPlanePhaseEncodingDirectionDICOM": "COL",
    "InstitutionAddress": "Chemin_Queen-Mary_4565_Montreal_District_CA_H3W_1W5",
    "InstitutionName": "IUGM",
    "InstitutionalDepartmentName": "Department",
    "MRAcquisitionType": "2D",
    "MagneticFieldStrength": 3,
    "Manufacturer": "Siemens",
    "ManufacturersModelName": "Prisma_fit",
    "Modality": "MR",
    "MultibandAccelerationFactor": 4,
    "PartialFourier": 1,
    "PatientPosition": "HFS",
    "PercentPhaseFOV": 100,
    "PhaseEncodingDirection": "j-",
    "PhaseEncodingSteps": 104,
    "PhaseResolution": 1,
    "PixelBandwidth": 2290,
    "ProcedureStepDescription": "video5_generic",
    "ProtocolName": "func_task-wolf4",
    "PulseSequenceDetails": "%CustomerSeq%_cmrr_mbep2d_bold",
    "ReceiveCoilActiveElements": "HC1-7;NC1,2",
    "ReceiveCoilName": "HeadNeck_64",
    "ReconMatrixPE": 104,
    "RepetitionTime": 1.49,
    "SAR": 0.0367867,
    "ScanOptions": "FS",
    "ScanningSequence": "EP",
    "SequenceName": "epfid2d1_104",
    "SequenceVariant": "SK_SS",
    "SeriesDescription": "func_task-wolf4",
    "SeriesNumber": 13,
    "ShimSetting": [
      623,
      -7189,
      -8898,
      395,
      1,
      -132,
      10,
      -30
    ],
    "SliceThickness": 2,
    "SliceTiming": [
      0,
      0.7825,
      0.0975,
      0.88,
      0.195,
      0.9775,
      0.2925,
      1.0775,
      0.39,
      1.175,
      0.49,
      1.2725,
      0.5875,
      1.37,
      0.685,
      0,
      0.7825,
      0.0975,
      0.88,
      0.195,
      0.9775,
      0.2925,
      1.0775,
      0.39,
      1.175,
      0.49,
      1.2725,
      0.5875,
      1.37,
      0.685,
      0,
      0.7825,
      0.0975,
      0.88,
      0.195,
      0.9775,
      0.2925,
      1.0775,
      0.39,
      1.175,
      0.49,
      1.2725,
      0.5875,
      1.37,
      0.685,
      0,
      0.7825,
      0.0975,
      0.88,
      0.195,
      0.9775,
      0.2925,
      1.0775,
      0.39,
      1.175,
      0.49,
      1.2725,
      0.5875,
      1.37,
      0.685
    ],
    "SoftwareVersions": "syngo_MR_E11",
    "SpacingBetweenSlices": 2,
    "StationName": "MRC35049",
    "TaskName": "wolf04",
    "TotalReadoutTime": 0.0576811,
    "TxRefAmp": 250.821,
    "dataset": "<unset>",
    "dcmmeta_affine": [
      [
        -1.9971954822540283,
        -0.10571722686290741,
        0.005826470907777548,
        110.60844421386719
      ],
      [
        -0.09728856384754181,
        1.7889727354049683,
        -0.8888822793960571,
        -49.29227066040039
      ],
      [
        -0.04177338629961014,
        0.8879192471504211,
        1.7916066646575928,
        -98.99451446533203
      ],
      [
        0.0,
        0.0,
        0.0,
        1.0
      ]
    ],
    "dcmmeta_reorient_transform": [
      [
        0.0,
        -1.0,
        0.0,
        103.0
      ],
      [
        1.0,
        0.0,
        0.0,
        0.0
      ],
      [
        0.0,
        0.0,
        1.0,
        0.0
      ],
      [
        0.0,
        0.0,
        0.0,
        1.0
      ]
    ],
    "dcmmeta_shape": [
      104,
      104,
      60,
      406
    ],
    "dcmmeta_slice_dim": 2,
    "dcmmeta_version": 0.6,
    "global": {
      "const": {
        "AcquisitionMatrix": [
          104,
          0,
          0,
          104
        ],
        "AngioFlag": "N",
        "BitsAllocated": 16,
        "BitsStored": 16,
        "BodyPartExamined": "BRAIN",
        "Columns": 832,
        "EchoNumbers": 1,
        "EchoTime": 37.0,
        "EchoTrainLength": 104,
        "FlipAngle": 52.0,
        "HighBit": 15,
        "ImageOrientationPatient": [
          0.99859775685552,
          0.04864428093922,
          -0.0208866927738,
          -0.0528586138958,
          0.89448634279993,
          -0.4439596259587
        ],
        "ImagePositionPatient": [
          -788.21766263646,
          -821.57100860185,
          330.86928653852
        ],
        "ImageType": [
          "ORIGINAL",
          "PRIMARY",
          "M",
          "MB",
          "ND",
          "MOSAIC"
        ],
        "ImagedNucleus": "1H",
        "ImagingFrequency": 123.259608,
        "InPlanePhaseEncodingDirection": "COL",
        "MRAcquisitionType": "2D",
        "MagneticFieldStrength": 3.0,
        "Manufacturer": "SIEMENS",
        "ManufacturerModelName": "Prisma_fit",
        "Modality": "MR",
        "NumberOfAverages": 1.0,
        "NumberOfPhaseEncodingSteps": 104,
        "PercentPhaseFieldOfView": 100.0,
        "PercentSampling": 100.0,
        "PerformedProcedureStepStartTime": "092414.231000",
        "PhotometricInterpretation": "MONOCHROME2",
        "PixelBandwidth": 2290.0,
        "PixelRepresentation": 0,
        "PixelSpacing": [
          2.0,
          2.0
        ],
        "ProtocolName": "func_task-wolf4",
        "RepetitionTime": 1490.0,
        "Rows": 832,
        "SAR": 0.03678665619623,
        "SamplesPerPixel": 1,
        "ScanOptions": "FS",
        "ScanningSequence": "EP",
        "SequenceName": "epfid2d1_104",
        "SequenceVariant": [
          "SK",
          "SS"
        ],
        "SeriesDescription": "func_task-wolf4",
        "SeriesNumber": 13,
        "SeriesTime": "100144.834000",
        "SliceLocation": -66.449875518147,
        "SliceThickness": 2.0,
        "SmallestImagePixelValue": 0,
        "SoftwareVersions": "syngo MR E11",
        "SpacingBetweenSlices": 2.0000000357554,
        "SpecificCharacterSet": "ISO_IR 100",
        "StudyID": "1",
        "StudyTime": "092414.077000",
        "TransmitCoilName": "Body",
        "VariableFlipAngleFlag": "N",
        "WindowCenterWidthExplanation": "Algo1",
        "dBdt": 0.0
      },
      "slices": {}
    },
    "modality": "bold",
    "session_id": "006",
    "subject_id": "02",
    "task_id": "wolf04",
    "time": {
      "samples": {
        "AcquisitionNumber": [
          1,
          2,
          3,
          4,
          5,
          6,
          7,
          8,
          9,
          10,
          11,
          12,
          13,
          14,
          15,
          16,
          17,
          18,
          19,
          20,
          21,
          22,
          23,
          24,
          25,
          26,
          27,
          28,
          29,
          30,
          31,
          32,
          33,
          34,
          35,
          36,
          37,
          38,
          39,
          40,
          41,
          42,
          43,
          44,
          45,
          46,
          47,
          48,
          49,
          50,
          51,
          52,
          53,
          54,
          55,
          56,
          57,
          58,
          59,
          60,
          61,
          62,
          63,
          64,
          65,
          66,
          67,
          68,
          69,
          70,
          71,
          72,
          73,
          74,
          75,
          76,
          77,
          78,
          79,
          80,
          81,
          82,
          83,
          84,
          85,
          86,
          87,
          88,
          89,
          90,
          91,
          92,
          93,
          94,
          95,
          96,
          97,
          98,
          99,
          100,
          101,
          102,
          103,
          104,
          105,
          106,
          107,
          108,
          109,
          110,
          111,
          112,
          113,
          114,
          115,
          116,
          117,
          118,
          119,
          120,
          121,
          122,
          123,
          124,
          125,
          126,
          127,
          128,
          129,
          130,
          131,
          132,
          133,
          134,
          135,
          136,
          137,
          138,
          139,
          140,
          141,
          142,
          143,
          144,
          145,
          146,
          147,
          148,
          149,
          150,
          151,
          152,
          153,
          154,
          155,
          156,
          157,
          158,
          159,
          160,
          161,
          162,
          163,
          164,
          165,
          166,
          167,
          168,
          169,
          170,
          171,
          172,
          173,
          174,
          175,
          176,
          177,
          178,
          179,
          180,
          181,
          182,
          183,
          184,
          185,
          186,
          187,
          188,
          189,
          190,
          191,
          192,
          193,
          194,
          195,
          196,
          197,
          198,
          199,
          200,
          201,
          202,
          203,
          204,
          205,
          206,
          207,
          208,
          209,
          210,
          211,
          212,
          213,
          214,
          215,
          216,
          217,
          218,
          219,
          220,
          221,
          222,
          223,
          224,
          225,
          226,
          227,
          228,
          229,
          230,
          231,
          232,
          233,
          234,
          235,
          236,
          237,
          238,
          239,
          240,
          241,
          242,
          243,
          244,
          245,
          246,
          247,
          248,
          249,
          250,
          251,
          252,
          253,
          254,
          255,
          256,
          257,
          258,
          259,
          260,
          261,
          262,
          263,
          264,
          265,
          266,
          267,
          268,
          269,
          270,
          271,
          272,
          273,
          274,
          275,
          276,
          277,
          278,
          279,
          280,
          281,
          282,
          283,
          284,
          285,
          286,
          287,
          288,
          289,
          290,
          291,
          292,
          293,
          294,
          295,
          296,
          297,
          298,
          299,
          300,
          301,
          302,
          303,
          304,
          305,
          306,
          307,
          308,
          309,
          310,
          311,
          312,
          313,
          314,
          315,
          316,
          317,
          318,
          319,
          320,
          321,
          322,
          323,
          324,
          325,
          326,
          327,
          328,
          329,
          330,
          331,
          332,
          333,
          334,
          335,
          336,
          337,
          338,
          339,
          340,
          341,
          342,
          343,
          344,
          345,
          346,
          347,
          348,
          349,
          350,
          351,
          352,
          353,
          354,
          355,
          356,
          357,
          358,
          359,
          360,
          361,
          362,
          363,
          364,
          365,
          366,
          367,
          368,
          369,
          370,
          371,
          372,
          373,
          374,
          375,
          376,
          377,
          378,
          379,
          380,
          381,
          382,
          383,
          384,
          385,
          386,
          387,
          388,
          389,
          390,
          391,
          392,
          393,
          394,
          395,
          396,
          397,
          398,
          399,
          400,
          401,
          402,
          403,
          404,
          405,
          406
        ],
        "AcquisitionTime": [
          "100027.777500",
          "100029.267500",
          "100030.757500",
          "100032.247500",
          "100033.737500",
          "100035.227500",
          "100036.717500",
          "100038.207500",
          "100039.697500",
          "100041.187500",
          "100042.677500",
          "100044.167500",
          "100045.657500",
          "100047.147500",
          "100048.637500",
          "100050.127500",
          "100051.617500",
          "100053.107500",
          "100054.597500",
          "100056.087500",
          "100057.577500",
          "100059.067500",
          "100100.557500",
          "100102.047500",
          "100103.537500",
          "100105.027500",
          "100106.517500",
          "100108.007500",
          "100109.497500",
          "100110.987500",
          "100112.477500",
          "100113.967500",
          "100115.457500",
          "100116.947500",
          "100118.437500",
          "100119.927500",
          "100121.417500",
          "100122.907500",
          "100124.397500",
          "100125.887500",
          "100127.377500",
          "100128.867500",
          "100130.357500",
          "100131.847500",
          "100133.337500",
          "100134.827500",
          "100136.317500",
          "100137.807500",
          "100139.297500",
          "100140.787500",
          "100142.277500",
          "100143.767500",
          "100145.257500",
          "100146.747500",
          "100148.237500",
          "100149.727500",
          "100151.217500",
          "100152.707500",
          "100154.197500",
          "100155.687500",
          "100157.177500",
          "100158.667500",
          "100200.157500",
          "100201.647500",
          "100203.137500",
          "100204.627500",
          "100206.117500",
          "100207.607500",
          "100209.097500",
          "100210.587500",
          "100212.077500",
          "100213.567500",
          "100215.057500",
          "100216.547500",
          "100218.037500",
          "100219.527500",
          "100221.017500",
          "100222.507500",
          "100223.997500",
          "100225.487500",
          "100226.977500",
          "100228.467500",
          "100229.957500",
          "100231.447500",
          "100232.937500",
          "100234.427500",
          "100235.917500",
          "100237.407500",
          "100238.897500",
          "100240.387500",
          "100241.877500",
          "100243.367500",
          "100244.857500",
          "100246.347500",
          "100247.837500",
          "100249.327500",
          "100250.817500",
          "100252.307500",
          "100253.797500",
          "100255.287500",
          "100256.777500",
          "100258.267500",
          "100259.757500",
          "100301.247500",
          "100302.737500",
          "100304.227500",
          "100305.717500",
          "100307.207500",
          "100308.697500",
          "100310.187500",
          "100311.677500",
          "100313.167500",
          "100314.657500",
          "100316.147500",
          "100317.637500",
          "100319.127500",
          "100320.617500",
          "100322.107500",
          "100323.597500",
          "100325.087500",
          "100326.577500",
          "100328.067500",
          "100329.557500",
          "100331.047500",
          "100332.537500",
          "100334.027500",
          "100335.517500",
          "100337.007500",
          "100338.497500",
          "100339.987500",
          "100341.477500",
          "100342.967500",
          "100344.457500",
          "100345.947500",
          "100347.437500",
          "100348.927500",
          "100350.417500",
          "100351.907500",
          "100353.397500",
          "100354.887500",
          "100356.377500",
          "100357.867500",
          "100359.357500",
          "100400.847500",
          "100402.337500",
          "100403.827500",
          "100405.317500",
          "100406.807500",
          "100408.297500",
          "100409.787500",
          "100411.277500",
          "100412.767500",
          "100414.257500",
          "100415.747500",
          "100417.237500",
          "100418.727500",
          "100420.217500",
          "100421.707500",
          "100423.197500",
          "100424.687500",
          "100426.177500",
          "100427.667500",
          "100429.157500",
          "100430.647500",
          "100432.137500",
          "100433.627500",
          "100435.117500",
          "100436.607500",
          "100438.097500",
          "100439.587500",
          "100441.077500",
          "100442.567500",
          "100444.057500",
          "100445.547500",
          "100447.037500",
          "100448.527500",
          "100450.017500",
          "100451.507500",
          "100452.997500",
          "100454.487500",
          "100455.977500",
          "100457.467500",
          "100458.957500",
          "100500.447500",
          "100501.937500",
          "100503.427500",
          "100504.917500",
          "100506.407500",
          "100507.897500",
          "100509.387500",
          "100510.877500",
          "100512.367500",
          "100513.857500",
          "100515.347500",
          "100516.837500",
          "100518.327500",
          "100519.817500",
          "100521.307500",
          "100522.797500",
          "100524.287500",
          "100525.777500",
          "100527.267500",
          "100528.757500",
          "100530.247500",
          "100531.737500",
          "100533.227500",
          "100534.717500",
          "100536.207500",
          "100537.697500",
          "100539.187500",
          "100540.677500",
          "100542.167500",
          "100543.657500",
          "100545.147500",
          "100546.637500",
          "100548.127500",
          "100549.617500",
          "100551.107500",
          "100552.597500",
          "100554.087500",
          "100555.577500",
          "100557.067500",
          "100558.557500",
          "100600.047500",
          "100601.537500",
          "100603.027500",
          "100604.517500",
          "100606.007500",
          "100607.497500",
          "100608.987500",
          "100610.477500",
          "100611.967500",
          "100613.457500",
          "100614.947500",
          "100616.437500",
          "100617.927500",
          "100619.417500",
          "100620.907500",
          "100622.397500",
          "100623.887500",
          "100625.377500",
          "100626.867500",
          "100628.357500",
          "100629.847500",
          "100631.337500",
          "100632.827500",
          "100634.317500",
          "100635.807500",
          "100637.297500",
          "100638.787500",
          "100640.277500",
          "100641.767500",
          "100643.257500",
          "100644.747500",
          "100646.237500",
          "100647.727500",
          "100649.217500",
          "100650.707500",
          "100652.197500",
          "100653.687500",
          "100655.177500",
          "100656.667500",
          "100658.157500",
          "100659.647500",
          "100701.137500",
          "100702.627500",
          "100704.117500",
          "100705.607500",
          "100707.097500",
          "100708.587500",
          "100710.077500",
          "100711.567500",
          "100713.057500",
          "100714.547500",
          "100716.037500",
          "100717.527500",
          "100719.017500",
          "100720.507500",
          "100721.997500",
          "100723.487500",
          "100724.977500",
          "100726.467500",
          "100727.957500",
          "100729.447500",
          "100730.937500",
          "100732.427500",
          "100733.917500",
          "100735.407500",
          "100736.897500",
          "100738.387500",
          "100739.877500",
          "100741.367500",
          "100742.857500",
          "100744.347500",
          "100745.837500",
          "100747.327500",
          "100748.817500",
          "100750.307500",
          "100751.797500",
          "100753.287500",
          "100754.777500",
          "100756.267500",
          "100757.757500",
          "100759.247500",
          "100800.737500",
          "100802.227500",
          "100803.717500",
          "100805.207500",
          "100806.697500",
          "100808.187500",
          "100809.677500",
          "100811.167500",
          "100812.657500",
          "100814.147500",
          "100815.637500",
          "100817.127500",
          "100818.617500",
          "100820.107500",
          "100821.597500",
          "100823.087500",
          "100824.577500",
          "100826.067500",
          "100827.557500",
          "100829.047500",
          "100830.537500",
          "100832.027500",
          "100833.517500",
          "100835.007500",
          "100836.497500",
          "100837.987500",
          "100839.477500",
          "100840.967500",
          "100842.457500",
          "100843.947500",
          "100845.437500",
          "100846.927500",
          "100848.417500",
          "100849.907500",
          "100851.397500",
          "100852.887500",
          "100854.377500",
          "100855.867500",
          "100857.357500",
          "100858.847500",
          "100900.337500",
          "100901.827500",
          "100903.317500",
          "100904.807500",
          "100906.297500",
          "100907.787500",
          "100909.277500",
          "100910.767500",
          "100912.257500",
          "100913.747500",
          "100915.237500",
          "100916.727500",
          "100918.217500",
          "100919.707500",
          "100921.197500",
          "100922.687500",
          "100924.177500",
          "100925.667500",
          "100927.157500",
          "100928.647500",
          "100930.137500",
          "100931.627500",
          "100933.117500",
          "100934.607500",
          "100936.097500",
          "100937.587500",
          "100939.077500",
          "100940.567500",
          "100942.057500",
          "100943.547500",
          "100945.037500",
          "100946.527500",
          "100948.017500",
          "100949.507500",
          "100950.997500",
          "100952.487500",
          "100953.977500",
          "100955.467500",
          "100956.957500",
          "100958.447500",
          "100959.937500",
          "101001.427500",
          "101002.917500",
          "101004.407500",
          "101005.897500",
          "101007.387500",
          "101008.877500",
          "101010.367500",
          "101011.857500",
          "101013.347500",
          "101014.837500",
          "101016.327500",
          "101017.817500",
          "101019.307500",
          "101020.797500",
          "101022.287500",
          "101023.777500",
          "101025.267500",
          "101026.757500",
          "101028.247500",
          "101029.737500",
          "101031.227500"
        ],
        "ContentTime": [
          "100144.837000",
          "100144.840000",
          "100144.843000",
          "100144.846000",
          "100144.849000",
          "100144.852000",
          "100144.855000",
          "100144.865000",
          "100144.872000",
          "100144.875000",
          "100144.878000",
          "100144.881000",
          "100144.884000",
          "100144.886000",
          "100144.889000",
          "100144.902000",
          "100144.904000",
          "100144.907000",
          "100144.910000",
          "100144.913000",
          "100144.916000",
          "100144.919000",
          "100144.921000",
          "100204.791000",
          "100204.794000",
          "100204.797000",
          "100204.800000",
          "100204.802000",
          "100204.805000",
          "100204.808000",
          "100204.811000",
          "100204.814000",
          "100204.817000",
          "100204.820000",
          "100204.823000",
          "100204.825000",
          "100204.828000",
          "100204.831000",
          "100204.834000",
          "100204.837000",
          "100204.840000",
          "100204.842000",
          "100204.845000",
          "100224.791000",
          "100224.800000",
          "100224.803000",
          "100224.806000",
          "100224.808000",
          "100224.817000",
          "100224.825000",
          "100224.828000",
          "100224.831000",
          "100224.834000",
          "100224.837000",
          "100224.840000",
          "100224.842000",
          "100224.845000",
          "100224.848000",
          "100224.851000",
          "100224.854000",
          "100224.857000",
          "100224.859000",
          "100224.862000",
          "100224.865000",
          "100244.791000",
          "100244.794000",
          "100244.796000",
          "100244.799000",
          "100244.802000",
          "100244.805000",
          "100244.808000",
          "100244.811000",
          "100244.814000",
          "100244.817000",
          "100244.819000",
          "100244.822000",
          "100244.825000",
          "100244.828000",
          "100244.831000",
          "100244.834000",
          "100244.837000",
          "100244.839000",
          "100244.842000",
          "100244.845000",
          "100304.791000",
          "100304.794000",
          "100304.797000",
          "100304.799000",
          "100304.802000",
          "100304.805000",
          "100304.808000",
          "100304.811000",
          "100304.814000",
          "100304.817000",
          "100304.820000",
          "100304.822000",
          "100304.825000",
          "100304.828000",
          "100304.831000",
          "100304.834000",
          "100304.837000",
          "100304.840000",
          "100304.843000",
          "100304.845000",
          "100344.792000",
          "100344.795000",
          "100344.798000",
          "100344.801000",
          "100344.803000",
          "100344.809000",
          "100344.812000",
          "100344.814000",
          "100344.817000",
          "100344.820000",
          "100344.823000",
          "100344.826000",
          "100344.829000",
          "100344.832000",
          "100344.835000",
          "100344.837000",
          "100344.840000",
          "100344.843000",
          "100344.846000",
          "100344.849000",
          "100344.852000",
          "100344.854000",
          "100344.857000",
          "100344.860000",
          "100344.863000",
          "100344.866000",
          "100344.869000",
          "100424.791000",
          "100424.794000",
          "100424.797000",
          "100424.800000",
          "100424.803000",
          "100424.806000",
          "100424.808000",
          "100424.811000",
          "100424.814000",
          "100424.817000",
          "100424.820000",
          "100424.823000",
          "100424.826000",
          "100424.829000",
          "100424.831000",
          "100424.834000",
          "100424.837000",
          "100424.840000",
          "100424.843000",
          "100424.846000",
          "100424.849000",
          "100424.851000",
          "100424.854000",
          "100424.857000",
          "100424.860000",
          "100424.863000",
          "100424.866000",
          "100504.791000",
          "100504.794000",
          "100504.810000",
          "100504.812000",
          "100504.815000",
          "100504.818000",
          "100504.825000",
          "100504.828000",
          "100504.831000",
          "100504.834000",
          "100504.836000",
          "100504.839000",
          "100504.842000",
          "100504.845000",
          "100504.848000",
          "100504.851000",
          "100504.854000",
          "100504.857000",
          "100504.859000",
          "100504.862000",
          "100504.865000",
          "100504.868000",
          "100504.871000",
          "100504.874000",
          "100504.877000",
          "100504.879000",
          "100504.882000",
          "100544.791000",
          "100544.794000",
          "100544.797000",
          "100544.800000",
          "100544.803000",
          "100544.805000",
          "100544.808000",
          "100544.811000",
          "100544.814000",
          "100544.817000",
          "100544.819000",
          "100544.823000",
          "100544.825000",
          "100544.828000",
          "100544.831000",
          "100544.834000",
          "100544.837000",
          "100544.840000",
          "100544.843000",
          "100544.846000",
          "100544.848000",
          "100544.851000",
          "100544.854000",
          "100544.857000",
          "100544.860000",
          "100544.863000",
          "100544.865000",
          "100624.791000",
          "100624.794000",
          "100624.797000",
          "100624.800000",
          "100624.803000",
          "100624.806000",
          "100624.809000",
          "100624.812000",
          "100624.815000",
          "100624.818000",
          "100624.821000",
          "100624.823000",
