{
  "aor": 0.00027202469135802464,
  "aqi": 0.0062750616543209865,
  "bids_meta": {
    "AcquisitionMatrixPE": 104,
    "AcquisitionNumber": 1,
    "AcquisitionTime": "09:49:58.880000",
    "BandwidthPerPixelPhaseEncode": 17.17,
    "BaseResolution": 104,
    "BodyPartExamined": "BRAIN",
    "CogAtlasID": "trm_4c898da401420",
    "ConsistencyInfo": "N4_VE11C_LATEST_20160120",
    "ConversionSoftware": "dcm2niix",
    "ConversionSoftwareVersion": "v1.0.20171215 (OpenJPEG build) GCC7.3.0",
    "DerivedVendorReportedEchoSpacing": 0.000560011,
    "DeviceSerialNumber": "167006",
    "DwellTime": 2.1e-06,
    "EchoTime": 0.037,
    "EchoTrainLength": 104,
    "EffectiveEchoSpacing": 0.000560011,
    "FlipAngle": 52,
    "ImageComments": "Unaliased_MB4_PE3_LB",
    "ImageOrientationPatientDICOM": [
      0.998598,
      0.0486443,
      -0.0208867,
      -0.0528586,
      0.894486,
      -0.44396
    ],
    "ImageType": [
      "ORIGINAL",
      "PRIMARY",
      "M",
      "MB",
      "ND",
      "MOSAIC"
    ],
    "InPlanePhaseEncodingDirectionDICOM": "COL",
    "InstitutionAddress": "Chemin_Queen-Mary_4565_Montreal_District_CA_H3W_1W5",
    "InstitutionName": "IUGM",
    "InstitutionalDepartmentName": "Department",
    "MRAcquisitionType": "2D",
    "MagneticFieldStrength": 3,
    "Manufacturer": "Siemens",
    "ManufacturersModelName": "Prisma_fit",
    "Modality": "MR",
    "MultibandAccelerationFactor": 4,
    "PartialFourier": 1,
    "PatientPosition": "HFS",
    "PercentPhaseFOV": 100,
    "PhaseEncodingDirection": "j-",
    "PhaseEncodingSteps": 104,
    "PhaseResolution": 1,
    "PixelBandwidth": 2290,
    "ProcedureStepDescription": "video5_generic",
    "ProtocolName": "func_task-wolf3",
    "PulseSequenceDetails": "%CustomerSeq%_cmrr_mbep2d_bold",
    "ReceiveCoilActiveElements": "HC1-7;NC1,2",
    "ReceiveCoilName": "HeadNeck_64",
    "ReconMatrixPE": 104,
    "RepetitionTime": 1.49,
    "SAR": 0.0367867,
    "ScanOptions": "FS",
    "ScanningSequence": "EP",
    "SequenceName": "epfid2d1_104",
    "SequenceVariant": "SK_SS",
    "SeriesDescription": "func_task-wolf3",
    "SeriesNumber": 11,
    "ShimSetting": [
      623,
      -7189,
      -8898,
      395,
      1,
      -132,
      10,
      -30
    ],
    "SliceThickness": 2,
    "SliceTiming": [
      0,
      0.7825,
      0.0975,
      0.88,
      0.195,
      0.98,
      0.2925,
      1.0775,
      0.39,
      1.175,
      0.49,
      1.2725,
      0.5875,
      1.37,
      0.685,
      0,
      0.7825,
      0.0975,
      0.88,
      0.195,
      0.98,
      0.2925,
      1.0775,
      0.39,
      1.175,
      0.49,
      1.2725,
      0.5875,
      1.37,
      0.685,
      0,
      0.7825,
      0.0975,
      0.88,
      0.195,
      0.98,
      0.2925,
      1.0775,
      0.39,
      1.175,
      0.49,
      1.2725,
      0.5875,
      1.37,
      0.685,
      0,
      0.7825,
      0.0975,
      0.88,
      0.195,
      0.98,
      0.2925,
      1.0775,
      0.39,
      1.175,
      0.49,
      1.2725,
      0.5875,
      1.37,
      0.685
    ],
    "SoftwareVersions": "syngo_MR_E11",
    "SpacingBetweenSlices": 2,
    "StationName": "MRC35049",
    "TaskName": "wolf03",
    "TotalReadoutTime": 0.0576811,
    "TxRefAmp": 250.821,
    "dataset": "<unset>",
    "dcmmeta_affine": [
      [
        -1.9971954822540283,
        -0.10571722686290741,
        0.005826470907777548,
        110.60844421386719
      ],
      [
        -0.09728856384754181,
        1.7889727354049683,
        -0.8888822793960571,
        -49.29227066040039
      ],
      [
        -0.04177338629961014,
        0.8879192471504211,
        1.7916066646575928,
        -98.99451446533203
      ],
      [
        0.0,
        0.0,
        0.0,
        1.0
      ]
    ],
    "dcmmeta_reorient_transform": [
      [
        0.0,
        -1.0,
        0.0,
        103.0
      ],
      [
        1.0,
        0.0,
        0.0,
        0.0
      ],
      [
        0.0,
        0.0,
        1.0,
        0.0
      ],
      [
        0.0,
        0.0,
        0.0,
        1.0
      ]
    ],
    "dcmmeta_shape": [
      104,
      104,
      60,
      406
    ],
    "dcmmeta_slice_dim": 2,
    "dcmmeta_version": 0.6,
    "global": {
      "const": {
        "AcquisitionMatrix": [
          104,
          0,
          0,
          104
        ],
        "AngioFlag": "N",
        "BitsAllocated": 16,
        "BitsStored": 16,
        "BodyPartExamined": "BRAIN",
        "Columns": 832,
        "EchoNumbers": 1,
        "EchoTime": 37.0,
        "EchoTrainLength": 104,
        "FlipAngle": 52.0,
        "HighBit": 15,
        "ImageOrientationPatient": [
          0.99859775685552,
          0.04864428093922,
          -0.0208866927738,
          -0.0528586138958,
          0.89448634279993,
          -0.4439596259587
        ],
        "ImagePositionPatient": [
          -788.21766263646,
          -821.57100860185,
          330.86928653852
        ],
        "ImageType": [
          "ORIGINAL",
          "PRIMARY",
          "M",
          "MB",
          "ND",
          "MOSAIC"
        ],
        "ImagedNucleus": "1H",
        "ImagingFrequency": 123.259603,
        "InPlanePhaseEncodingDirection": "COL",
        "MRAcquisitionType": "2D",
        "MagneticFieldStrength": 3.0,
        "Manufacturer": "SIEMENS",
        "ManufacturerModelName": "Prisma_fit",
        "Modality": "MR",
        "NumberOfAverages": 1.0,
        "NumberOfPhaseEncodingSteps": 104,
        "PercentPhaseFieldOfView": 100.0,
        "PercentSampling": 100.0,
        "PerformedProcedureStepStartTime": "092414.231000",
        "PhotometricInterpretation": "MONOCHROME2",
        "PixelBandwidth": 2290.0,
        "PixelRepresentation": 0,
        "PixelSpacing": [
          2.0,
          2.0
        ],
        "ProtocolName": "func_task-wolf3",
        "RepetitionTime": 1490.0,
        "Rows": 832,
        "SAR": 0.03678665619623,
        "SamplesPerPixel": 1,
        "ScanOptions": "FS",
        "ScanningSequence": "EP",
        "SequenceName": "epfid2d1_104",
        "SequenceVariant": [
          "SK",
          "SS"
        ],
        "SeriesDescription": "func_task-wolf3",
        "SeriesNumber": 11,
        "SeriesTime": "095123.071000",
        "SliceLocation": -66.449875518147,
        "SliceThickness": 2.0,
        "SmallestImagePixelValue": 0,
        "SoftwareVersions": "syngo MR E11",
        "SpacingBetweenSlices": 2.0000000357554,
        "SpecificCharacterSet": "ISO_IR 100",
        "StudyID": "1",
        "StudyTime": "092414.077000",
        "TransmitCoilName": "Body",
        "VariableFlipAngleFlag": "N",
        "WindowCenterWidthExplanation": "Algo1",
        "dBdt": 0.0
      },
      "slices": {}
    },
    "modality": "bold",
    "session_id": "006",
    "subject_id": "02",
    "task_id": "wolf03",
    "time": {
      "samples": {
        "AcquisitionNumber": [
          1,
          2,
          3,
          4,
          5,
          6,
          7,
          8,
          9,
          10,
          11,
          12,
          13,
          14,
          15,
          16,
          17,
          18,
          19,
          20,
          21,
          22,
          23,
          24,
          25,
          26,
          27,
          28,
          29,
          30,
          31,
          32,
          33,
          34,
          35,
          36,
          37,
          38,
          39,
          40,
          41,
          42,
          43,
          44,
          45,
          46,
          47,
          48,
          49,
          50,
          51,
          52,
          53,
          54,
          55,
          56,
          57,
          58,
          59,
          60,
          61,
          62,
          63,
          64,
          65,
          66,
          67,
          68,
          69,
          70,
          71,
          72,
          73,
          74,
          75,
          76,
          77,
          78,
          79,
          80,
          81,
          82,
          83,
          84,
          85,
          86,
          87,
          88,
          89,
          90,
          91,
          92,
          93,
          94,
          95,
          96,
          97,
          98,
          99,
          100,
          101,
          102,
          103,
          104,
          105,
          106,
          107,
          108,
          109,
          110,
          111,
          112,
          113,
          114,
          115,
          116,
          117,
          118,
          119,
          120,
          121,
          122,
          123,
          124,
          125,
          126,
          127,
          128,
          129,
          130,
          131,
          132,
          133,
          134,
          135,
          136,
          137,
          138,
          139,
          140,
          141,
          142,
          143,
          144,
          145,
          146,
          147,
          148,
          149,
          150,
          151,
          152,
          153,
          154,
          155,
          156,
          157,
          158,
          159,
          160,
          161,
          162,
          163,
          164,
          165,
          166,
          167,
          168,
          169,
          170,
          171,
          172,
          173,
          174,
          175,
          176,
          177,
          178,
          179,
          180,
          181,
          182,
          183,
          184,
          185,
          186,
          187,
          188,
          189,
          190,
          191,
          192,
          193,
          194,
          195,
          196,
          197,
          198,
          199,
          200,
          201,
          202,
          203,
          204,
          205,
          206,
          207,
          208,
          209,
          210,
          211,
          212,
          213,
          214,
          215,
          216,
          217,
          218,
          219,
          220,
          221,
          222,
          223,
          224,
          225,
          226,
          227,
          228,
          229,
          230,
          231,
          232,
          233,
          234,
          235,
          236,
          237,
          238,
          239,
          240,
          241,
          242,
          243,
          244,
          245,
          246,
          247,
          248,
          249,
          250,
          251,
          252,
          253,
          254,
          255,
          256,
          257,
          258,
          259,
          260,
          261,
          262,
          263,
          264,
          265,
          266,
          267,
          268,
          269,
          270,
          271,
          272,
          273,
          274,
          275,
          276,
          277,
          278,
          279,
          280,
          281,
          282,
          283,
          284,
          285,
          286,
          287,
          288,
          289,
          290,
          291,
          292,
          293,
          294,
          295,
          296,
          297,
          298,
          299,
          300,
          301,
          302,
          303,
          304,
          305,
          306,
          307,
          308,
          309,
          310,
          311,
          312,
          313,
          314,
          315,
          316,
          317,
          318,
          319,
          320,
          321,
          322,
          323,
          324,
          325,
          326,
          327,
          328,
          329,
          330,
          331,
          332,
          333,
          334,
          335,
          336,
          337,
          338,
          339,
          340,
          341,
          342,
          343,
          344,
          345,
          346,
          347,
          348,
          349,
          350,
          351,
          352,
          353,
          354,
          355,
          356,
          357,
          358,
          359,
          360,
          361,
          362,
          363,
          364,
          365,
          366,
          367,
          368,
          369,
          370,
          371,
          372,
          373,
          374,
          375,
          376,
          377,
          378,
          379,
          380,
          381,
          382,
          383,
          384,
          385,
          386,
          387,
          388,
          389,
          390,
          391,
          392,
          393,
          394,
          395,
          396,
          397,
          398,
          399,
          400,
          401,
          402,
          403,
          404,
          405,
          406
        ],
        "AcquisitionTime": [
          "094958.880000",
          "095000.370000",
          "095001.860000",
          "095003.350000",
          "095004.840000",
          "095006.330000",
          "095007.820000",
          "095009.310000",
          "095010.800000",
          "095012.290000",
          "095013.780000",
          "095015.270000",
          "095016.760000",
          "095018.250000",
          "095019.740000",
          "095021.230000",
          "095022.720000",
          "095024.210000",
          "095025.700000",
          "095027.190000",
          "095028.680000",
          "095030.170000",
          "095031.660000",
          "095033.150000",
          "095034.640000",
          "095036.130000",
          "095037.620000",
          "095039.110000",
          "095040.600000",
          "095042.090000",
          "095043.580000",
          "095045.070000",
          "095046.560000",
          "095048.050000",
          "095049.540000",
          "095051.030000",
          "095052.520000",
          "095054.010000",
          "095055.500000",
          "095056.990000",
          "095058.480000",
          "095059.970000",
          "095101.460000",
          "095102.950000",
          "095104.440000",
          "095105.930000",
          "095107.420000",
          "095108.910000",
          "095110.400000",
          "095111.890000",
          "095113.380000",
          "095114.870000",
          "095116.360000",
          "095117.850000",
          "095119.340000",
          "095120.830000",
          "095122.320000",
          "095123.810000",
          "095125.300000",
          "095126.790000",
          "095128.280000",
          "095129.770000",
          "095131.260000",
          "095132.750000",
          "095134.240000",
          "095135.730000",
          "095137.220000",
          "095138.710000",
          "095140.200000",
          "095141.690000",
          "095143.180000",
          "095144.670000",
          "095146.160000",
          "095147.650000",
          "095149.140000",
          "095150.630000",
          "095152.120000",
          "095153.610000",
          "095155.100000",
          "095156.590000",
          "095158.080000",
          "095159.570000",
          "095201.060000",
          "095202.550000",
          "095204.040000",
          "095205.530000",
          "095207.020000",
          "095208.510000",
          "095210.000000",
          "095211.490000",
          "095212.980000",
          "095214.470000",
          "095215.960000",
          "095217.450000",
          "095218.940000",
          "095220.430000",
          "095221.920000",
          "095223.410000",
          "095224.900000",
          "095226.390000",
          "095227.880000",
          "095229.370000",
          "095230.860000",
          "095232.350000",
          "095233.840000",
          "095235.330000",
          "095236.820000",
          "095238.310000",
          "095239.800000",
          "095241.290000",
          "095242.780000",
          "095244.270000",
          "095245.760000",
          "095247.250000",
          "095248.740000",
          "095250.230000",
          "095251.720000",
          "095253.210000",
          "095254.700000",
          "095256.190000",
          "095257.680000",
          "095259.170000",
          "095300.660000",
          "095302.150000",
          "095303.640000",
          "095305.130000",
          "095306.620000",
          "095308.110000",
          "095309.600000",
          "095311.090000",
          "095312.580000",
          "095314.070000",
          "095315.560000",
          "095317.050000",
          "095318.540000",
          "095320.030000",
          "095321.520000",
          "095323.010000",
          "095324.500000",
          "095325.990000",
          "095327.480000",
          "095328.970000",
          "095330.460000",
          "095331.950000",
          "095333.440000",
          "095334.930000",
          "095336.420000",
          "095337.910000",
          "095339.400000",
          "095340.890000",
          "095342.380000",
          "095343.870000",
          "095345.360000",
          "095346.850000",
          "095348.340000",
          "095349.830000",
          "095351.320000",
          "095352.810000",
          "095354.300000",
          "095355.790000",
          "095357.280000",
          "095358.770000",
          "095400.260000",
          "095401.750000",
          "095403.240000",
          "095404.730000",
          "095406.220000",
          "095407.710000",
          "095409.200000",
          "095410.690000",
          "095412.180000",
          "095413.670000",
          "095415.160000",
          "095416.650000",
          "095418.140000",
          "095419.630000",
          "095421.120000",
          "095422.610000",
          "095424.100000",
          "095425.590000",
          "095427.080000",
          "095428.570000",
          "095430.060000",
          "095431.550000",
          "095433.040000",
          "095434.530000",
          "095436.020000",
          "095437.510000",
          "095439.000000",
          "095440.490000",
          "095441.980000",
          "095443.470000",
          "095444.960000",
          "095446.450000",
          "095447.940000",
          "095449.430000",
          "095450.920000",
          "095452.410000",
          "095453.900000",
          "095455.390000",
          "095456.880000",
          "095458.370000",
          "095459.860000",
          "095501.350000",
          "095502.840000",
          "095504.330000",
          "095505.820000",
          "095507.310000",
          "095508.800000",
          "095510.290000",
          "095511.780000",
          "095513.270000",
          "095514.760000",
          "095516.250000",
          "095517.740000",
          "095519.230000",
          "095520.720000",
          "095522.210000",
          "095523.700000",
          "095525.190000",
          "095526.680000",
          "095528.170000",
          "095529.660000",
          "095531.150000",
          "095532.640000",
          "095534.130000",
          "095535.620000",
          "095537.110000",
          "095538.600000",
          "095540.090000",
          "095541.580000",
          "095543.070000",
          "095544.560000",
          "095546.050000",
          "095547.540000",
          "095549.030000",
          "095550.520000",
          "095552.010000",
          "095553.500000",
          "095554.990000",
          "095556.480000",
          "095557.970000",
          "095559.460000",
          "095600.950000",
          "095602.440000",
          "095603.930000",
          "095605.420000",
          "095606.910000",
          "095608.400000",
          "095609.890000",
          "095611.380000",
          "095612.870000",
          "095614.360000",
          "095615.850000",
          "095617.340000",
          "095618.830000",
          "095620.320000",
          "095621.810000",
          "095623.300000",
          "095624.790000",
          "095626.280000",
          "095627.770000",
          "095629.260000",
          "095630.750000",
          "095632.240000",
          "095633.730000",
          "095635.220000",
          "095636.710000",
          "095638.200000",
          "095639.690000",
          "095641.180000",
          "095642.670000",
          "095644.160000",
          "095645.650000",
          "095647.140000",
          "095648.630000",
          "095650.120000",
          "095651.610000",
          "095653.100000",
          "095654.590000",
          "095656.080000",
          "095657.570000",
          "095659.060000",
          "095700.550000",
          "095702.040000",
          "095703.530000",
          "095705.020000",
          "095706.510000",
          "095708.000000",
          "095709.490000",
          "095710.980000",
          "095712.470000",
          "095713.960000",
          "095715.450000",
          "095716.940000",
          "095718.430000",
          "095719.920000",
          "095721.410000",
          "095722.900000",
          "095724.390000",
          "095725.880000",
          "095727.370000",
          "095728.860000",
          "095730.350000",
          "095731.840000",
          "095733.330000",
          "095734.820000",
          "095736.310000",
          "095737.800000",
          "095739.290000",
          "095740.780000",
          "095742.270000",
          "095743.760000",
          "095745.250000",
          "095746.740000",
          "095748.230000",
          "095749.720000",
          "095751.210000",
          "095752.700000",
          "095754.190000",
          "095755.680000",
          "095757.170000",
          "095758.660000",
          "095800.150000",
          "095801.640000",
          "095803.130000",
          "095804.620000",
          "095806.110000",
          "095807.600000",
          "095809.090000",
          "095810.580000",
          "095812.070000",
          "095813.560000",
          "095815.050000",
          "095816.540000",
          "095818.030000",
          "095819.520000",
          "095821.010000",
          "095822.500000",
          "095823.990000",
          "095825.480000",
          "095826.970000",
          "095828.460000",
          "095829.950000",
          "095831.440000",
          "095832.930000",
          "095834.420000",
          "095835.910000",
          "095837.400000",
          "095838.890000",
          "095840.380000",
          "095841.870000",
          "095843.360000",
          "095844.850000",
          "095846.340000",
          "095847.830000",
          "095849.320000",
          "095850.810000",
          "095852.300000",
          "095853.790000",
          "095855.280000",
          "095856.770000",
          "095858.260000",
          "095859.750000",
          "095901.240000",
          "095902.730000",
          "095904.220000",
          "095905.710000",
          "095907.200000",
          "095908.690000",
          "095910.180000",
          "095911.670000",
          "095913.160000",
          "095914.650000",
          "095916.140000",
          "095917.630000",
          "095919.120000",
          "095920.610000",
          "095922.100000",
          "095923.590000",
          "095925.080000",
          "095926.570000",
          "095928.060000",
          "095929.550000",
          "095931.040000",
          "095932.530000",
          "095934.020000",
          "095935.510000",
          "095937.000000",
          "095938.490000",
          "095939.980000",
          "095941.470000",
          "095942.960000",
          "095944.450000",
          "095945.940000",
          "095947.430000",
          "095948.920000",
          "095950.410000",
          "095951.900000",
          "095953.390000",
          "095954.880000",
          "095956.370000",
          "095957.860000",
          "095959.350000",
          "100000.840000",
          "100002.330000"
        ],
        "ContentTime": [
          "095123.074000",
          "095123.077000",
          "095123.080000",
          "095123.083000",
          "095123.086000",
          "095123.088000",
          "095123.091000",
          "095123.103000",
          "095123.106000",
          "095123.109000",
          "095123.112000",
          "095123.115000",
          "095123.125000",
          "095123.128000",
          "095123.131000",
          "095123.134000",
          "095123.137000",
          "095123.140000",
          "095123.142000",
          "095123.153000",
          "095123.155000",
          "095123.158000",
          "095123.161000",
          "095123.164000",
          "095123.167000",
          "095123.170000",
          "095123.173000",
          "095123.176000",
          "095123.178000",
          "095123.181000",
          "095143.044000",
          "095143.047000",
          "095143.050000",
          "095143.052000",
          "095143.055000",
          "095143.062000",
          "095143.065000",
          "095143.068000",
          "095143.071000",
          "095143.074000",
          "095143.076000",
          "095143.079000",
          "095143.082000",
          "095143.085000",
          "095143.088000",
          "095143.091000",
          "095143.094000",
          "095143.096000",
          "095143.099000",
          "095143.102000",
          "095203.044000",
          "095203.047000",
          "095203.050000",
          "095203.053000",
          "095203.056000",
          "095203.058000",
          "095203.061000",
          "095203.064000",
          "095203.067000",
          "095203.070000",
          "095203.073000",
          "095203.076000",
          "095203.079000",
          "095203.081000",
          "095203.084000",
          "095203.087000",
          "095203.090000",
          "095203.093000",
          "095203.096000",
          "095203.099000",
          "095203.102000",
          "095223.045000",
          "095223.048000",
          "095223.051000",
          "095223.053000",
          "095223.056000",
          "095223.059000",
          "095223.064000",
          "095223.067000",
          "095223.070000",
          "095223.073000",
          "095223.076000",
          "095223.079000",
          "095223.081000",
          "095223.084000",
          "095223.087000",
          "095223.090000",
          "095223.093000",
          "095223.096000",
          "095223.099000",
          "095223.101000",
          "095303.045000",
          "095303.048000",
          "095303.051000",
          "095303.054000",
          "095303.057000",
          "095303.059000",
          "095303.062000",
          "095303.065000",
          "095303.068000",
          "095303.071000",
          "095303.074000",
          "095303.077000",
          "095303.079000",
          "095303.082000",
          "095303.085000",
          "095303.088000",
          "095303.091000",
          "095303.094000",
          "095303.097000",
          "095303.099000",
          "095303.102000",
          "095303.105000",
          "095303.108000",
          "095303.111000",
          "095303.113000",
          "095303.116000",
          "095303.119000",
          "095303.122000",
          "095303.125000",
          "095303.128000",
          "095303.131000",
          "095303.134000",
          "095343.044000",
          "095343.047000",
          "095343.050000",
          "095343.053000",
          "095343.056000",
          "095343.059000",
          "095343.061000",
          "095343.064000",
          "095343.067000",
          "095343.070000",
          "095343.073000",
          "095343.076000",
          "095343.079000",
          "095343.081000",
          "095343.084000",
          "095343.087000",
          "095343.090000",
          "095343.093000",
          "095343.096000",
          "095343.099000",
          "095343.101000",
          "095343.104000",
          "095343.107000",
          "095343.110000",
          "095343.113000",
          "095343.116000",
          "095343.119000",
          "095423.044000",
          "095423.047000",
          "095423.053000",
          "095423.062000",
          "095423.065000",
          "095423.068000",
          "095423.071000",
          "095423.074000",
          "095423.077000",
          "095423.080000",
          "095423.083000",
          "095423.086000",
          "095423.088000",
          "095423.091000",
          "095423.099000",
          "095423.102000",
          "095423.105000",
          "095423.108000",
          "095423.111000",
          "095423.113000",
          "095423.116000",
          "095423.119000",
          "095423.122000",
          "095423.125000",
          "095423.128000",
          "095423.131000",
          "095423.134000",
          "095503.045000",
          "095503.048000",
          "095503.051000",
          "095503.054000",
          "095503.057000",
          "095503.059000",
          "095503.062000",
          "095503.065000",
          "095503.068000",
          "095503.071000",
          "095503.074000",
          "095503.077000",
          "095503.080000",
          "095503.082000",
          "095503.085000",
          "095503.089000",
          "095503.091000",
          "095503.094000",
          "095503.097000",
          "095503.100000",
          "095503.103000",
          "095503.106000",
          "095503.109000",
          "095503.112000",
          "095503.114000",
          "095503.117000",
          "095543.044000",
          "095543.047000",
          "095543.050000",
          "095543.053000",
          "095543.056000",
          "095543.059000",
          "095543.061000",
          "095543.064000",
          "095543.067000",
          "095543.070000",
          "095543.073000",
          "095543.076000",
          "095543.089000",
          "095543.092000",
          "095543.095000",
          "095543.098000",
          "095543.101000",
          "095543.104000",
          "095543.106000",
          "095543.110000",
          "095543.113000",
