{
  "aor": 0.0014074876847290638,
  "aqi": 0.009681633645320197,
  "bids_meta": {
    "AcquisitionMatrixPE": 104,
    "AcquisitionNumber": 1,
    "AcquisitionTime": "10:10:58.685000",
    "BandwidthPerPixelPhaseEncode": 17.17,
    "BaseResolution": 104,
    "BodyPartExamined": "BRAIN",
    "CogAtlasID": "trm_4c898da401420",
    "ConsistencyInfo": "N4_VE11C_LATEST_20160120",
    "ConversionSoftware": "dcm2niix",
    "ConversionSoftwareVersion": "v1.0.20171215 (OpenJPEG build) GCC7.3.0",
    "DerivedVendorReportedEchoSpacing": 0.000560011,
    "DeviceSerialNumber": "167006",
    "DwellTime": 2.1e-06,
    "EchoTime": 0.037,
    "EchoTrainLength": 104,
    "EffectiveEchoSpacing": 0.000560011,
    "FlipAngle": 52,
    "ImageComments": "Unaliased_MB4_PE3_LB",
    "ImageOrientationPatientDICOM": [
      0.998598,
      0.0486443,
      -0.0208867,
      -0.0528586,
      0.894486,
      -0.44396
    ],
    "ImageType": [
      "ORIGINAL",
      "PRIMARY",
      "M",
      "MB",
      "ND",
      "MOSAIC"
    ],
    "InPlanePhaseEncodingDirectionDICOM": "COL",
    "InstitutionAddress": "Chemin_Queen-Mary_4565_Montreal_District_CA_H3W_1W5",
    "InstitutionName": "IUGM",
    "InstitutionalDepartmentName": "Department",
    "MRAcquisitionType": "2D",
    "MagneticFieldStrength": 3,
    "Manufacturer": "Siemens",
    "ManufacturersModelName": "Prisma_fit",
    "Modality": "MR",
    "MultibandAccelerationFactor": 4,
    "PartialFourier": 1,
    "PatientPosition": "HFS",
    "PercentPhaseFOV": 100,
    "PhaseEncodingDirection": "j-",
    "PhaseEncodingSteps": 104,
    "PhaseResolution": 1,
    "PixelBandwidth": 2290,
    "ProcedureStepDescription": "video5_generic",
    "ProtocolName": "func_task-wolf5",
    "PulseSequenceDetails": "%CustomerSeq%_cmrr_mbep2d_bold",
    "ReceiveCoilActiveElements": "HC1-7;NC1,2",
    "ReceiveCoilName": "HeadNeck_64",
    "ReconMatrixPE": 104,
    "RepetitionTime": 1.49,
    "SAR": 0.0367867,
    "ScanOptions": "FS",
    "ScanningSequence": "EP",
    "SequenceName": "epfid2d1_104",
    "SequenceVariant": "SK_SS",
    "SeriesDescription": "func_task-wolf5",
    "SeriesNumber": 15,
    "ShimSetting": [
      623,
      -7189,
      -8898,
      395,
      1,
      -132,
      10,
      -30
    ],
    "SliceThickness": 2,
    "SliceTiming": [
      0,
      0.785,
      0.1,
      0.8825,
      0.1975,
      0.98,
      0.295,
      1.08,
      0.3925,
      1.1775,
      0.49,
      1.275,
      0.59,
      1.3725,
      0.6875,
      0,
      0.785,
      0.1,
      0.8825,
      0.1975,
      0.98,
      0.295,
      1.08,
      0.3925,
      1.1775,
      0.49,
      1.275,
      0.59,
      1.3725,
      0.6875,
      0,
      0.785,
      0.1,
      0.8825,
      0.1975,
      0.98,
      0.295,
      1.08,
      0.3925,
      1.1775,
      0.49,
      1.275,
      0.59,
      1.3725,
      0.6875,
      0,
      0.785,
      0.1,
      0.8825,
      0.1975,
      0.98,
      0.295,
      1.08,
      0.3925,
      1.1775,
      0.49,
      1.275,
      0.59,
      1.3725,
      0.6875
    ],
    "SoftwareVersions": "syngo_MR_E11",
    "SpacingBetweenSlices": 2,
    "StationName": "MRC35049",
    "TaskName": "wolf05",
    "TotalReadoutTime": 0.0576811,
    "TxRefAmp": 250.821,
    "dataset": "<unset>",
    "dcmmeta_affine": [
      [
        -1.9971954822540283,
        -0.10571722686290741,
        0.005826470907777548,
        110.60844421386719
      ],
      [
        -0.09728856384754181,
        1.7889727354049683,
        -0.8888822793960571,
        -49.29227066040039
      ],
      [
        -0.04177338629961014,
        0.8879192471504211,
        1.7916066646575928,
        -98.99451446533203
      ],
      [
        0.0,
        0.0,
        0.0,
        1.0
      ]
    ],
    "dcmmeta_reorient_transform": [
      [
        0.0,
        -1.0,
        0.0,
        103.0
      ],
      [
        1.0,
        0.0,
        0.0,
        0.0
      ],
      [
        0.0,
        0.0,
        1.0,
        0.0
      ],
      [
        0.0,
        0.0,
        0.0,
        1.0
      ]
    ],
    "dcmmeta_shape": [
      104,
      104,
      60,
      406
    ],
    "dcmmeta_slice_dim": 2,
    "dcmmeta_version": 0.6,
    "global": {
      "const": {
        "AcquisitionMatrix": [
          104,
          0,
          0,
          104
        ],
        "AngioFlag": "N",
        "BitsAllocated": 16,
        "BitsStored": 16,
        "BodyPartExamined": "BRAIN",
        "Columns": 832,
        "EchoNumbers": 1,
        "EchoTime": 37.0,
        "EchoTrainLength": 104,
        "FlipAngle": 52.0,
        "HighBit": 15,
        "ImageOrientationPatient": [
          0.99859775685552,
          0.04864428093922,
          -0.0208866927738,
          -0.0528586138958,
          0.89448634279993,
          -0.4439596259587
        ],
        "ImagePositionPatient": [
          -788.21766263646,
          -821.57100860185,
          330.86928653852
        ],
        "ImageType": [
          "ORIGINAL",
          "PRIMARY",
          "M",
          "MB",
          "ND",
          "MOSAIC"
        ],
        "ImagedNucleus": "1H",
        "ImagingFrequency": 123.259616,
        "InPlanePhaseEncodingDirection": "COL",
        "MRAcquisitionType": "2D",
        "MagneticFieldStrength": 3.0,
        "Manufacturer": "SIEMENS",
        "ManufacturerModelName": "Prisma_fit",
        "Modality": "MR",
        "NumberOfAverages": 1.0,
        "NumberOfPhaseEncodingSteps": 104,
        "PercentPhaseFieldOfView": 100.0,
        "PercentSampling": 100.0,
        "PerformedProcedureStepStartTime": "092414.231000",
        "PhotometricInterpretation": "MONOCHROME2",
        "PixelBandwidth": 2290.0,
        "PixelRepresentation": 0,
        "PixelSpacing": [
          2.0,
          2.0
        ],
        "ProtocolName": "func_task-wolf5",
        "RepetitionTime": 1490.0,
        "Rows": 832,
        "SAR": 0.03678665619623,
        "SamplesPerPixel": 1,
        "ScanOptions": "FS",
        "ScanningSequence": "EP",
        "SequenceName": "epfid2d1_104",
        "SequenceVariant": [
          "SK",
          "SS"
        ],
        "SeriesDescription": "func_task-wolf5",
        "SeriesNumber": 15,
        "SeriesTime": "101222.958000",
        "SliceLocation": -66.449875518147,
        "SliceThickness": 2.0,
        "SmallestImagePixelValue": 0,
        "SoftwareVersions": "syngo MR E11",
        "SpacingBetweenSlices": 2.0000000357554,
        "SpecificCharacterSet": "ISO_IR 100",
        "StudyID": "1",
        "StudyTime": "092414.077000",
        "TransmitCoilName": "Body",
        "VariableFlipAngleFlag": "N",
        "WindowCenterWidthExplanation": "Algo1",
        "dBdt": 0.0
      },
      "slices": {}
    },
    "modality": "bold",
    "session_id": "006",
    "subject_id": "02",
    "task_id": "wolf05",
    "time": {
      "samples": {
        "AcquisitionNumber": [
          1,
          2,
          3,
          4,
          5,
          6,
          7,
          8,
          9,
          10,
          11,
          12,
          13,
          14,
          15,
          16,
          17,
          18,
          19,
          20,
          21,
          22,
          23,
          24,
          25,
          26,
          27,
          28,
          29,
          30,
          31,
          32,
          33,
          34,
          35,
          36,
          37,
          38,
          39,
          40,
          41,
          42,
          43,
          44,
          45,
          46,
          47,
          48,
          49,
          50,
          51,
          52,
          53,
          54,
          55,
          56,
          57,
          58,
          59,
          60,
          61,
          62,
          63,
          64,
          65,
          66,
          67,
          68,
          69,
          70,
          71,
          72,
          73,
          74,
          75,
          76,
          77,
          78,
          79,
          80,
          81,
          82,
          83,
          84,
          85,
          86,
          87,
          88,
          89,
          90,
          91,
          92,
          93,
          94,
          95,
          96,
          97,
          98,
          99,
          100,
          101,
          102,
          103,
          104,
          105,
          106,
          107,
          108,
          109,
          110,
          111,
          112,
          113,
          114,
          115,
          116,
          117,
          118,
          119,
          120,
          121,
          122,
          123,
          124,
          125,
          126,
          127,
          128,
          129,
          130,
          131,
          132,
          133,
          134,
          135,
          136,
          137,
          138,
          139,
          140,
          141,
          142,
          143,
          144,
          145,
          146,
          147,
          148,
          149,
          150,
          151,
          152,
          153,
          154,
          155,
          156,
          157,
          158,
          159,
          160,
          161,
          162,
          163,
          164,
          165,
          166,
          167,
          168,
          169,
          170,
          171,
          172,
          173,
          174,
          175,
          176,
          177,
          178,
          179,
          180,
          181,
          182,
          183,
          184,
          185,
          186,
          187,
          188,
          189,
          190,
          191,
          192,
          193,
          194,
          195,
          196,
          197,
          198,
          199,
          200,
          201,
          202,
          203,
          204,
          205,
          206,
          207,
          208,
          209,
          210,
          211,
          212,
          213,
          214,
          215,
          216,
          217,
          218,
          219,
          220,
          221,
          222,
          223,
          224,
          225,
          226,
          227,
          228,
          229,
          230,
          231,
          232,
          233,
          234,
          235,
          236,
          237,
          238,
          239,
          240,
          241,
          242,
          243,
          244,
          245,
          246,
          247,
          248,
          249,
          250,
          251,
          252,
          253,
          254,
          255,
          256,
          257,
          258,
          259,
          260,
          261,
          262,
          263,
          264,
          265,
          266,
          267,
          268,
          269,
          270,
          271,
          272,
          273,
          274,
          275,
          276,
          277,
          278,
          279,
          280,
          281,
          282,
          283,
          284,
          285,
          286,
          287,
          288,
          289,
          290,
          291,
          292,
          293,
          294,
          295,
          296,
          297,
          298,
          299,
          300,
          301,
          302,
          303,
          304,
          305,
          306,
          307,
          308,
          309,
          310,
          311,
          312,
          313,
          314,
          315,
          316,
          317,
          318,
          319,
          320,
          321,
          322,
          323,
          324,
          325,
          326,
          327,
          328,
          329,
          330,
          331,
          332,
          333,
          334,
          335,
          336,
          337,
          338,
          339,
          340,
          341,
          342,
          343,
          344,
          345,
          346,
          347,
          348,
          349,
          350,
          351,
          352,
          353,
          354,
          355,
          356,
          357,
          358,
          359,
          360,
          361,
          362,
          363,
          364,
          365,
          366,
          367,
          368,
          369,
          370,
          371,
          372,
          373,
          374,
          375,
          376,
          377,
          378,
          379,
          380,
          381,
          382,
          383,
          384,
          385,
          386,
          387,
          388,
          389,
          390,
          391,
          392,
          393,
          394,
          395,
          396,
          397,
          398,
          399,
          400,
          401,
          402,
          403,
          404,
          405,
          406
        ],
        "AcquisitionTime": [
          "101058.685000",
          "101100.175000",
          "101101.665000",
          "101103.155000",
          "101104.645000",
          "101106.135000",
          "101107.625000",
          "101109.115000",
          "101110.605000",
          "101112.095000",
          "101113.585000",
          "101115.075000",
          "101116.565000",
          "101118.055000",
          "101119.545000",
          "101121.035000",
          "101122.525000",
          "101124.015000",
          "101125.505000",
          "101126.995000",
          "101128.485000",
          "101129.975000",
          "101131.465000",
          "101132.955000",
          "101134.445000",
          "101135.935000",
          "101137.425000",
          "101138.915000",
          "101140.405000",
          "101141.895000",
          "101143.385000",
          "101144.875000",
          "101146.365000",
          "101147.855000",
          "101149.345000",
          "101150.835000",
          "101152.325000",
          "101153.815000",
          "101155.305000",
          "101156.795000",
          "101158.285000",
          "101159.775000",
          "101201.265000",
          "101202.755000",
          "101204.245000",
          "101205.735000",
          "101207.225000",
          "101208.715000",
          "101210.205000",
          "101211.695000",
          "101213.185000",
          "101214.675000",
          "101216.165000",
          "101217.655000",
          "101219.145000",
          "101220.635000",
          "101222.125000",
          "101223.615000",
          "101225.105000",
          "101226.595000",
          "101228.085000",
          "101229.575000",
          "101231.065000",
          "101232.555000",
          "101234.045000",
          "101235.535000",
          "101237.025000",
          "101238.515000",
          "101240.005000",
          "101241.495000",
          "101242.985000",
          "101244.475000",
          "101245.965000",
          "101247.455000",
          "101248.945000",
          "101250.435000",
          "101251.925000",
          "101253.415000",
          "101254.905000",
          "101256.395000",
          "101257.885000",
          "101259.375000",
          "101300.865000",
          "101302.355000",
          "101303.845000",
          "101305.335000",
          "101306.825000",
          "101308.315000",
          "101309.805000",
          "101311.295000",
          "101312.785000",
          "101314.275000",
          "101315.765000",
          "101317.255000",
          "101318.745000",
          "101320.235000",
          "101321.725000",
          "101323.215000",
          "101324.705000",
          "101326.195000",
          "101327.685000",
          "101329.175000",
          "101330.665000",
          "101332.155000",
          "101333.645000",
          "101335.135000",
          "101336.625000",
          "101338.115000",
          "101339.605000",
          "101341.095000",
          "101342.585000",
          "101344.075000",
          "101345.565000",
          "101347.055000",
          "101348.545000",
          "101350.035000",
          "101351.525000",
          "101353.015000",
          "101354.505000",
          "101355.995000",
          "101357.485000",
          "101358.975000",
          "101400.465000",
          "101401.955000",
          "101403.445000",
          "101404.935000",
          "101406.425000",
          "101407.915000",
          "101409.405000",
          "101410.895000",
          "101412.385000",
          "101413.875000",
          "101415.365000",
          "101416.855000",
          "101418.345000",
          "101419.835000",
          "101421.325000",
          "101422.815000",
          "101424.305000",
          "101425.795000",
          "101427.285000",
          "101428.775000",
          "101430.265000",
          "101431.755000",
          "101433.245000",
          "101434.735000",
          "101436.225000",
          "101437.715000",
          "101439.205000",
          "101440.695000",
          "101442.185000",
          "101443.675000",
          "101445.165000",
          "101446.655000",
          "101448.145000",
          "101449.635000",
          "101451.125000",
          "101452.615000",
          "101454.105000",
          "101455.595000",
          "101457.085000",
          "101458.575000",
          "101500.065000",
          "101501.555000",
          "101503.045000",
          "101504.535000",
          "101506.025000",
          "101507.515000",
          "101509.005000",
          "101510.495000",
          "101511.985000",
          "101513.475000",
          "101514.965000",
          "101516.455000",
          "101517.945000",
          "101519.435000",
          "101520.925000",
          "101522.415000",
          "101523.905000",
          "101525.395000",
          "101526.885000",
          "101528.375000",
          "101529.865000",
          "101531.355000",
          "101532.845000",
          "101534.335000",
          "101535.825000",
          "101537.315000",
          "101538.805000",
          "101540.295000",
          "101541.785000",
          "101543.275000",
          "101544.765000",
          "101546.255000",
          "101547.745000",
          "101549.235000",
          "101550.725000",
          "101552.215000",
          "101553.705000",
          "101555.195000",
          "101556.685000",
          "101558.175000",
          "101559.665000",
          "101601.155000",
          "101602.645000",
          "101604.135000",
          "101605.625000",
          "101607.115000",
          "101608.605000",
          "101610.095000",
          "101611.585000",
          "101613.075000",
          "101614.565000",
          "101616.055000",
          "101617.545000",
          "101619.035000",
          "101620.525000",
          "101622.015000",
          "101623.505000",
          "101624.995000",
          "101626.485000",
          "101627.975000",
          "101629.465000",
          "101630.955000",
          "101632.445000",
          "101633.935000",
          "101635.425000",
          "101636.915000",
          "101638.405000",
          "101639.895000",
          "101641.385000",
          "101642.875000",
          "101644.365000",
          "101645.855000",
          "101647.345000",
          "101648.835000",
          "101650.325000",
          "101651.815000",
          "101653.305000",
          "101654.795000",
          "101656.285000",
          "101657.775000",
          "101659.265000",
          "101700.755000",
          "101702.245000",
          "101703.735000",
          "101705.225000",
          "101706.715000",
          "101708.205000",
          "101709.695000",
          "101711.185000",
          "101712.675000",
          "101714.165000",
          "101715.655000",
          "101717.145000",
          "101718.635000",
          "101720.125000",
          "101721.615000",
          "101723.105000",
          "101724.595000",
          "101726.085000",
          "101727.575000",
          "101729.065000",
          "101730.555000",
          "101732.045000",
          "101733.535000",
          "101735.025000",
          "101736.515000",
          "101738.005000",
          "101739.495000",
          "101740.985000",
          "101742.475000",
          "101743.965000",
          "101745.455000",
          "101746.945000",
          "101748.435000",
          "101749.925000",
          "101751.415000",
          "101752.905000",
          "101754.395000",
          "101755.885000",
          "101757.375000",
          "101758.865000",
          "101800.355000",
          "101801.845000",
          "101803.335000",
          "101804.825000",
          "101806.315000",
          "101807.805000",
          "101809.295000",
          "101810.785000",
          "101812.275000",
          "101813.765000",
          "101815.255000",
          "101816.745000",
          "101818.235000",
          "101819.725000",
          "101821.215000",
          "101822.705000",
          "101824.195000",
          "101825.685000",
          "101827.175000",
          "101828.665000",
          "101830.155000",
          "101831.645000",
          "101833.135000",
          "101834.625000",
          "101836.115000",
          "101837.605000",
          "101839.095000",
          "101840.585000",
          "101842.075000",
          "101843.565000",
          "101845.055000",
          "101846.545000",
          "101848.035000",
          "101849.525000",
          "101851.015000",
          "101852.505000",
          "101853.995000",
          "101855.485000",
          "101856.975000",
          "101858.465000",
          "101859.955000",
          "101901.445000",
          "101902.935000",
          "101904.425000",
          "101905.915000",
          "101907.405000",
          "101908.895000",
          "101910.385000",
          "101911.875000",
          "101913.365000",
          "101914.855000",
          "101916.345000",
          "101917.835000",
          "101919.325000",
          "101920.815000",
          "101922.305000",
          "101923.795000",
          "101925.285000",
          "101926.775000",
          "101928.265000",
          "101929.755000",
          "101931.245000",
          "101932.735000",
          "101934.225000",
          "101935.715000",
          "101937.205000",
          "101938.695000",
          "101940.185000",
          "101941.675000",
          "101943.165000",
          "101944.655000",
          "101946.145000",
          "101947.635000",
          "101949.125000",
          "101950.615000",
          "101952.105000",
          "101953.595000",
          "101955.085000",
          "101956.575000",
          "101958.065000",
          "101959.555000",
          "102001.045000",
          "102002.535000",
          "102004.025000",
          "102005.515000",
          "102007.005000",
          "102008.495000",
          "102009.985000",
          "102011.475000",
          "102012.965000",
          "102014.455000",
          "102015.945000",
          "102017.435000",
          "102018.925000",
          "102020.415000",
          "102021.905000",
          "102023.395000",
          "102024.885000",
          "102026.375000",
          "102027.865000",
          "102029.355000",
          "102030.845000",
          "102032.335000",
          "102033.825000",
          "102035.315000",
          "102036.805000",
          "102038.295000",
          "102039.785000",
          "102041.275000",
          "102042.765000",
          "102044.255000",
          "102045.745000",
          "102047.235000",
          "102048.725000",
          "102050.215000",
          "102051.705000",
          "102053.195000",
          "102054.685000",
          "102056.175000",
          "102057.665000",
          "102059.155000",
          "102100.645000",
          "102102.135000"
        ],
        "ContentTime": [
          "101222.960000",
          "101222.964000",
          "101222.966000",
          "101222.969000",
          "101222.972000",
          "101222.975000",
          "101222.978000",
          "101222.981000",
          "101222.984000",
          "101222.987000",
          "101222.989000",
          "101222.992000",
          "101222.995000",
          "101222.998000",
          "101223.002000",
          "101223.005000",
          "101223.008000",
          "101223.011000",
          "101223.014000",
          "101223.017000",
          "101223.020000",
          "101223.023000",
          "101223.038000",
          "101223.041000",
          "101223.044000",
          "101223.047000",
          "101223.050000",
          "101223.053000",
          "101223.056000",
          "101223.059000",
          "101223.061000",
          "101242.931000",
          "101242.934000",
          "101242.937000",
          "101242.940000",
          "101242.943000",
          "101242.949000",
          "101242.952000",
          "101242.955000",
          "101242.958000",
          "101242.961000",
          "101242.963000",
          "101242.966000",
          "101242.969000",
          "101242.972000",
          "101242.975000",
          "101242.978000",
          "101242.980000",
          "101242.983000",
          "101242.986000",
          "101242.995000",
          "101242.998000",
          "101302.931000",
          "101302.934000",
          "101302.937000",
          "101302.939000",
          "101302.943000",
          "101302.945000",
          "101302.948000",
          "101302.951000",
          "101302.959000",
          "101302.963000",
          "101302.966000",
          "101302.968000",
          "101302.971000",
          "101302.974000",
          "101302.977000",
          "101302.980000",
          "101302.983000",
          "101302.986000",
          "101302.989000",
          "101302.991000",
          "101322.932000",
          "101322.935000",
          "101322.938000",
          "101322.940000",
          "101322.944000",
          "101322.946000",
          "101322.949000",
          "101322.952000",
          "101322.955000",
          "101322.958000",
          "101322.961000",
          "101322.963000",
          "101322.966000",
          "101322.969000",
          "101322.972000",
          "101322.975000",
          "101322.978000",
          "101322.981000",
          "101322.983000",
          "101322.986000",
          "101402.931000",
          "101402.934000",
          "101402.937000",
          "101402.940000",
          "101402.943000",
          "101402.945000",
          "101402.948000",
          "101402.951000",
          "101402.954000",
          "101402.957000",
          "101402.960000",
          "101402.963000",
          "101402.966000",
          "101402.968000",
          "101402.971000",
          "101402.974000",
          "101402.977000",
          "101402.980000",
          "101402.983000",
          "101402.986000",
          "101402.989000",
          "101402.991000",
          "101402.994000",
          "101402.997000",
          "101403.001000",
          "101403.004000",
          "101403.007000",
          "101403.010000",
          "101403.012000",
          "101403.015000",
          "101403.018000",
          "101442.931000",
          "101442.934000",
          "101442.937000",
          "101442.940000",
          "101442.943000",
          "101442.946000",
          "101442.949000",
          "101442.952000",
          "101442.955000",
          "101442.958000",
          "101442.961000",
          "101442.963000",
          "101442.966000",
          "101442.969000",
          "101442.972000",
          "101442.975000",
          "101442.978000",
          "101442.980000",
          "101442.983000",
          "101442.986000",
          "101442.989000",
          "101442.992000",
          "101442.995000",
          "101443.016000",
          "101443.019000",
          "101443.031000",
          "101522.931000",
          "101522.934000",
          "101522.937000",
          "101522.940000",
          "101522.942000",
          "101522.945000",
          "101522.948000",
          "101522.951000",
          "101522.954000",
          "101522.957000",
          "101522.960000",
          "101522.963000",
          "101522.966000",
          "101522.968000",
          "101522.971000",
          "101522.974000",
          "101522.977000",
          "101522.980000",
          "101522.983000",
          "101522.986000",
          "101522.988000",
          "101522.991000",
          "101522.994000",
          "101522.997000",
          "101523.001000",
          "101523.004000",
          "101523.007000",
          "101602.932000",
          "101602.935000",
          "101602.938000",
          "101602.941000",
          "101602.944000",
          "101602.947000",
          "101602.950000",
          "101602.952000",
          "101602.955000",
          "101602.958000",
          "101602.961000",
          "101602.964000",
          "101602.967000",
          "101602.970000",
          "101602.973000",
          "101602.975000",
          "101602.978000",
          "101602.981000",
          "101602.984000",
          "101602.987000",
          "101602.990000",
          "101602.992000",
          "101602.995000",
          "101602.998000",
          "101603.002000",
          "101603.005000",
          "101603.008000",
          "101642.931000",
          "101642.934000",
          "101642.937000",
          "101642.940000",
          "101642.943000",
          "101642.946000",
          "101642.948000",
          "101642.951000",
          "101642.954000",
          "101642.957000",
          "101642.960000",
          "101642.963000",
          "101642.966000",
          "101642.969000",
          "101642.971000",
          "101642.974000",
          "101642.977000",
          "101642.980000",
          "101642.983000",
          "101642.986000",
          "101642.989000",
