{
  "aor": 0.0006717359413202935,
  "aqi": 0.012470721907090464,
  "bids_meta": {
    "AcquisitionMatrixPE": 104,
    "AcquisitionNumber": 1,
    "AcquisitionTime": "18:47:42.230000",
    "BandwidthPerPixelPhaseEncode": 17.17,
    "BaseResolution": 104,
    "BodyPartExamined": "BRAIN",
    "CogAtlasID": "trm_4c898da401420",
    "ConsistencyInfo": "N4_VE11C_LATEST_20160120",
    "ConversionSoftware": "dcm2niix",
    "ConversionSoftwareVersion": "v1.0.20171215 (OpenJPEG build) GCC7.3.0",
    "DerivedVendorReportedEchoSpacing": 0.000560011,
    "DeviceSerialNumber": "167006",
    "DwellTime": 2.1e-06,
    "EchoTime": 0.037,
    "EchoTrainLength": 104,
    "EffectiveEchoSpacing": 0.000560011,
    "FlipAngle": 52,
    "ImageComments": "Unaliased_MB4_PE3_LB",
    "ImageOrientationPatientDICOM": [
      0.998633,
      -0.0213416,
      -0.0477083,
      0.00209152,
      0.928417,
      -0.371535
    ],
    "ImageType": [
      "ORIGINAL",
      "PRIMARY",
      "M",
      "MB",
      "ND",
      "MOSAIC"
    ],
    "InPlanePhaseEncodingDirectionDICOM": "COL",
    "InstitutionAddress": "Chemin_Queen-Mary_4565_Montreal_District_CA_H3W_1W5",
    "InstitutionName": "IUGM",
    "InstitutionalDepartmentName": "Department",
    "MRAcquisitionType": "2D",
    "MagneticFieldStrength": 3,
    "Manufacturer": "Siemens",
    "ManufacturersModelName": "Prisma_fit",
    "Modality": "MR",
    "MultibandAccelerationFactor": 4,
    "PartialFourier": 1,
    "PatientPosition": "HFS",
    "PercentPhaseFOV": 100,
    "PhaseEncodingDirection": "j-",
    "PhaseEncodingSteps": 104,
    "PhaseResolution": 1,
    "PixelBandwidth": 2290,
    "ProcedureStepDescription": "video5_generic",
    "ProtocolName": "func_task-figures5",
    "PulseSequenceDetails": "%CustomerSeq%_cmrr_mbep2d_bold",
    "ReceiveCoilActiveElements": "HC1-7;NC1,2",
    "ReceiveCoilName": "HeadNeck_64",
    "ReconMatrixPE": 104,
    "RepetitionTime": 1.49,
    "SAR": 0.0340115,
    "ScanOptions": "FS",
    "ScanningSequence": "EP",
    "SequenceName": "epfid2d1_104",
    "SequenceVariant": "SK_SS",
    "SeriesDescription": "func_task-figures5",
    "SeriesNumber": 15,
    "ShimSetting": [
      605,
      -7214,
      -8893,
      371,
      16,
      -350,
      -23,
      46
    ],
    "SliceThickness": 2,
    "SliceTiming": [
      0,
      0.7825,
      0.0975,
      0.88,
      0.195,
      0.9775,
      0.2925,
      1.0775,
      0.39,
      1.175,
      0.4875,
      1.2725,
      0.5875,
      1.37,
      0.685,
      0,
      0.7825,
      0.0975,
      0.88,
      0.195,
      0.9775,
      0.2925,
      1.0775,
      0.39,
      1.175,
      0.4875,
      1.2725,
      0.5875,
      1.37,
      0.685,
      0,
      0.7825,
      0.0975,
      0.88,
      0.195,
      0.9775,
      0.2925,
      1.0775,
      0.39,
      1.175,
      0.4875,
      1.2725,
      0.5875,
      1.37,
      0.685,
      0,
      0.7825,
      0.0975,
      0.88,
      0.195,
      0.9775,
      0.2925,
      1.0775,
      0.39,
      1.175,
      0.4875,
      1.2725,
      0.5875,
      1.37,
      0.685
    ],
    "SoftwareVersions": "syngo_MR_E11",
    "SpacingBetweenSlices": 2,
    "StationName": "MRC35049",
    "TaskName": "figures05",
    "TotalReadoutTime": 0.0576811,
    "TxRefAmp": 234.501,
    "dataset": "<unset>",
    "dcmmeta_affine": [
      [
        -1.9972665309906006,
        0.004183049779385328,
        -0.10444459319114685,
        104.44893646240234
      ],
      [
        0.042683277279138565,
        1.8568334579467773,
        -0.741854190826416,
        -70.5096664428711
      ],
      [
        -0.09541650116443634,
        0.7430692911148071,
        1.8543850183486938,
        -86.5866928100586
      ],
      [
        0.0,
        0.0,
        0.0,
        1.0
      ]
    ],
    "dcmmeta_reorient_transform": [
      [
        0.0,
        -1.0,
        0.0,
        103.0
      ],
      [
        1.0,
        0.0,
        0.0,
        0.0
      ],
      [
        0.0,
        0.0,
        1.0,
        0.0
      ],
      [
        0.0,
        0.0,
        0.0,
        1.0
      ]
    ],
    "dcmmeta_shape": [
      104,
      104,
      60,
      410
    ],
    "dcmmeta_slice_dim": 2,
    "dcmmeta_version": 0.6,
    "global": {
      "const": {
        "AcquisitionMatrix": [
          104,
          0,
          0,
          104
        ],
        "AngioFlag": "N",
        "BitsAllocated": 16,
        "BitsStored": 16,
        "BodyPartExamined": "BRAIN",
        "Columns": 832,
        "EchoNumbers": 1,
        "EchoTime": 37.0,
        "EchoTrainLength": 104,
        "FlipAngle": 52.0,
        "HighBit": 15,
        "ImageOrientationPatient": [
          0.99863329470095,
          -0.0213416389786,
          -0.047708250444,
          0.00209152484275,
          0.92841673079815,
          -0.3715346545047
        ],
        "ImagePositionPatient": [
          -833.40746019876,
          -781.09484355084,
          295.1582834102
        ],
        "ImageType": [
          "ORIGINAL",
          "PRIMARY",
          "M",
          "MB",
          "ND",
          "MOSAIC"
        ],
        "ImagedNucleus": "1H",
        "ImagingFrequency": 123.259119,
        "InPlanePhaseEncodingDirection": "COL",
        "MRAcquisitionType": "2D",
        "MagneticFieldStrength": 3.0,
        "Manufacturer": "SIEMENS",
        "ManufacturerModelName": "Prisma_fit",
        "Modality": "MR",
        "NumberOfAverages": 1.0,
        "NumberOfPhaseEncodingSteps": 104,
        "PercentPhaseFieldOfView": 100.0,
        "PercentSampling": 100.0,
        "PerformedProcedureStepStartTime": "174559.742000",
        "PhotometricInterpretation": "MONOCHROME2",
        "PixelBandwidth": 2290.0,
        "PixelRepresentation": 0,
        "PixelSpacing": [
          2.0,
          2.0
        ],
        "ProtocolName": "func_task-figures5",
        "RepetitionTime": 1490.0,
        "Rows": 832,
        "SAR": 0.03401152448984,
        "SamplesPerPixel": 1,
        "ScanOptions": "FS",
        "ScanningSequence": "EP",
        "SequenceName": "epfid2d1_104",
        "SequenceVariant": [
          "SK",
          "SS"
        ],
        "SeriesDescription": "func_task-figures5",
        "SeriesNumber": 15,
        "SeriesTime": "184858.053000",
        "SliceLocation": -59.583145862045,
        "SliceThickness": 2.0,
        "SmallestImagePixelValue": 0,
        "SoftwareVersions": "syngo MR E11",
        "SpacingBetweenSlices": 1.9999999910603,
        "SpecificCharacterSet": "ISO_IR 100",
        "StudyID": "1",
        "StudyTime": "174559.661000",
        "TransmitCoilName": "Body",
        "VariableFlipAngleFlag": "N",
        "WindowCenterWidthExplanation": "Algo1",
        "dBdt": 0.0
      },
      "slices": {}
    },
    "modality": "bold",
    "run_id": 2,
    "session_id": "010",
    "subject_id": "05",
    "task_id": "figures05",
    "time": {
      "samples": {
        "AcquisitionNumber": [
          1,
          2,
          3,
          4,
          5,
          6,
          7,
          8,
          9,
          10,
          11,
          12,
          13,
          14,
          15,
          16,
          17,
          18,
          19,
          20,
          21,
          22,
          23,
          24,
          25,
          26,
          27,
          28,
          29,
          30,
          31,
          32,
          33,
          34,
          35,
          36,
          37,
          38,
          39,
          40,
          41,
          42,
          43,
          44,
          45,
          46,
          47,
          48,
          49,
          50,
          51,
          52,
          53,
          54,
          55,
          56,
          57,
          58,
          59,
          60,
          61,
          62,
          63,
          64,
          65,
          66,
          67,
          68,
          69,
          70,
          71,
          72,
          73,
          74,
          75,
          76,
          77,
          78,
          79,
          80,
          81,
          82,
          83,
          84,
          85,
          86,
          87,
          88,
          89,
          90,
          91,
          92,
          93,
          94,
          95,
          96,
          97,
          98,
          99,
          100,
          101,
          102,
          103,
          104,
          105,
          106,
          107,
          108,
          109,
          110,
          111,
          112,
          113,
          114,
          115,
          116,
          117,
          118,
          119,
          120,
          121,
          122,
          123,
          124,
          125,
          126,
          127,
          128,
          129,
          130,
          131,
          132,
          133,
          134,
          135,
          136,
          137,
          138,
          139,
          140,
          141,
          142,
          143,
          144,
          145,
          146,
          147,
          148,
          149,
          150,
          151,
          152,
          153,
          154,
          155,
          156,
          157,
          158,
          159,
          160,
          161,
          162,
          163,
          164,
          165,
          166,
          167,
          168,
          169,
          170,
          171,
          172,
          173,
          174,
          175,
          176,
          177,
          178,
          179,
          180,
          181,
          182,
          183,
          184,
          185,
          186,
          187,
          188,
          189,
          190,
          191,
          192,
          193,
          194,
          195,
          196,
          197,
          198,
          199,
          200,
          201,
          202,
          203,
          204,
          205,
          206,
          207,
          208,
          209,
          210,
          211,
          212,
          213,
          214,
          215,
          216,
          217,
          218,
          219,
          220,
          221,
          222,
          223,
          224,
          225,
          226,
          227,
          228,
          229,
          230,
          231,
          232,
          233,
          234,
          235,
          236,
          237,
          238,
          239,
          240,
          241,
          242,
          243,
          244,
          245,
          246,
          247,
          248,
          249,
          250,
          251,
          252,
          253,
          254,
          255,
          256,
          257,
          258,
          259,
          260,
          261,
          262,
          263,
          264,
          265,
          266,
          267,
          268,
          269,
          270,
          271,
          272,
          273,
          274,
          275,
          276,
          277,
          278,
          279,
          280,
          281,
          282,
          283,
          284,
          285,
          286,
          287,
          288,
          289,
          290,
          291,
          292,
          293,
          294,
          295,
          296,
          297,
          298,
          299,
          300,
          301,
          302,
          303,
          304,
          305,
          306,
          307,
          308,
          309,
          310,
          311,
          312,
          313,
          314,
          315,
          316,
          317,
          318,
          319,
          320,
          321,
          322,
          323,
          324,
          325,
          326,
          327,
          328,
          329,
          330,
          331,
          332,
          333,
          334,
          335,
          336,
          337,
          338,
          339,
          340,
          341,
          342,
          343,
          344,
          345,
          346,
          347,
          348,
          349,
          350,
          351,
          352,
          353,
          354,
          355,
          356,
          357,
          358,
          359,
          360,
          361,
          362,
          363,
          364,
          365,
          366,
          367,
          368,
          369,
          370,
          371,
          372,
          373,
          374,
          375,
          376,
          377,
          378,
          379,
          380,
          381,
          382,
          383,
          384,
          385,
          386,
          387,
          388,
          389,
          390,
          391,
          392,
          393,
          394,
          395,
          396,
          397,
          398,
          399,
          400,
          401,
          402,
          403,
          404,
          405,
          406,
          407,
          408,
          409,
          410
        ],
        "AcquisitionTime": [
          "184742.230000",
          "184743.720000",
          "184745.210000",
          "184746.700000",
          "184748.190000",
          "184749.680000",
          "184751.170000",
          "184752.660000",
          "184754.150000",
          "184755.640000",
          "184757.130000",
          "184758.620000",
          "184800.110000",
          "184801.600000",
          "184803.090000",
          "184804.580000",
          "184806.070000",
          "184807.560000",
          "184809.050000",
          "184810.540000",
          "184812.030000",
          "184813.520000",
          "184815.010000",
          "184816.500000",
          "184817.990000",
          "184819.480000",
          "184820.970000",
          "184822.460000",
          "184823.950000",
          "184825.440000",
          "184826.930000",
          "184828.420000",
          "184829.910000",
          "184831.400000",
          "184832.890000",
          "184834.380000",
          "184835.870000",
          "184837.360000",
          "184838.850000",
          "184840.340000",
          "184841.830000",
          "184843.320000",
          "184844.810000",
          "184846.300000",
          "184847.790000",
          "184849.280000",
          "184850.770000",
          "184852.260000",
          "184853.750000",
          "184855.240000",
          "184856.730000",
          "184858.220000",
          "184859.710000",
          "184901.200000",
          "184902.690000",
          "184904.180000",
          "184905.670000",
          "184907.160000",
          "184908.650000",
          "184910.140000",
          "184911.630000",
          "184913.120000",
          "184914.610000",
          "184916.100000",
          "184917.590000",
          "184919.080000",
          "184920.570000",
          "184922.060000",
          "184923.550000",
          "184925.040000",
          "184926.530000",
          "184928.020000",
          "184929.510000",
          "184931.000000",
          "184932.490000",
          "184933.980000",
          "184935.470000",
          "184936.960000",
          "184938.450000",
          "184939.940000",
          "184941.430000",
          "184942.920000",
          "184944.410000",
          "184945.900000",
          "184947.390000",
          "184948.880000",
          "184950.370000",
          "184951.860000",
          "184953.350000",
          "184954.840000",
          "184956.330000",
          "184957.820000",
          "184959.310000",
          "185000.800000",
          "185002.290000",
          "185003.780000",
          "185005.270000",
          "185006.760000",
          "185008.250000",
          "185009.740000",
          "185011.230000",
          "185012.720000",
          "185014.210000",
          "185015.700000",
          "185017.190000",
          "185018.680000",
          "185020.170000",
          "185021.660000",
          "185023.150000",
          "185024.640000",
          "185026.130000",
          "185027.620000",
          "185029.110000",
          "185030.600000",
          "185032.090000",
          "185033.580000",
          "185035.070000",
          "185036.560000",
          "185038.050000",
          "185039.540000",
          "185041.030000",
          "185042.520000",
          "185044.010000",
          "185045.500000",
          "185046.990000",
          "185048.480000",
          "185049.970000",
          "185051.460000",
          "185052.950000",
          "185054.440000",
          "185055.930000",
          "185057.420000",
          "185058.910000",
          "185100.400000",
          "185101.890000",
          "185103.380000",
          "185104.870000",
          "185106.360000",
          "185107.850000",
          "185109.340000",
          "185110.830000",
          "185112.320000",
          "185113.810000",
          "185115.300000",
          "185116.790000",
          "185118.280000",
          "185119.770000",
          "185121.260000",
          "185122.750000",
          "185124.240000",
          "185125.730000",
          "185127.220000",
          "185128.710000",
          "185130.200000",
          "185131.690000",
          "185133.180000",
          "185134.670000",
          "185136.160000",
          "185137.650000",
          "185139.140000",
          "185140.630000",
          "185142.120000",
          "185143.610000",
          "185145.100000",
          "185146.590000",
          "185148.080000",
          "185149.570000",
          "185151.060000",
          "185152.550000",
          "185154.040000",
          "185155.530000",
          "185157.020000",
          "185158.510000",
          "185200.000000",
          "185201.490000",
          "185202.980000",
          "185204.470000",
          "185205.960000",
          "185207.450000",
          "185208.940000",
          "185210.430000",
          "185211.920000",
          "185213.410000",
          "185214.900000",
          "185216.390000",
          "185217.880000",
          "185219.370000",
          "185220.860000",
          "185222.350000",
          "185223.840000",
          "185225.330000",
          "185226.820000",
          "185228.310000",
          "185229.800000",
          "185231.290000",
          "185232.780000",
          "185234.270000",
          "185235.760000",
          "185237.250000",
          "185238.740000",
          "185240.230000",
          "185241.720000",
          "185243.210000",
          "185244.700000",
          "185246.190000",
          "185247.680000",
          "185249.170000",
          "185250.660000",
          "185252.150000",
          "185253.640000",
          "185255.130000",
          "185256.620000",
          "185258.110000",
          "185259.600000",
          "185301.090000",
          "185302.580000",
          "185304.070000",
          "185305.560000",
          "185307.050000",
          "185308.540000",
          "185310.030000",
          "185311.520000",
          "185313.010000",
          "185314.500000",
          "185315.990000",
          "185317.480000",
          "185318.970000",
          "185320.460000",
          "185321.950000",
          "185323.440000",
          "185324.930000",
          "185326.420000",
          "185327.910000",
          "185329.400000",
          "185330.890000",
          "185332.380000",
          "185333.870000",
          "185335.360000",
          "185336.850000",
          "185338.340000",
          "185339.830000",
          "185341.320000",
          "185342.810000",
          "185344.300000",
          "185345.790000",
          "185347.280000",
          "185348.770000",
          "185350.260000",
          "185351.750000",
          "185353.240000",
          "185354.730000",
          "185356.220000",
          "185357.710000",
          "185359.200000",
          "185400.690000",
          "185402.180000",
          "185403.670000",
          "185405.160000",
          "185406.650000",
          "185408.140000",
          "185409.630000",
          "185411.120000",
          "185412.610000",
          "185414.100000",
          "185415.590000",
          "185417.080000",
          "185418.570000",
          "185420.060000",
          "185421.550000",
          "185423.040000",
          "185424.530000",
          "185426.020000",
          "185427.510000",
          "185429.000000",
          "185430.490000",
          "185431.980000",
          "185433.470000",
          "185434.960000",
          "185436.450000",
          "185437.940000",
          "185439.430000",
          "185440.920000",
          "185442.410000",
          "185443.900000",
          "185445.390000",
          "185446.880000",
          "185448.370000",
          "185449.860000",
          "185451.350000",
          "185452.840000",
          "185454.330000",
          "185455.820000",
          "185457.310000",
          "185458.800000",
          "185500.290000",
          "185501.780000",
          "185503.270000",
          "185504.760000",
          "185506.250000",
          "185507.740000",
          "185509.230000",
          "185510.720000",
          "185512.210000",
          "185513.700000",
          "185515.190000",
          "185516.680000",
          "185518.170000",
          "185519.660000",
          "185521.150000",
          "185522.640000",
          "185524.130000",
          "185525.620000",
          "185527.110000",
          "185528.600000",
          "185530.090000",
          "185531.580000",
          "185533.070000",
          "185534.560000",
          "185536.050000",
          "185537.540000",
          "185539.030000",
          "185540.520000",
          "185542.010000",
          "185543.500000",
          "185544.990000",
          "185546.480000",
          "185547.970000",
          "185549.460000",
          "185550.950000",
          "185552.440000",
          "185553.930000",
          "185555.420000",
          "185556.910000",
          "185558.400000",
          "185559.890000",
          "185601.380000",
          "185602.870000",
          "185604.360000",
          "185605.850000",
          "185607.340000",
          "185608.830000",
          "185610.320000",
          "185611.810000",
          "185613.300000",
          "185614.790000",
          "185616.280000",
          "185617.770000",
          "185619.260000",
          "185620.750000",
          "185622.240000",
          "185623.730000",
          "185625.220000",
          "185626.710000",
          "185628.200000",
          "185629.690000",
          "185631.180000",
          "185632.670000",
          "185634.160000",
          "185635.650000",
          "185637.140000",
          "185638.630000",
          "185640.120000",
          "185641.610000",
          "185643.100000",
          "185644.590000",
          "185646.080000",
          "185647.570000",
          "185649.060000",
          "185650.550000",
          "185652.040000",
          "185653.530000",
          "185655.020000",
          "185656.510000",
          "185658.000000",
          "185659.490000",
          "185700.980000",
          "185702.470000",
          "185703.960000",
          "185705.450000",
          "185706.940000",
          "185708.430000",
          "185709.920000",
          "185711.410000",
          "185712.900000",
          "185714.390000",
          "185715.880000",
          "185717.370000",
          "185718.860000",
          "185720.350000",
          "185721.840000",
          "185723.330000",
          "185724.820000",
          "185726.310000",
          "185727.800000",
          "185729.290000",
          "185730.780000",
          "185732.270000",
          "185733.760000",
          "185735.250000",
          "185736.740000",
          "185738.230000",
          "185739.720000",
          "185741.210000",
          "185742.700000",
          "185744.190000",
          "185745.680000",
          "185747.170000",
          "185748.660000",
          "185750.150000",
          "185751.640000"
        ],
        "ContentTime": [
          "184858.056000",
          "184858.067000",
          "184858.070000",
          "184858.073000",
          "184858.075000",
          "184858.078000",
          "184858.081000",
          "184858.084000",
          "184858.087000",
          "184858.092000",
          "184858.094000",
          "184858.097000",
          "184858.100000",
          "184858.103000",
          "184858.106000",
          "184858.109000",
          "184858.112000",
          "184858.114000",
          "184858.117000",
          "184858.120000",
          "184858.123000",
          "184858.126000",
          "184918.029000",
          "184918.032000",
          "184918.035000",
          "184918.038000",
          "184918.040000",
          "184918.043000",
          "184918.046000",
          "184918.049000",
          "184918.052000",
          "184918.054000",
          "184918.057000",
          "184918.060000",
          "184918.063000",
          "184918.066000",
          "184918.068000",
          "184918.071000",
          "184918.074000",
          "184918.077000",
          "184918.080000",
          "184918.083000",
          "184938.029000",
          "184938.032000",
          "184938.035000",
          "184938.037000",
          "184938.040000",
          "184938.050000",
          "184938.053000",
          "184938.055000",
          "184938.058000",
          "184938.061000",
          "184938.064000",
          "184938.067000",
          "184938.069000",
          "184938.072000",
          "184938.075000",
          "184938.078000",
          "184938.081000",
          "184938.084000",
          "184938.086000",
          "184938.089000",
          "184958.029000",
          "184958.032000",
          "184958.035000",
          "184958.037000",
          "184958.040000",
          "184958.043000",
          "184958.046000",
          "184958.049000",
          "184958.052000",
          "184958.054000",
          "184958.057000",
          "184958.060000",
          "184958.063000",
          "184958.066000",
          "184958.069000",
          "184958.072000",
          "184958.075000",
          "184958.078000",
          "184958.081000",
          "184958.084000",
          "185018.029000",
          "185018.032000",
          "185018.035000",
          "185018.038000",
          "185018.040000",
          "185018.043000",
          "185018.046000",
          "185018.049000",
          "185018.052000",
          "185018.055000",
          "185018.058000",
          "185018.060000",
          "185018.063000",
          "185018.066000",
          "185018.069000",
          "185018.072000",
          "185018.075000",
          "185018.077000",
          "185018.080000",
          "185018.083000",
          "185018.086000",
          "185058.030000",
          "185058.033000",
          "185058.036000",
          "185058.039000",
          "185058.042000",
          "185058.045000",
          "185058.047000",
          "185058.050000",
          "185058.053000",
          "185058.056000",
          "185058.059000",
          "185058.061000",
          "185058.064000",
          "185058.067000",
          "185058.073000",
          "185058.076000",
          "185058.079000",
          "185058.082000",
          "185058.085000",
          "185058.088000",
          "185058.090000",
          "185058.093000",
          "185058.096000",
          "185058.099000",
          "185058.102000",
          "185058.104000",
          "185058.107000",
          "185058.110000",
          "185138.029000",
          "185138.032000",
          "185138.035000",
          "185138.038000",
          "185138.041000",
          "185138.044000",
          "185138.047000",
          "185138.050000",
          "185138.053000",
          "185138.055000",
          "185138.058000",
          "185138.061000",
          "185138.064000",
          "185138.067000",
          "185138.070000",
          "185138.073000",
          "185138.075000",
          "185138.078000",
          "185138.081000",
          "185138.084000",
          "185138.087000",
          "185138.090000",
          "185138.092000",
          "185138.095000",
          "185138.098000",
          "185138.101000",
          "185218.029000",
          "185218.032000",
          "185218.035000",
          "185218.038000",
          "185218.041000",
          "185218.043000",
          "185218.046000",
          "185218.049000",
          "185218.052000",
          "185218.055000",
          "185218.058000",
          "185218.060000",
          "185218.063000",
          "185218.066000",
          "185218.069000",
          "185218.072000",
          "185218.075000",
          "185218.078000",
          "185218.080000",
          "185218.083000",
          "185218.086000",
          "185218.089000",
          "185218.092000",
          "185218.095000",
          "185218.097000",
          "185218.100000",
          "185218.103000",
          "185258.029000",
          "185258.032000",
          "185258.035000",
          "185258.038000",
          "185258.041000",
          "185258.043000",
          "185258.046000",
          "185258.049000",
          "185258.052000",
          "185258.055000",
          "185258.057000",
          "185258.060000",
          "185258.063000",
          "185258.066000",
          "185258.069000",
          "185258.072000",
          "185258.074000",
          "185258.077000",
          "185258.080000",
          "185258.083000",
          "185258.086000",
          "185258.089000",
          "185258.092000",
          "185258.094000",
          "185258.097000",
          "185258.100000",
          "185258.103000",
          "185338.030000",
          "185338.033000",
          "185338.036000",
          "185338.039000",
          "185338.042000",
