{
  "aor": 0.001120831295843521,
  "aqi": 0.009906164963325186,
  "bids_meta": {
    "AcquisitionMatrixPE": 104,
    "AcquisitionNumber": 1,
    "AcquisitionTime": "18:15:52.307500",
    "BandwidthPerPixelPhaseEncode": 17.17,
    "BaseResolution": 104,
    "BodyPartExamined": "BRAIN",
    "CogAtlasID": "trm_4c898da401420",
    "ConsistencyInfo": "N4_VE11C_LATEST_20160120",
    "ConversionSoftware": "dcm2niix",
    "ConversionSoftwareVersion": "v1.0.20171215 (OpenJPEG build) GCC7.3.0",
    "DerivedVendorReportedEchoSpacing": 0.000560011,
    "DeviceSerialNumber": "167006",
    "DwellTime": 2.1e-06,
    "EchoTime": 0.037,
    "EchoTrainLength": 104,
    "EffectiveEchoSpacing": 0.000560011,
    "FlipAngle": 52,
    "ImageComments": "Unaliased_MB4_PE3_LB",
    "ImageOrientationPatientDICOM": [
      0.998633,
      -0.0213416,
      -0.0477083,
      0.00209152,
      0.928417,
      -0.371535
    ],
    "ImageType": [
      "ORIGINAL",
      "PRIMARY",
      "M",
      "MB",
      "ND",
      "MOSAIC"
    ],
    "InPlanePhaseEncodingDirectionDICOM": "COL",
    "InstitutionAddress": "Chemin_Queen-Mary_4565_Montreal_District_CA_H3W_1W5",
    "InstitutionName": "IUGM",
    "InstitutionalDepartmentName": "Department",
    "MRAcquisitionType": "2D",
    "MagneticFieldStrength": 3,
    "Manufacturer": "Siemens",
    "ManufacturersModelName": "Prisma_fit",
    "Modality": "MR",
    "MultibandAccelerationFactor": 4,
    "PartialFourier": 1,
    "PatientPosition": "HFS",
    "PercentPhaseFOV": 100,
    "PhaseEncodingDirection": "j-",
    "PhaseEncodingSteps": 104,
    "PhaseResolution": 1,
    "PixelBandwidth": 2290,
    "ProcedureStepDescription": "video5_generic",
    "ProtocolName": "func_task-figures2",
    "PulseSequenceDetails": "%CustomerSeq%_cmrr_mbep2d_bold",
    "ReceiveCoilActiveElements": "HC1-7;NC1,2",
    "ReceiveCoilName": "HeadNeck_64",
    "ReconMatrixPE": 104,
    "RepetitionTime": 1.49,
    "SAR": 0.0340115,
    "ScanOptions": "FS",
    "ScanningSequence": "EP",
    "SequenceName": "epfid2d1_104",
    "SequenceVariant": "SK_SS",
    "SeriesDescription": "func_task-figures2",
    "SeriesNumber": 9,
    "ShimSetting": [
      605,
      -7214,
      -8893,
      371,
      16,
      -350,
      -23,
      46
    ],
    "SliceThickness": 2,
    "SliceTiming": [
      0,
      0.7825,
      0.0975,
      0.88,
      0.195,
      0.98,
      0.2925,
      1.0775,
      0.39,
      1.175,
      0.49,
      1.2725,
      0.5875,
      1.37,
      0.685,
      0,
      0.7825,
      0.0975,
      0.88,
      0.195,
      0.98,
      0.2925,
      1.0775,
      0.39,
      1.175,
      0.49,
      1.2725,
      0.5875,
      1.37,
      0.685,
      0,
      0.7825,
      0.0975,
      0.88,
      0.195,
      0.98,
      0.2925,
      1.0775,
      0.39,
      1.175,
      0.49,
      1.2725,
      0.5875,
      1.37,
      0.685,
      0,
      0.7825,
      0.0975,
      0.88,
      0.195,
      0.98,
      0.2925,
      1.0775,
      0.39,
      1.175,
      0.49,
      1.2725,
      0.5875,
      1.37,
      0.685
    ],
    "SoftwareVersions": "syngo_MR_E11",
    "SpacingBetweenSlices": 2,
    "StationName": "MRC35049",
    "TaskName": "figures02",
    "TotalReadoutTime": 0.0576811,
    "TxRefAmp": 234.501,
    "dataset": "<unset>",
    "dcmmeta_affine": [
      [
        -1.9972665309906006,
        0.004183049779385328,
        -0.10444459319114685,
        104.44893646240234
      ],
      [
        0.042683277279138565,
        1.8568334579467773,
        -0.741854190826416,
        -70.5096664428711
      ],
      [
        -0.09541650116443634,
        0.7430692911148071,
        1.8543850183486938,
        -86.5866928100586
      ],
      [
        0.0,
        0.0,
        0.0,
        1.0
      ]
    ],
    "dcmmeta_reorient_transform": [
      [
        0.0,
        -1.0,
        0.0,
        103.0
      ],
      [
        1.0,
        0.0,
        0.0,
        0.0
      ],
      [
        0.0,
        0.0,
        1.0,
        0.0
      ],
      [
        0.0,
        0.0,
        0.0,
        1.0
      ]
    ],
    "dcmmeta_shape": [
      104,
      104,
      60,
      410
    ],
    "dcmmeta_slice_dim": 2,
    "dcmmeta_version": 0.6,
    "global": {
      "const": {
        "AcquisitionMatrix": [
          104,
          0,
          0,
          104
        ],
        "AngioFlag": "N",
        "BitsAllocated": 16,
        "BitsStored": 16,
        "BodyPartExamined": "BRAIN",
        "Columns": 832,
        "EchoNumbers": 1,
        "EchoTime": 37.0,
        "EchoTrainLength": 104,
        "FlipAngle": 52.0,
        "HighBit": 15,
        "ImageOrientationPatient": [
          0.99863329470095,
          -0.0213416389786,
          -0.047708250444,
          0.00209152484275,
          0.92841673079815,
          -0.3715346545047
        ],
        "ImagePositionPatient": [
          -833.40746019876,
          -781.09484355084,
          295.1582834102
        ],
        "ImageType": [
          "ORIGINAL",
          "PRIMARY",
          "M",
          "MB",
          "ND",
          "MOSAIC"
        ],
        "ImagedNucleus": "1H",
        "ImagingFrequency": 123.25911,
        "InPlanePhaseEncodingDirection": "COL",
        "MRAcquisitionType": "2D",
        "MagneticFieldStrength": 3.0,
        "Manufacturer": "SIEMENS",
        "ManufacturerModelName": "Prisma_fit",
        "Modality": "MR",
        "NumberOfAverages": 1.0,
        "NumberOfPhaseEncodingSteps": 104,
        "PercentPhaseFieldOfView": 100.0,
        "PercentSampling": 100.0,
        "PerformedProcedureStepStartTime": "174559.742000",
        "PhotometricInterpretation": "MONOCHROME2",
        "PixelBandwidth": 2290.0,
        "PixelRepresentation": 0,
        "PixelSpacing": [
          2.0,
          2.0
        ],
        "ProtocolName": "func_task-figures2",
        "RepetitionTime": 1490.0,
        "Rows": 832,
        "SAR": 0.03401152448984,
        "SamplesPerPixel": 1,
        "ScanOptions": "FS",
        "ScanningSequence": "EP",
        "SequenceName": "epfid2d1_104",
        "SequenceVariant": [
          "SK",
          "SS"
        ],
        "SeriesDescription": "func_task-figures2",
        "SeriesNumber": 9,
        "SeriesTime": "181718.055000",
        "SliceLocation": -59.583145862045,
        "SliceThickness": 2.0,
        "SmallestImagePixelValue": 0,
        "SoftwareVersions": "syngo MR E11",
        "SpacingBetweenSlices": 1.9999999910603,
        "SpecificCharacterSet": "ISO_IR 100",
        "StudyID": "1",
        "StudyTime": "174559.661000",
        "TransmitCoilName": "Body",
        "VariableFlipAngleFlag": "N",
        "WindowCenterWidthExplanation": "Algo1",
        "dBdt": 0.0
      },
      "slices": {}
    },
    "modality": "bold",
    "run_id": 2,
    "session_id": "010",
    "subject_id": "05",
    "task_id": "figures02",
    "time": {
      "samples": {
        "AcquisitionNumber": [
          1,
          2,
          3,
          4,
          5,
          6,
          7,
          8,
          9,
          10,
          11,
          12,
          13,
          14,
          15,
          16,
          17,
          18,
          19,
          20,
          21,
          22,
          23,
          24,
          25,
          26,
          27,
          28,
          29,
          30,
          31,
          32,
          33,
          34,
          35,
          36,
          37,
          38,
          39,
          40,
          41,
          42,
          43,
          44,
          45,
          46,
          47,
          48,
          49,
          50,
          51,
          52,
          53,
          54,
          55,
          56,
          57,
          58,
          59,
          60,
          61,
          62,
          63,
          64,
          65,
          66,
          67,
          68,
          69,
          70,
          71,
          72,
          73,
          74,
          75,
          76,
          77,
          78,
          79,
          80,
          81,
          82,
          83,
          84,
          85,
          86,
          87,
          88,
          89,
          90,
          91,
          92,
          93,
          94,
          95,
          96,
          97,
          98,
          99,
          100,
          101,
          102,
          103,
          104,
          105,
          106,
          107,
          108,
          109,
          110,
          111,
          112,
          113,
          114,
          115,
          116,
          117,
          118,
          119,
          120,
          121,
          122,
          123,
          124,
          125,
          126,
          127,
          128,
          129,
          130,
          131,
          132,
          133,
          134,
          135,
          136,
          137,
          138,
          139,
          140,
          141,
          142,
          143,
          144,
          145,
          146,
          147,
          148,
          149,
          150,
          151,
          152,
          153,
          154,
          155,
          156,
          157,
          158,
          159,
          160,
          161,
          162,
          163,
          164,
          165,
          166,
          167,
          168,
          169,
          170,
          171,
          172,
          173,
          174,
          175,
          176,
          177,
          178,
          179,
          180,
          181,
          182,
          183,
          184,
          185,
          186,
          187,
          188,
          189,
          190,
          191,
          192,
          193,
          194,
          195,
          196,
          197,
          198,
          199,
          200,
          201,
          202,
          203,
          204,
          205,
          206,
          207,
          208,
          209,
          210,
          211,
          212,
          213,
          214,
          215,
          216,
          217,
          218,
          219,
          220,
          221,
          222,
          223,
          224,
          225,
          226,
          227,
          228,
          229,
          230,
          231,
          232,
          233,
          234,
          235,
          236,
          237,
          238,
          239,
          240,
          241,
          242,
          243,
          244,
          245,
          246,
          247,
          248,
          249,
          250,
          251,
          252,
          253,
          254,
          255,
          256,
          257,
          258,
          259,
          260,
          261,
          262,
          263,
          264,
          265,
          266,
          267,
          268,
          269,
          270,
          271,
          272,
          273,
          274,
          275,
          276,
          277,
          278,
          279,
          280,
          281,
          282,
          283,
          284,
          285,
          286,
          287,
          288,
          289,
          290,
          291,
          292,
          293,
          294,
          295,
          296,
          297,
          298,
          299,
          300,
          301,
          302,
          303,
          304,
          305,
          306,
          307,
          308,
          309,
          310,
          311,
          312,
          313,
          314,
          315,
          316,
          317,
          318,
          319,
          320,
          321,
          322,
          323,
          324,
          325,
          326,
          327,
          328,
          329,
          330,
          331,
          332,
          333,
          334,
          335,
          336,
          337,
          338,
          339,
          340,
          341,
          342,
          343,
          344,
          345,
          346,
          347,
          348,
          349,
          350,
          351,
          352,
          353,
          354,
          355,
          356,
          357,
          358,
          359,
          360,
          361,
          362,
          363,
          364,
          365,
          366,
          367,
          368,
          369,
          370,
          371,
          372,
          373,
          374,
          375,
          376,
          377,
          378,
          379,
          380,
          381,
          382,
          383,
          384,
          385,
          386,
          387,
          388,
          389,
          390,
          391,
          392,
          393,
          394,
          395,
          396,
          397,
          398,
          399,
          400,
          401,
          402,
          403,
          404,
          405,
          406,
          407,
          408,
          409,
          410
        ],
        "AcquisitionTime": [
          "181552.307500",
          "181553.797500",
          "181555.287500",
          "181556.777500",
          "181558.267500",
          "181559.757500",
          "181601.247500",
          "181602.737500",
          "181604.227500",
          "181605.717500",
          "181607.207500",
          "181608.697500",
          "181610.187500",
          "181611.677500",
          "181613.167500",
          "181614.657500",
          "181616.147500",
          "181617.637500",
          "181619.127500",
          "181620.617500",
          "181622.107500",
          "181623.597500",
          "181625.087500",
          "181626.577500",
          "181628.067500",
          "181629.557500",
          "181631.047500",
          "181632.537500",
          "181634.027500",
          "181635.517500",
          "181637.007500",
          "181638.497500",
          "181639.987500",
          "181641.477500",
          "181642.967500",
          "181644.457500",
          "181645.947500",
          "181647.437500",
          "181648.927500",
          "181650.417500",
          "181651.907500",
          "181653.397500",
          "181654.887500",
          "181656.377500",
          "181657.867500",
          "181659.357500",
          "181700.847500",
          "181702.337500",
          "181703.827500",
          "181705.317500",
          "181706.807500",
          "181708.297500",
          "181709.787500",
          "181711.277500",
          "181712.767500",
          "181714.257500",
          "181715.747500",
          "181717.237500",
          "181718.727500",
          "181720.217500",
          "181721.707500",
          "181723.197500",
          "181724.687500",
          "181726.177500",
          "181727.667500",
          "181729.157500",
          "181730.647500",
          "181732.137500",
          "181733.627500",
          "181735.117500",
          "181736.607500",
          "181738.097500",
          "181739.587500",
          "181741.077500",
          "181742.567500",
          "181744.057500",
          "181745.547500",
          "181747.037500",
          "181748.527500",
          "181750.017500",
          "181751.507500",
          "181752.997500",
          "181754.487500",
          "181755.977500",
          "181757.467500",
          "181758.957500",
          "181800.447500",
          "181801.937500",
          "181803.427500",
          "181804.917500",
          "181806.407500",
          "181807.897500",
          "181809.387500",
          "181810.877500",
          "181812.367500",
          "181813.857500",
          "181815.347500",
          "181816.837500",
          "181818.327500",
          "181819.817500",
          "181821.307500",
          "181822.797500",
          "181824.287500",
          "181825.777500",
          "181827.267500",
          "181828.757500",
          "181830.247500",
          "181831.737500",
          "181833.227500",
          "181834.717500",
          "181836.207500",
          "181837.697500",
          "181839.187500",
          "181840.677500",
          "181842.167500",
          "181843.657500",
          "181845.147500",
          "181846.637500",
          "181848.127500",
          "181849.617500",
          "181851.107500",
          "181852.597500",
          "181854.087500",
          "181855.577500",
          "181857.067500",
          "181858.557500",
          "181900.047500",
          "181901.537500",
          "181903.027500",
          "181904.517500",
          "181906.007500",
          "181907.497500",
          "181908.987500",
          "181910.477500",
          "181911.967500",
          "181913.457500",
          "181914.947500",
          "181916.437500",
          "181917.927500",
          "181919.417500",
          "181920.907500",
          "181922.397500",
          "181923.887500",
          "181925.377500",
          "181926.867500",
          "181928.357500",
          "181929.847500",
          "181931.337500",
          "181932.827500",
          "181934.317500",
          "181935.807500",
          "181937.297500",
          "181938.787500",
          "181940.277500",
          "181941.767500",
          "181943.257500",
          "181944.747500",
          "181946.237500",
          "181947.727500",
          "181949.217500",
          "181950.707500",
          "181952.197500",
          "181953.687500",
          "181955.177500",
          "181956.667500",
          "181958.157500",
          "181959.647500",
          "182001.137500",
          "182002.627500",
          "182004.117500",
          "182005.607500",
          "182007.097500",
          "182008.587500",
          "182010.077500",
          "182011.567500",
          "182013.057500",
          "182014.547500",
          "182016.037500",
          "182017.527500",
          "182019.017500",
          "182020.507500",
          "182021.997500",
          "182023.487500",
          "182024.977500",
          "182026.467500",
          "182027.957500",
          "182029.447500",
          "182030.937500",
          "182032.427500",
          "182033.917500",
          "182035.407500",
          "182036.897500",
          "182038.387500",
          "182039.877500",
          "182041.367500",
          "182042.857500",
          "182044.347500",
          "182045.837500",
          "182047.327500",
          "182048.817500",
          "182050.307500",
          "182051.797500",
          "182053.287500",
          "182054.777500",
          "182056.267500",
          "182057.757500",
          "182059.247500",
          "182100.737500",
          "182102.227500",
          "182103.717500",
          "182105.207500",
          "182106.697500",
          "182108.187500",
          "182109.677500",
          "182111.167500",
          "182112.657500",
          "182114.147500",
          "182115.637500",
          "182117.127500",
          "182118.617500",
          "182120.107500",
          "182121.597500",
          "182123.087500",
          "182124.577500",
          "182126.067500",
          "182127.557500",
          "182129.047500",
          "182130.537500",
          "182132.027500",
          "182133.517500",
          "182135.007500",
          "182136.497500",
          "182137.987500",
          "182139.477500",
          "182140.967500",
          "182142.457500",
          "182143.947500",
          "182145.437500",
          "182146.927500",
          "182148.417500",
          "182149.907500",
          "182151.397500",
          "182152.887500",
          "182154.377500",
          "182155.867500",
          "182157.357500",
          "182158.847500",
          "182200.337500",
          "182201.827500",
          "182203.317500",
          "182204.807500",
          "182206.297500",
          "182207.787500",
          "182209.277500",
          "182210.767500",
          "182212.257500",
          "182213.747500",
          "182215.237500",
          "182216.727500",
          "182218.217500",
          "182219.707500",
          "182221.197500",
          "182222.687500",
          "182224.177500",
          "182225.667500",
          "182227.157500",
          "182228.647500",
          "182230.137500",
          "182231.627500",
          "182233.117500",
          "182234.607500",
          "182236.097500",
          "182237.587500",
          "182239.077500",
          "182240.567500",
          "182242.057500",
          "182243.547500",
          "182245.037500",
          "182246.527500",
          "182248.017500",
          "182249.507500",
          "182250.997500",
          "182252.487500",
          "182253.977500",
          "182255.467500",
          "182256.957500",
          "182258.447500",
          "182259.937500",
          "182301.427500",
          "182302.917500",
          "182304.407500",
          "182305.897500",
          "182307.387500",
          "182308.877500",
          "182310.367500",
          "182311.857500",
          "182313.347500",
          "182314.837500",
          "182316.327500",
          "182317.817500",
          "182319.307500",
          "182320.797500",
          "182322.287500",
          "182323.777500",
          "182325.267500",
          "182326.757500",
          "182328.247500",
          "182329.737500",
          "182331.227500",
          "182332.717500",
          "182334.207500",
          "182335.697500",
          "182337.187500",
          "182338.677500",
          "182340.167500",
          "182341.657500",
          "182343.147500",
          "182344.637500",
          "182346.127500",
          "182347.617500",
          "182349.107500",
          "182350.597500",
          "182352.087500",
          "182353.577500",
          "182355.067500",
          "182356.557500",
          "182358.047500",
          "182359.537500",
          "182401.027500",
          "182402.517500",
          "182404.007500",
          "182405.497500",
          "182406.987500",
          "182408.477500",
          "182409.967500",
          "182411.457500",
          "182412.947500",
          "182414.437500",
          "182415.927500",
          "182417.417500",
          "182418.907500",
          "182420.397500",
          "182421.887500",
          "182423.377500",
          "182424.867500",
          "182426.357500",
          "182427.847500",
          "182429.337500",
          "182430.827500",
          "182432.317500",
          "182433.807500",
          "182435.297500",
          "182436.787500",
          "182438.277500",
          "182439.767500",
          "182441.257500",
          "182442.747500",
          "182444.237500",
          "182445.727500",
          "182447.217500",
          "182448.707500",
          "182450.197500",
          "182451.687500",
          "182453.177500",
          "182454.667500",
          "182456.157500",
          "182457.647500",
          "182459.137500",
          "182500.627500",
          "182502.117500",
          "182503.607500",
          "182505.097500",
          "182506.587500",
          "182508.077500",
          "182509.567500",
          "182511.057500",
          "182512.547500",
          "182514.037500",
          "182515.527500",
          "182517.017500",
          "182518.507500",
          "182519.997500",
          "182521.487500",
          "182522.977500",
          "182524.467500",
          "182525.957500",
          "182527.447500",
          "182528.937500",
          "182530.427500",
          "182531.917500",
          "182533.407500",
          "182534.897500",
          "182536.387500",
          "182537.877500",
          "182539.367500",
          "182540.857500",
          "182542.347500",
          "182543.837500",
          "182545.327500",
          "182546.817500",
          "182548.307500",
          "182549.797500",
          "182551.287500",
          "182552.777500",
          "182554.267500",
          "182555.757500",
          "182557.247500",
          "182558.737500",
          "182600.227500",
          "182601.717500"
        ],
        "ContentTime": [
          "181718.058000",
          "181718.062000",
          "181718.069000",
          "181718.072000",
          "181718.075000",
          "181718.077000",
          "181718.080000",
          "181718.083000",
          "181718.086000",
          "181718.089000",
          "181718.092000",
          "181718.094000",
          "181718.097000",
          "181718.100000",
          "181718.103000",
          "181718.106000",
          "181718.109000",
          "181718.111000",
          "181718.114000",
          "181718.117000",
          "181718.120000",
          "181718.123000",
          "181718.126000",
          "181718.129000",
          "181718.131000",
          "181718.134000",
          "181718.137000",
          "181718.140000",
          "181718.143000",
          "181718.146000",
          "181738.029000",
          "181738.032000",
          "181738.035000",
          "181738.038000",
          "181738.041000",
          "181738.043000",
          "181738.046000",
          "181738.049000",
          "181738.052000",
          "181738.055000",
          "181738.058000",
          "181738.060000",
          "181738.063000",
          "181738.066000",
          "181738.069000",
          "181738.072000",
          "181738.075000",
          "181738.077000",
          "181738.080000",
          "181738.083000",
          "181758.029000",
          "181758.032000",
          "181758.035000",
          "181758.038000",
          "181758.040000",
          "181758.043000",
          "181758.046000",
          "181758.049000",
          "181758.052000",
          "181758.055000",
          "181758.057000",
          "181758.060000",
          "181758.063000",
          "181758.066000",
          "181758.069000",
          "181758.072000",
          "181758.075000",
          "181758.077000",
          "181758.080000",
          "181758.083000",
          "181818.030000",
          "181818.033000",
          "181818.036000",
          "181818.038000",
          "181818.041000",
          "181818.044000",
          "181818.047000",
          "181818.050000",
          "181818.053000",
          "181818.063000",
          "181818.066000",
          "181818.069000",
          "181818.072000",
          "181818.075000",
          "181818.077000",
          "181818.080000",
          "181818.083000",
          "181818.086000",
          "181818.089000",
          "181818.092000",
          "181838.030000",
          "181838.033000",
          "181838.049000",
          "181838.052000",
          "181838.055000",
          "181838.057000",
          "181838.060000",
          "181838.063000",
          "181838.066000",
          "181838.069000",
          "181838.071000",
          "181838.074000",
          "181838.077000",
          "181838.080000",
          "181838.083000",
          "181838.086000",
          "181838.088000",
          "181838.091000",
          "181838.094000",
          "181838.097000",
          "181918.029000",
          "181918.032000",
          "181918.035000",
          "181918.038000",
          "181918.041000",
          "181918.043000",
          "181918.046000",
          "181918.049000",
          "181918.052000",
          "181918.055000",
          "181918.058000",
          "181918.060000",
          "181918.063000",
          "181918.066000",
          "181918.069000",
          "181918.072000",
          "181918.075000",
          "181918.078000",
          "181918.080000",
          "181918.083000",
          "181918.086000",
          "181918.089000",
          "181918.092000",
          "181918.095000",
          "181918.098000",
          "181918.100000",
          "181918.103000",
          "181958.029000",
          "181958.032000",
          "181958.035000",
          "181958.038000",
          "181958.041000",
          "181958.043000",
          "181958.046000",
          "181958.049000",
          "181958.052000",
          "181958.055000",
          "181958.058000",
          "181958.060000",
          "181958.063000",
          "181958.066000",
          "181958.069000",
          "181958.072000",
          "181958.075000",
          "181958.077000",
          "181958.080000",
          "181958.083000",
          "181958.086000",
          "181958.089000",
          "181958.092000",
          "181958.095000",
          "181958.097000",
          "181958.100000",
          "181958.103000",
          "182038.030000",
          "182038.033000",
          "182038.036000",
          "182038.039000",
          "182038.042000",
          "182038.044000",
          "182038.047000",
          "182038.050000",
          "182038.053000",
          "182038.056000",
          "182038.059000",
          "182038.062000",
          "182038.064000",
          "182038.067000",
          "182038.070000",
          "182038.073000",
          "182038.076000",
          "182038.078000",
          "182038.081000",
          "182038.084000",
          "182038.087000",
          "182038.090000",
          "182038.093000",
          "182038.096000",
          "182038.099000",
          "182038.101000",
          "182038.104000",
          "182118.030000",
          "182118.033000",
          "182118.036000",
          "182118.039000",
          "182118.041000",
          "182118.044000",
          "182118.047000",
          "182118.050000",
          "182118.053000",
          "182118.056000",
          "182118.059000",
          "182118.061000",
          "182118.064000",
          "182118.067000",
          "182118.070000",
          "182118.073000",
          "182118.076000",
          "182118.079000",
          "182118.081000",
          "182118.084000",
          "182118.087000",
          "182118.090000",
          "182118.093000",
          "182118.096000",
          "182118.099000",
          "182118.101000",
