{
  "aor": 0.002294596577017115,
  "aqi": 0.009382333936430317,
  "bids_meta": {
    "AcquisitionMatrixPE": 104,
    "AcquisitionNumber": 1,
    "AcquisitionTime": "19:54:11.495000",
    "BandwidthPerPixelPhaseEncode": 17.17,
    "BaseResolution": 104,
    "BodyPartExamined": "BRAIN",
    "CogAtlasID": "trm_4c898da401420",
    "ConsistencyInfo": "N4_VE11C_LATEST_20160120",
    "ConversionSoftware": "dcm2niix",
    "ConversionSoftwareVersion": "v1.0.20171215 (OpenJPEG build) GCC7.3.0",
    "DerivedVendorReportedEchoSpacing": 0.000560011,
    "DeviceSerialNumber": "167006",
    "DwellTime": 2.1e-06,
    "EchoTime": 0.037,
    "EchoTrainLength": 104,
    "EffectiveEchoSpacing": 0.000560011,
    "FlipAngle": 52,
    "ImageComments": "Unaliased_MB4_PE3_LB",
    "ImageOrientationPatientDICOM": [
      0.998633,
      -0.0213416,
      -0.0477083,
      0.00209152,
      0.928417,
      -0.371535
    ],
    "ImageType": [
      "ORIGINAL",
      "PRIMARY",
      "M",
      "MB",
      "ND",
      "MOSAIC"
    ],
    "InPlanePhaseEncodingDirectionDICOM": "COL",
    "InstitutionAddress": "Chemin_Queen-Mary_4565_Montreal_District_CA_H3W_1W5",
    "InstitutionName": "IUGM",
    "InstitutionalDepartmentName": "Department",
    "MRAcquisitionType": "2D",
    "MagneticFieldStrength": 3,
    "Manufacturer": "Siemens",
    "ManufacturersModelName": "Prisma_fit",
    "Modality": "MR",
    "MultibandAccelerationFactor": 4,
    "PartialFourier": 1,
    "PatientPosition": "HFS",
    "PercentPhaseFOV": 100,
    "PhaseEncodingDirection": "j-",
    "PhaseEncodingSteps": 104,
    "PhaseResolution": 1,
    "PixelBandwidth": 2290,
    "ProcedureStepDescription": "video5_generic",
    "ProtocolName": "func_task-figures11",
    "PulseSequenceDetails": "%CustomerSeq%_cmrr_mbep2d_bold",
    "ReceiveCoilActiveElements": "HC1-7;NC1,2",
    "ReceiveCoilName": "HeadNeck_64",
    "ReconMatrixPE": 104,
    "RepetitionTime": 1.49,
    "SAR": 0.0340115,
    "ScanOptions": "FS",
    "ScanningSequence": "EP",
    "SequenceName": "epfid2d1_104",
    "SequenceVariant": "SK_SS",
    "SeriesDescription": "func_task-figures11",
    "SeriesNumber": 27,
    "ShimSetting": [
      605,
      -7214,
      -8893,
      371,
      16,
      -350,
      -23,
      46
    ],
    "SliceThickness": 2,
    "SliceTiming": [
      0,
      0.785,
      0.1,
      0.8825,
      0.1975,
      0.98,
      0.295,
      1.08,
      0.3925,
      1.1775,
      0.49,
      1.275,
      0.59,
      1.3725,
      0.6875,
      0,
      0.785,
      0.1,
      0.8825,
      0.1975,
      0.98,
      0.295,
      1.08,
      0.3925,
      1.1775,
      0.49,
      1.275,
      0.59,
      1.3725,
      0.6875,
      0,
      0.785,
      0.1,
      0.8825,
      0.1975,
      0.98,
      0.295,
      1.08,
      0.3925,
      1.1775,
      0.49,
      1.275,
      0.59,
      1.3725,
      0.6875,
      0,
      0.785,
      0.1,
      0.8825,
      0.1975,
      0.98,
      0.295,
      1.08,
      0.3925,
      1.1775,
      0.49,
      1.275,
      0.59,
      1.3725,
      0.6875
    ],
    "SoftwareVersions": "syngo_MR_E11",
    "SpacingBetweenSlices": 2,
    "StationName": "MRC35049",
    "TaskName": "figures11",
    "TotalReadoutTime": 0.0576811,
    "TxRefAmp": 234.501,
    "dataset": "<unset>",
    "dcmmeta_affine": [
      [
        -1.9972665309906006,
        0.004183049779385328,
        -0.10444459319114685,
        104.44893646240234
      ],
      [
        0.042683277279138565,
        1.8568334579467773,
        -0.741854190826416,
        -70.5096664428711
      ],
      [
        -0.09541650116443634,
        0.7430692911148071,
        1.8543850183486938,
        -86.5866928100586
      ],
      [
        0.0,
        0.0,
        0.0,
        1.0
      ]
    ],
    "dcmmeta_reorient_transform": [
      [
        0.0,
        -1.0,
        0.0,
        103.0
      ],
      [
        1.0,
        0.0,
        0.0,
        0.0
      ],
      [
        0.0,
        0.0,
        1.0,
        0.0
      ],
      [
        0.0,
        0.0,
        0.0,
        1.0
      ]
    ],
    "dcmmeta_shape": [
      104,
      104,
      60,
      410
    ],
    "dcmmeta_slice_dim": 2,
    "dcmmeta_version": 0.6,
    "global": {
      "const": {
        "AcquisitionMatrix": [
          104,
          0,
          0,
          104
        ],
        "AngioFlag": "N",
        "BitsAllocated": 16,
        "BitsStored": 16,
        "BodyPartExamined": "BRAIN",
        "Columns": 832,
        "EchoNumbers": 1,
        "EchoTime": 37.0,
        "EchoTrainLength": 104,
        "FlipAngle": 52.0,
        "HighBit": 15,
        "ImageOrientationPatient": [
          0.99863329470095,
          -0.0213416389786,
          -0.047708250444,
          0.00209152484275,
          0.92841673079815,
          -0.3715346545047
        ],
        "ImagePositionPatient": [
          -833.40746019876,
          -781.09484355084,
          295.1582834102
        ],
        "ImageType": [
          "ORIGINAL",
          "PRIMARY",
          "M",
          "MB",
          "ND",
          "MOSAIC"
        ],
        "ImagedNucleus": "1H",
        "ImagingFrequency": 123.259127,
        "InPlanePhaseEncodingDirection": "COL",
        "MRAcquisitionType": "2D",
        "MagneticFieldStrength": 3.0,
        "Manufacturer": "SIEMENS",
        "ManufacturerModelName": "Prisma_fit",
        "Modality": "MR",
        "NumberOfAverages": 1.0,
        "NumberOfPhaseEncodingSteps": 104,
        "PercentPhaseFieldOfView": 100.0,
        "PercentSampling": 100.0,
        "PerformedProcedureStepStartTime": "174559.742000",
        "PhotometricInterpretation": "MONOCHROME2",
        "PixelBandwidth": 2290.0,
        "PixelRepresentation": 0,
        "PixelSpacing": [
          2.0,
          2.0
        ],
        "ProtocolName": "func_task-figures11",
        "RepetitionTime": 1490.0,
        "Rows": 832,
        "SAR": 0.03401152448984,
        "SamplesPerPixel": 1,
        "ScanOptions": "FS",
        "ScanningSequence": "EP",
        "SequenceName": "epfid2d1_104",
        "SequenceVariant": [
          "SK",
          "SS"
        ],
        "SeriesDescription": "func_task-figures11",
        "SeriesNumber": 27,
        "SeriesTime": "195518.057000",
        "SliceLocation": -59.583145862045,
        "SliceThickness": 2.0,
        "SmallestImagePixelValue": 0,
        "SoftwareVersions": "syngo MR E11",
        "SpacingBetweenSlices": 1.9999999910603,
        "SpecificCharacterSet": "ISO_IR 100",
        "StudyID": "1",
        "StudyTime": "174559.661000",
        "TransmitCoilName": "Body",
        "VariableFlipAngleFlag": "N",
        "WindowCenterWidthExplanation": "Algo1",
        "dBdt": 0.0
      },
      "slices": {}
    },
    "modality": "bold",
    "run_id": 2,
    "session_id": "010",
    "subject_id": "05",
    "task_id": "figures11",
    "time": {
      "samples": {
        "AcquisitionNumber": [
          1,
          2,
          3,
          4,
          5,
          6,
          7,
          8,
          9,
          10,
          11,
          12,
          13,
          14,
          15,
          16,
          17,
          18,
          19,
          20,
          21,
          22,
          23,
          24,
          25,
          26,
          27,
          28,
          29,
          30,
          31,
          32,
          33,
          34,
          35,
          36,
          37,
          38,
          39,
          40,
          41,
          42,
          43,
          44,
          45,
          46,
          47,
          48,
          49,
          50,
          51,
          52,
          53,
          54,
          55,
          56,
          57,
          58,
          59,
          60,
          61,
          62,
          63,
          64,
          65,
          66,
          67,
          68,
          69,
          70,
          71,
          72,
          73,
          74,
          75,
          76,
          77,
          78,
          79,
          80,
          81,
          82,
          83,
          84,
          85,
          86,
          87,
          88,
          89,
          90,
          91,
          92,
          93,
          94,
          95,
          96,
          97,
          98,
          99,
          100,
          101,
          102,
          103,
          104,
          105,
          106,
          107,
          108,
          109,
          110,
          111,
          112,
          113,
          114,
          115,
          116,
          117,
          118,
          119,
          120,
          121,
          122,
          123,
          124,
          125,
          126,
          127,
          128,
          129,
          130,
          131,
          132,
          133,
          134,
          135,
          136,
          137,
          138,
          139,
          140,
          141,
          142,
          143,
          144,
          145,
          146,
          147,
          148,
          149,
          150,
          151,
          152,
          153,
          154,
          155,
          156,
          157,
          158,
          159,
          160,
          161,
          162,
          163,
          164,
          165,
          166,
          167,
          168,
          169,
          170,
          171,
          172,
          173,
          174,
          175,
          176,
          177,
          178,
          179,
          180,
          181,
          182,
          183,
          184,
          185,
          186,
          187,
          188,
          189,
          190,
          191,
          192,
          193,
          194,
          195,
          196,
          197,
          198,
          199,
          200,
          201,
          202,
          203,
          204,
          205,
          206,
          207,
          208,
          209,
          210,
          211,
          212,
          213,
          214,
          215,
          216,
          217,
          218,
          219,
          220,
          221,
          222,
          223,
          224,
          225,
          226,
          227,
          228,
          229,
          230,
          231,
          232,
          233,
          234,
          235,
          236,
          237,
          238,
          239,
          240,
          241,
          242,
          243,
          244,
          245,
          246,
          247,
          248,
          249,
          250,
          251,
          252,
          253,
          254,
          255,
          256,
          257,
          258,
          259,
          260,
          261,
          262,
          263,
          264,
          265,
          266,
          267,
          268,
          269,
          270,
          271,
          272,
          273,
          274,
          275,
          276,
          277,
          278,
          279,
          280,
          281,
          282,
          283,
          284,
          285,
          286,
          287,
          288,
          289,
          290,
          291,
          292,
          293,
          294,
          295,
          296,
          297,
          298,
          299,
          300,
          301,
          302,
          303,
          304,
          305,
          306,
          307,
          308,
          309,
          310,
          311,
          312,
          313,
          314,
          315,
          316,
          317,
          318,
          319,
          320,
          321,
          322,
          323,
          324,
          325,
          326,
          327,
          328,
          329,
          330,
          331,
          332,
          333,
          334,
          335,
          336,
          337,
          338,
          339,
          340,
          341,
          342,
          343,
          344,
          345,
          346,
          347,
          348,
          349,
          350,
          351,
          352,
          353,
          354,
          355,
          356,
          357,
          358,
          359,
          360,
          361,
          362,
          363,
          364,
          365,
          366,
          367,
          368,
          369,
          370,
          371,
          372,
          373,
          374,
          375,
          376,
          377,
          378,
          379,
          380,
          381,
          382,
          383,
          384,
          385,
          386,
          387,
          388,
          389,
          390,
          391,
          392,
          393,
          394,
          395,
          396,
          397,
          398,
          399,
          400,
          401,
          402,
          403,
          404,
          405,
          406,
          407,
          408,
          409,
          410
        ],
        "AcquisitionTime": [
          "195411.495000",
          "195412.985000",
          "195414.475000",
          "195415.965000",
          "195417.455000",
          "195418.945000",
          "195420.435000",
          "195421.925000",
          "195423.415000",
          "195424.905000",
          "195426.395000",
          "195427.885000",
          "195429.375000",
          "195430.865000",
          "195432.355000",
          "195433.845000",
          "195435.335000",
          "195436.825000",
          "195438.315000",
          "195439.805000",
          "195441.295000",
          "195442.785000",
          "195444.275000",
          "195445.765000",
          "195447.255000",
          "195448.745000",
          "195450.235000",
          "195451.725000",
          "195453.215000",
          "195454.705000",
          "195456.195000",
          "195457.685000",
          "195459.175000",
          "195500.665000",
          "195502.155000",
          "195503.645000",
          "195505.135000",
          "195506.625000",
          "195508.115000",
          "195509.605000",
          "195511.095000",
          "195512.585000",
          "195514.075000",
          "195515.565000",
          "195517.055000",
          "195518.545000",
          "195520.035000",
          "195521.525000",
          "195523.015000",
          "195524.505000",
          "195525.995000",
          "195527.485000",
          "195528.975000",
          "195530.465000",
          "195531.955000",
          "195533.445000",
          "195534.935000",
          "195536.425000",
          "195537.915000",
          "195539.405000",
          "195540.895000",
          "195542.385000",
          "195543.875000",
          "195545.365000",
          "195546.855000",
          "195548.345000",
          "195549.835000",
          "195551.325000",
          "195552.815000",
          "195554.305000",
          "195555.795000",
          "195557.285000",
          "195558.775000",
          "195600.265000",
          "195601.755000",
          "195603.245000",
          "195604.735000",
          "195606.225000",
          "195607.715000",
          "195609.205000",
          "195610.695000",
          "195612.185000",
          "195613.675000",
          "195615.165000",
          "195616.655000",
          "195618.145000",
          "195619.635000",
          "195621.125000",
          "195622.615000",
          "195624.105000",
          "195625.595000",
          "195627.085000",
          "195628.575000",
          "195630.065000",
          "195631.555000",
          "195633.045000",
          "195634.535000",
          "195636.025000",
          "195637.515000",
          "195639.005000",
          "195640.495000",
          "195641.985000",
          "195643.475000",
          "195644.965000",
          "195646.455000",
          "195647.945000",
          "195649.435000",
          "195650.925000",
          "195652.415000",
          "195653.905000",
          "195655.395000",
          "195656.885000",
          "195658.375000",
          "195659.865000",
          "195701.355000",
          "195702.845000",
          "195704.335000",
          "195705.825000",
          "195707.315000",
          "195708.805000",
          "195710.295000",
          "195711.785000",
          "195713.275000",
          "195714.765000",
          "195716.255000",
          "195717.745000",
          "195719.235000",
          "195720.725000",
          "195722.215000",
          "195723.705000",
          "195725.195000",
          "195726.685000",
          "195728.175000",
          "195729.665000",
          "195731.155000",
          "195732.645000",
          "195734.135000",
          "195735.625000",
          "195737.115000",
          "195738.605000",
          "195740.095000",
          "195741.585000",
          "195743.075000",
          "195744.565000",
          "195746.055000",
          "195747.545000",
          "195749.035000",
          "195750.525000",
          "195752.015000",
          "195753.505000",
          "195754.995000",
          "195756.485000",
          "195757.975000",
          "195759.465000",
          "195800.955000",
          "195802.445000",
          "195803.935000",
          "195805.425000",
          "195806.915000",
          "195808.405000",
          "195809.895000",
          "195811.385000",
          "195812.875000",
          "195814.365000",
          "195815.855000",
          "195817.345000",
          "195818.835000",
          "195820.325000",
          "195821.815000",
          "195823.305000",
          "195824.795000",
          "195826.285000",
          "195827.775000",
          "195829.265000",
          "195830.755000",
          "195832.245000",
          "195833.735000",
          "195835.225000",
          "195836.715000",
          "195838.205000",
          "195839.695000",
          "195841.185000",
          "195842.675000",
          "195844.165000",
          "195845.655000",
          "195847.145000",
          "195848.635000",
          "195850.125000",
          "195851.615000",
          "195853.105000",
          "195854.595000",
          "195856.085000",
          "195857.575000",
          "195859.065000",
          "195900.555000",
          "195902.045000",
          "195903.535000",
          "195905.025000",
          "195906.515000",
          "195908.005000",
          "195909.495000",
          "195910.985000",
          "195912.475000",
          "195913.965000",
          "195915.455000",
          "195916.945000",
          "195918.435000",
          "195919.925000",
          "195921.415000",
          "195922.905000",
          "195924.395000",
          "195925.885000",
          "195927.375000",
          "195928.865000",
          "195930.355000",
          "195931.845000",
          "195933.335000",
          "195934.825000",
          "195936.315000",
          "195937.805000",
          "195939.295000",
          "195940.785000",
          "195942.275000",
          "195943.765000",
          "195945.255000",
          "195946.745000",
          "195948.235000",
          "195949.725000",
          "195951.215000",
          "195952.705000",
          "195954.195000",
          "195955.685000",
          "195957.175000",
          "195958.665000",
          "200000.155000",
          "200001.645000",
          "200003.135000",
          "200004.625000",
          "200006.115000",
          "200007.605000",
          "200009.095000",
          "200010.585000",
          "200012.075000",
          "200013.565000",
          "200015.055000",
          "200016.545000",
          "200018.035000",
          "200019.525000",
          "200021.015000",
          "200022.505000",
          "200023.995000",
          "200025.485000",
          "200026.975000",
          "200028.465000",
          "200029.955000",
          "200031.445000",
          "200032.935000",
          "200034.425000",
          "200035.915000",
          "200037.405000",
          "200038.895000",
          "200040.385000",
          "200041.875000",
          "200043.365000",
          "200044.855000",
          "200046.345000",
          "200047.835000",
          "200049.325000",
          "200050.815000",
          "200052.305000",
          "200053.795000",
          "200055.285000",
          "200056.775000",
          "200058.265000",
          "200059.755000",
          "200101.245000",
          "200102.735000",
          "200104.225000",
          "200105.715000",
          "200107.205000",
          "200108.695000",
          "200110.185000",
          "200111.675000",
          "200113.165000",
          "200114.655000",
          "200116.145000",
          "200117.635000",
          "200119.125000",
          "200120.615000",
          "200122.105000",
          "200123.595000",
          "200125.085000",
          "200126.575000",
          "200128.065000",
          "200129.555000",
          "200131.045000",
          "200132.535000",
          "200134.025000",
          "200135.515000",
          "200137.005000",
          "200138.495000",
          "200139.985000",
          "200141.475000",
          "200142.965000",
          "200144.455000",
          "200145.945000",
          "200147.435000",
          "200148.925000",
          "200150.415000",
          "200151.905000",
          "200153.395000",
          "200154.885000",
          "200156.375000",
          "200157.865000",
          "200159.355000",
          "200200.845000",
          "200202.335000",
          "200203.825000",
          "200205.315000",
          "200206.805000",
          "200208.295000",
          "200209.785000",
          "200211.275000",
          "200212.765000",
          "200214.255000",
          "200215.745000",
          "200217.235000",
          "200218.725000",
          "200220.215000",
          "200221.705000",
          "200223.195000",
          "200224.685000",
          "200226.175000",
          "200227.665000",
          "200229.155000",
          "200230.645000",
          "200232.135000",
          "200233.625000",
          "200235.115000",
          "200236.605000",
          "200238.095000",
          "200239.585000",
          "200241.075000",
          "200242.565000",
          "200244.055000",
          "200245.545000",
          "200247.035000",
          "200248.525000",
          "200250.015000",
          "200251.505000",
          "200252.995000",
          "200254.485000",
          "200255.975000",
          "200257.465000",
          "200258.955000",
          "200300.445000",
          "200301.935000",
          "200303.425000",
          "200304.915000",
          "200306.405000",
          "200307.895000",
          "200309.385000",
          "200310.875000",
          "200312.365000",
          "200313.855000",
          "200315.345000",
          "200316.835000",
          "200318.325000",
          "200319.815000",
          "200321.305000",
          "200322.795000",
          "200324.285000",
          "200325.775000",
          "200327.265000",
          "200328.755000",
          "200330.245000",
          "200331.735000",
          "200333.225000",
          "200334.715000",
          "200336.205000",
          "200337.695000",
          "200339.185000",
          "200340.675000",
          "200342.165000",
          "200343.655000",
          "200345.145000",
          "200346.635000",
          "200348.125000",
          "200349.615000",
          "200351.105000",
          "200352.595000",
          "200354.085000",
          "200355.575000",
          "200357.065000",
          "200358.555000",
          "200400.045000",
          "200401.535000",
          "200403.025000",
          "200404.515000",
          "200406.005000",
          "200407.495000",
          "200408.985000",
          "200410.475000",
          "200411.965000",
          "200413.455000",
          "200414.945000",
          "200416.435000",
          "200417.925000",
          "200419.415000",
          "200420.905000"
        ],
        "ContentTime": [
          "195518.060000",
          "195518.063000",
          "195518.067000",
          "195518.070000",
          "195518.072000",
          "195518.075000",
          "195518.078000",
          "195518.081000",
          "195518.084000",
          "195518.087000",
          "195518.089000",
          "195518.092000",
          "195518.095000",
          "195518.098000",
          "195538.030000",
          "195538.033000",
          "195538.036000",
          "195538.039000",
          "195538.041000",
          "195538.044000",
          "195538.047000",
          "195538.050000",
          "195538.053000",
          "195538.056000",
          "195538.058000",
          "195538.075000",
          "195538.080000",
          "195538.083000",
          "195538.086000",
          "195538.089000",
          "195538.092000",
          "195538.094000",
          "195538.097000",
          "195538.100000",
          "195558.030000",
          "195558.033000",
          "195558.036000",
          "195558.039000",
          "195558.041000",
          "195558.044000",
          "195558.047000",
          "195558.050000",
          "195558.053000",
          "195558.056000",
          "195558.059000",
          "195558.062000",
          "195558.064000",
          "195558.067000",
          "195558.070000",
          "195558.077000",
          "195558.079000",
          "195558.082000",
          "195558.085000",
          "195558.088000",
          "195618.030000",
          "195618.033000",
          "195618.036000",
          "195618.038000",
          "195618.041000",
          "195618.044000",
          "195618.047000",
          "195618.050000",
          "195618.053000",
          "195618.055000",
          "195618.058000",
          "195618.061000",
          "195618.064000",
          "195618.067000",
          "195618.070000",
          "195618.072000",
          "195618.075000",
          "195618.078000",
          "195618.081000",
          "195618.084000",
          "195638.029000",
          "195638.032000",
          "195638.035000",
          "195638.037000",
          "195638.040000",
          "195638.043000",
          "195638.046000",
          "195638.049000",
          "195638.052000",
          "195638.055000",
          "195638.067000",
          "195638.069000",
          "195638.072000",
          "195638.075000",
          "195638.078000",
          "195638.081000",
          "195638.084000",
          "195638.086000",
          "195638.089000",
          "195638.092000",
          "195718.029000",
          "195718.032000",
          "195718.035000",
          "195718.038000",
          "195718.040000",
          "195718.043000",
          "195718.046000",
          "195718.049000",
          "195718.052000",
          "195718.055000",
          "195718.058000",
          "195718.061000",
          "195718.063000",
          "195718.067000",
          "195718.069000",
          "195718.073000",
          "195718.076000",
          "195718.080000",
          "195718.083000",
          "195718.087000",
          "195718.090000",
          "195718.092000",
          "195718.095000",
          "195718.098000",
          "195718.101000",
          "195718.104000",
          "195718.107000",
          "195718.110000",
          "195718.112000",
          "195718.115000",
          "195758.030000",
          "195758.033000",
          "195758.036000",
          "195758.039000",
          "195758.041000",
          "195758.044000",
          "195758.047000",
          "195758.050000",
          "195758.053000",
          "195758.056000",
          "195758.059000",
          "195758.062000",
          "195758.065000",
          "195758.068000",
          "195758.071000",
          "195758.074000",
          "195758.076000",
          "195758.079000",
          "195758.082000",
          "195758.085000",
          "195758.088000",
          "195758.091000",
          "195758.094000",
          "195758.097000",
          "195758.100000",
          "195758.102000",
          "195758.105000",
          "195838.030000",
          "195838.033000",
          "195838.037000",
          "195838.040000",
          "195838.042000",
          "195838.045000",
          "195838.049000",
          "195838.052000",
          "195838.054000",
          "195838.071000",
          "195838.074000",
          "195838.077000",
          "195838.080000",
          "195838.083000",
          "195838.085000",
          "195838.088000",
          "195838.091000",
          "195838.094000",
          "195838.097000",
          "195838.100000",
          "195838.103000",
          "195838.106000",
          "195838.109000",
          "195838.112000",
          "195838.114000",
          "195838.117000",
          "195838.120000",
          "195918.029000",
          "195918.032000",
          "195918.035000",
          "195918.038000",
          "195918.041000",
          "195918.044000",
          "195918.046000",
          "195918.049000",
          "195918.052000",
          "195918.055000",
          "195918.058000",
          "195918.061000",
          "195918.064000",
          "195918.067000",
          "195918.070000",
          "195918.072000",
          "195918.075000",
          "195918.078000",
          "195918.081000",
          "195918.084000",
          "195918.087000",
          "195918.090000",
          "195918.093000",
          "195918.096000",
          "195918.099000",
          "195918.101000",
          "195918.104000",
          "195958.029000",
          "195958.032000",
          "195958.035000",
          "195958.038000",
          "195958.041000",
          "195958.044000",
          "195958.047000",
          "195958.050000",
          "195958.052000",
          "195958.055000",
          "195958.058000",
          "195958.061000",
