{
  "aor": 0.0013089024390243902,
  "aqi": 0.012493062634146342,
  "bids_meta": {
    "AcquisitionMatrixPE": 104,
    "AcquisitionNumber": 1,
    "AcquisitionTime": "19:11:36.537500",
    "BandwidthPerPixelPhaseEncode": 17.17,
    "BaseResolution": 104,
    "BodyPartExamined": "BRAIN",
    "CogAtlasID": "trm_4c898da401420",
    "ConsistencyInfo": "N4_VE11C_LATEST_20160120",
    "ConversionSoftware": "dcm2niix",
    "ConversionSoftwareVersion": "v1.0.20171215 (OpenJPEG build) GCC7.3.0",
    "DerivedVendorReportedEchoSpacing": 0.000560011,
    "DeviceSerialNumber": "167006",
    "DwellTime": 2.1e-06,
    "EchoTime": 0.037,
    "EchoTrainLength": 104,
    "EffectiveEchoSpacing": 0.000560011,
    "FlipAngle": 52,
    "ImageComments": "Unaliased_MB4_PE3_LB",
    "ImageOrientationPatientDICOM": [
      0.998633,
      -0.0213416,
      -0.0477083,
      0.00209152,
      0.928417,
      -0.371535
    ],
    "ImageType": [
      "ORIGINAL",
      "PRIMARY",
      "M",
      "MB",
      "ND",
      "MOSAIC"
    ],
    "InPlanePhaseEncodingDirectionDICOM": "COL",
    "InstitutionAddress": "Chemin_Queen-Mary_4565_Montreal_District_CA_H3W_1W5",
    "InstitutionName": "IUGM",
    "InstitutionalDepartmentName": "Department",
    "MRAcquisitionType": "2D",
    "MagneticFieldStrength": 3,
    "Manufacturer": "Siemens",
    "ManufacturersModelName": "Prisma_fit",
    "Modality": "MR",
    "MultibandAccelerationFactor": 4,
    "PartialFourier": 1,
    "PatientPosition": "HFS",
    "PercentPhaseFOV": 100,
    "PhaseEncodingDirection": "j-",
    "PhaseEncodingSteps": 104,
    "PhaseResolution": 1,
    "PixelBandwidth": 2290,
    "ProcedureStepDescription": "video5_generic",
    "ProtocolName": "func_task-figures7",
    "PulseSequenceDetails": "%CustomerSeq%_cmrr_mbep2d_bold",
    "ReceiveCoilActiveElements": "HC1-7;NC1,2",
    "ReceiveCoilName": "HeadNeck_64",
    "ReconMatrixPE": 104,
    "RepetitionTime": 1.49,
    "SAR": 0.0340115,
    "ScanOptions": "FS",
    "ScanningSequence": "EP",
    "SequenceName": "epfid2d1_104",
    "SequenceVariant": "SK_SS",
    "SeriesDescription": "func_task-figures7",
    "SeriesNumber": 19,
    "ShimSetting": [
      605,
      -7214,
      -8893,
      371,
      16,
      -350,
      -23,
      46
    ],
    "SliceThickness": 2,
    "SliceTiming": [
      0,
      0.785,
      0.1,
      0.8825,
      0.1975,
      0.98,
      0.295,
      1.08,
      0.3925,
      1.1775,
      0.49,
      1.275,
      0.59,
      1.3725,
      0.6875,
      0,
      0.785,
      0.1,
      0.8825,
      0.1975,
      0.98,
      0.295,
      1.08,
      0.3925,
      1.1775,
      0.49,
      1.275,
      0.59,
      1.3725,
      0.6875,
      0,
      0.785,
      0.1,
      0.8825,
      0.1975,
      0.98,
      0.295,
      1.08,
      0.3925,
      1.1775,
      0.49,
      1.275,
      0.59,
      1.3725,
      0.6875,
      0,
      0.785,
      0.1,
      0.8825,
      0.1975,
      0.98,
      0.295,
      1.08,
      0.3925,
      1.1775,
      0.49,
      1.275,
      0.59,
      1.3725,
      0.6875
    ],
    "SoftwareVersions": "syngo_MR_E11",
    "SpacingBetweenSlices": 2,
    "StationName": "MRC35049",
    "TaskName": "figures07",
    "TotalReadoutTime": 0.0576811,
    "TxRefAmp": 234.501,
    "dataset": "<unset>",
    "dcmmeta_affine": [
      [
        -1.9972665309906006,
        0.004183049779385328,
        -0.10444459319114685,
        104.44893646240234
      ],
      [
        0.042683277279138565,
        1.8568334579467773,
        -0.741854190826416,
        -70.5096664428711
      ],
      [
        -0.09541650116443634,
        0.7430692911148071,
        1.8543850183486938,
        -86.5866928100586
      ],
      [
        0.0,
        0.0,
        0.0,
        1.0
      ]
    ],
    "dcmmeta_reorient_transform": [
      [
        0.0,
        -1.0,
        0.0,
        103.0
      ],
      [
        1.0,
        0.0,
        0.0,
        0.0
      ],
      [
        0.0,
        0.0,
        1.0,
        0.0
      ],
      [
        0.0,
        0.0,
        0.0,
        1.0
      ]
    ],
    "dcmmeta_shape": [
      104,
      104,
      60,
      410
    ],
    "dcmmeta_slice_dim": 2,
    "dcmmeta_version": 0.6,
    "global": {
      "const": {
        "AcquisitionMatrix": [
          104,
          0,
          0,
          104
        ],
        "AngioFlag": "N",
        "BitsAllocated": 16,
        "BitsStored": 16,
        "BodyPartExamined": "BRAIN",
        "Columns": 832,
        "EchoNumbers": 1,
        "EchoTime": 37.0,
        "EchoTrainLength": 104,
        "FlipAngle": 52.0,
        "HighBit": 15,
        "ImageOrientationPatient": [
          0.99863329470095,
          -0.0213416389786,
          -0.047708250444,
          0.00209152484275,
          0.92841673079815,
          -0.3715346545047
        ],
        "ImagePositionPatient": [
          -833.40746019876,
          -781.09484355084,
          295.1582834102
        ],
        "ImageType": [
          "ORIGINAL",
          "PRIMARY",
          "M",
          "MB",
          "ND",
          "MOSAIC"
        ],
        "ImagedNucleus": "1H",
        "ImagingFrequency": 123.259123,
        "InPlanePhaseEncodingDirection": "COL",
        "MRAcquisitionType": "2D",
        "MagneticFieldStrength": 3.0,
        "Manufacturer": "SIEMENS",
        "ManufacturerModelName": "Prisma_fit",
        "Modality": "MR",
        "NumberOfAverages": 1.0,
        "NumberOfPhaseEncodingSteps": 104,
        "PercentPhaseFieldOfView": 100.0,
        "PercentSampling": 100.0,
        "PerformedProcedureStepStartTime": "174559.742000",
        "PhotometricInterpretation": "MONOCHROME2",
        "PixelBandwidth": 2290.0,
        "PixelRepresentation": 0,
        "PixelSpacing": [
          2.0,
          2.0
        ],
        "ProtocolName": "func_task-figures7",
        "RepetitionTime": 1490.0,
        "Rows": 832,
        "SAR": 0.03401152448984,
        "SamplesPerPixel": 1,
        "ScanOptions": "FS",
        "ScanningSequence": "EP",
        "SequenceName": "epfid2d1_104",
        "SequenceVariant": [
          "SK",
          "SS"
        ],
        "SeriesDescription": "func_task-figures7",
        "SeriesNumber": 19,
        "SeriesTime": "191251.979000",
        "SliceLocation": -59.583145862045,
        "SliceThickness": 2.0,
        "SmallestImagePixelValue": 0,
        "SoftwareVersions": "syngo MR E11",
        "SpacingBetweenSlices": 1.9999999910603,
        "SpecificCharacterSet": "ISO_IR 100",
        "StudyID": "1",
        "StudyTime": "174559.661000",
        "TransmitCoilName": "Body",
        "VariableFlipAngleFlag": "N",
        "WindowCenterWidthExplanation": "Algo1",
        "dBdt": 0.0
      },
      "slices": {}
    },
    "modality": "bold",
    "run_id": 2,
    "session_id": "010",
    "subject_id": "05",
    "task_id": "figures07",
    "time": {
      "samples": {
        "AcquisitionNumber": [
          1,
          2,
          3,
          4,
          5,
          6,
          7,
          8,
          9,
          10,
          11,
          12,
          13,
          14,
          15,
          16,
          17,
          18,
          19,
          20,
          21,
          22,
          23,
          24,
          25,
          26,
          27,
          28,
          29,
          30,
          31,
          32,
          33,
          34,
          35,
          36,
          37,
          38,
          39,
          40,
          41,
          42,
          43,
          44,
          45,
          46,
          47,
          48,
          49,
          50,
          51,
          52,
          53,
          54,
          55,
          56,
          57,
          58,
          59,
          60,
          61,
          62,
          63,
          64,
          65,
          66,
          67,
          68,
          69,
          70,
          71,
          72,
          73,
          74,
          75,
          76,
          77,
          78,
          79,
          80,
          81,
          82,
          83,
          84,
          85,
          86,
          87,
          88,
          89,
          90,
          91,
          92,
          93,
          94,
          95,
          96,
          97,
          98,
          99,
          100,
          101,
          102,
          103,
          104,
          105,
          106,
          107,
          108,
          109,
          110,
          111,
          112,
          113,
          114,
          115,
          116,
          117,
          118,
          119,
          120,
          121,
          122,
          123,
          124,
          125,
          126,
          127,
          128,
          129,
          130,
          131,
          132,
          133,
          134,
          135,
          136,
          137,
          138,
          139,
          140,
          141,
          142,
          143,
          144,
          145,
          146,
          147,
          148,
          149,
          150,
          151,
          152,
          153,
          154,
          155,
          156,
          157,
          158,
          159,
          160,
          161,
          162,
          163,
          164,
          165,
          166,
          167,
          168,
          169,
          170,
          171,
          172,
          173,
          174,
          175,
          176,
          177,
          178,
          179,
          180,
          181,
          182,
          183,
          184,
          185,
          186,
          187,
          188,
          189,
          190,
          191,
          192,
          193,
          194,
          195,
          196,
          197,
          198,
          199,
          200,
          201,
          202,
          203,
          204,
          205,
          206,
          207,
          208,
          209,
          210,
          211,
          212,
          213,
          214,
          215,
          216,
          217,
          218,
          219,
          220,
          221,
          222,
          223,
          224,
          225,
          226,
          227,
          228,
          229,
          230,
          231,
          232,
          233,
          234,
          235,
          236,
          237,
          238,
          239,
          240,
          241,
          242,
          243,
          244,
          245,
          246,
          247,
          248,
          249,
          250,
          251,
          252,
          253,
          254,
          255,
          256,
          257,
          258,
          259,
          260,
          261,
          262,
          263,
          264,
          265,
          266,
          267,
          268,
          269,
          270,
          271,
          272,
          273,
          274,
          275,
          276,
          277,
          278,
          279,
          280,
          281,
          282,
          283,
          284,
          285,
          286,
          287,
          288,
          289,
          290,
          291,
          292,
          293,
          294,
          295,
          296,
          297,
          298,
          299,
          300,
          301,
          302,
          303,
          304,
          305,
          306,
          307,
          308,
          309,
          310,
          311,
          312,
          313,
          314,
          315,
          316,
          317,
          318,
          319,
          320,
          321,
          322,
          323,
          324,
          325,
          326,
          327,
          328,
          329,
          330,
          331,
          332,
          333,
          334,
          335,
          336,
          337,
          338,
          339,
          340,
          341,
          342,
          343,
          344,
          345,
          346,
          347,
          348,
          349,
          350,
          351,
          352,
          353,
          354,
          355,
          356,
          357,
          358,
          359,
          360,
          361,
          362,
          363,
          364,
          365,
          366,
          367,
          368,
          369,
          370,
          371,
          372,
          373,
          374,
          375,
          376,
          377,
          378,
          379,
          380,
          381,
          382,
          383,
          384,
          385,
          386,
          387,
          388,
          389,
          390,
          391,
          392,
          393,
          394,
          395,
          396,
          397,
          398,
          399,
          400,
          401,
          402,
          403,
          404,
          405,
          406,
          407,
          408,
          409,
          410
        ],
        "AcquisitionTime": [
          "191136.537500",
          "191138.027500",
          "191139.517500",
          "191141.007500",
          "191142.497500",
          "191143.987500",
          "191145.477500",
          "191146.967500",
          "191148.457500",
          "191149.947500",
          "191151.437500",
          "191152.927500",
          "191154.417500",
          "191155.907500",
          "191157.397500",
          "191158.887500",
          "191200.377500",
          "191201.867500",
          "191203.357500",
          "191204.847500",
          "191206.337500",
          "191207.827500",
          "191209.317500",
          "191210.807500",
          "191212.297500",
          "191213.787500",
          "191215.277500",
          "191216.767500",
          "191218.257500",
          "191219.747500",
          "191221.237500",
          "191222.727500",
          "191224.217500",
          "191225.707500",
          "191227.197500",
          "191228.687500",
          "191230.177500",
          "191231.667500",
          "191233.157500",
          "191234.647500",
          "191236.137500",
          "191237.627500",
          "191239.117500",
          "191240.607500",
          "191242.097500",
          "191243.587500",
          "191245.077500",
          "191246.567500",
          "191248.057500",
          "191249.547500",
          "191251.037500",
          "191252.527500",
          "191254.017500",
          "191255.507500",
          "191256.997500",
          "191258.487500",
          "191259.977500",
          "191301.467500",
          "191302.957500",
          "191304.447500",
          "191305.937500",
          "191307.427500",
          "191308.917500",
          "191310.407500",
          "191311.897500",
          "191313.387500",
          "191314.877500",
          "191316.367500",
          "191317.857500",
          "191319.347500",
          "191320.837500",
          "191322.327500",
          "191323.817500",
          "191325.307500",
          "191326.797500",
          "191328.287500",
          "191329.777500",
          "191331.267500",
          "191332.757500",
          "191334.247500",
          "191335.737500",
          "191337.227500",
          "191338.717500",
          "191340.207500",
          "191341.697500",
          "191343.187500",
          "191344.677500",
          "191346.167500",
          "191347.657500",
          "191349.147500",
          "191350.637500",
          "191352.127500",
          "191353.617500",
          "191355.107500",
          "191356.597500",
          "191358.087500",
          "191359.577500",
          "191401.067500",
          "191402.557500",
          "191404.047500",
          "191405.537500",
          "191407.027500",
          "191408.517500",
          "191410.007500",
          "191411.497500",
          "191412.987500",
          "191414.477500",
          "191415.967500",
          "191417.457500",
          "191418.947500",
          "191420.437500",
          "191421.927500",
          "191423.417500",
          "191424.907500",
          "191426.397500",
          "191427.887500",
          "191429.377500",
          "191430.867500",
          "191432.357500",
          "191433.847500",
          "191435.337500",
          "191436.827500",
          "191438.317500",
          "191439.807500",
          "191441.297500",
          "191442.787500",
          "191444.277500",
          "191445.767500",
          "191447.257500",
          "191448.747500",
          "191450.237500",
          "191451.727500",
          "191453.217500",
          "191454.707500",
          "191456.197500",
          "191457.687500",
          "191459.177500",
          "191500.667500",
          "191502.157500",
          "191503.647500",
          "191505.137500",
          "191506.627500",
          "191508.117500",
          "191509.607500",
          "191511.097500",
          "191512.587500",
          "191514.077500",
          "191515.567500",
          "191517.057500",
          "191518.547500",
          "191520.037500",
          "191521.527500",
          "191523.017500",
          "191524.507500",
          "191525.997500",
          "191527.487500",
          "191528.977500",
          "191530.467500",
          "191531.957500",
          "191533.447500",
          "191534.937500",
          "191536.427500",
          "191537.917500",
          "191539.407500",
          "191540.897500",
          "191542.387500",
          "191543.877500",
          "191545.367500",
          "191546.857500",
          "191548.347500",
          "191549.837500",
          "191551.327500",
          "191552.817500",
          "191554.307500",
          "191555.797500",
          "191557.287500",
          "191558.777500",
          "191600.267500",
          "191601.757500",
          "191603.247500",
          "191604.737500",
          "191606.227500",
          "191607.717500",
          "191609.207500",
          "191610.697500",
          "191612.187500",
          "191613.677500",
          "191615.167500",
          "191616.657500",
          "191618.147500",
          "191619.637500",
          "191621.127500",
          "191622.617500",
          "191624.107500",
          "191625.597500",
          "191627.087500",
          "191628.577500",
          "191630.067500",
          "191631.557500",
          "191633.047500",
          "191634.537500",
          "191636.027500",
          "191637.517500",
          "191639.007500",
          "191640.497500",
          "191641.987500",
          "191643.477500",
          "191644.967500",
          "191646.457500",
          "191647.947500",
          "191649.437500",
          "191650.927500",
          "191652.417500",
          "191653.907500",
          "191655.397500",
          "191656.887500",
          "191658.377500",
          "191659.867500",
          "191701.357500",
          "191702.847500",
          "191704.337500",
          "191705.827500",
          "191707.317500",
          "191708.807500",
          "191710.297500",
          "191711.787500",
          "191713.277500",
          "191714.767500",
          "191716.257500",
          "191717.747500",
          "191719.237500",
          "191720.727500",
          "191722.217500",
          "191723.707500",
          "191725.197500",
          "191726.687500",
          "191728.177500",
          "191729.667500",
          "191731.157500",
          "191732.647500",
          "191734.137500",
          "191735.627500",
          "191737.117500",
          "191738.607500",
          "191740.097500",
          "191741.587500",
          "191743.077500",
          "191744.567500",
          "191746.057500",
          "191747.547500",
          "191749.037500",
          "191750.527500",
          "191752.017500",
          "191753.507500",
          "191754.997500",
          "191756.487500",
          "191757.977500",
          "191759.467500",
          "191800.957500",
          "191802.447500",
          "191803.937500",
          "191805.427500",
          "191806.917500",
          "191808.407500",
          "191809.897500",
          "191811.387500",
          "191812.877500",
          "191814.367500",
          "191815.857500",
          "191817.347500",
          "191818.837500",
          "191820.327500",
          "191821.817500",
          "191823.307500",
          "191824.797500",
          "191826.287500",
          "191827.777500",
          "191829.267500",
          "191830.757500",
          "191832.247500",
          "191833.737500",
          "191835.227500",
          "191836.717500",
          "191838.207500",
          "191839.697500",
          "191841.187500",
          "191842.677500",
          "191844.167500",
          "191845.657500",
          "191847.147500",
          "191848.637500",
          "191850.127500",
          "191851.617500",
          "191853.107500",
          "191854.597500",
          "191856.087500",
          "191857.577500",
          "191859.067500",
          "191900.557500",
          "191902.047500",
          "191903.537500",
          "191905.027500",
          "191906.517500",
          "191908.007500",
          "191909.497500",
          "191910.987500",
          "191912.477500",
          "191913.967500",
          "191915.457500",
          "191916.947500",
          "191918.437500",
          "191919.927500",
          "191921.417500",
          "191922.907500",
          "191924.397500",
          "191925.887500",
          "191927.377500",
          "191928.867500",
          "191930.357500",
          "191931.847500",
          "191933.337500",
          "191934.827500",
          "191936.317500",
          "191937.807500",
          "191939.297500",
          "191940.787500",
          "191942.277500",
          "191943.767500",
          "191945.257500",
          "191946.747500",
          "191948.237500",
          "191949.727500",
          "191951.217500",
          "191952.707500",
          "191954.197500",
          "191955.687500",
          "191957.177500",
          "191958.667500",
          "192000.157500",
          "192001.647500",
          "192003.137500",
          "192004.627500",
          "192006.117500",
          "192007.607500",
          "192009.097500",
          "192010.587500",
          "192012.077500",
          "192013.567500",
          "192015.057500",
          "192016.547500",
          "192018.037500",
          "192019.527500",
          "192021.017500",
          "192022.507500",
          "192023.997500",
          "192025.487500",
          "192026.977500",
          "192028.467500",
          "192029.957500",
          "192031.447500",
          "192032.937500",
          "192034.427500",
          "192035.917500",
          "192037.407500",
          "192038.897500",
          "192040.387500",
          "192041.877500",
          "192043.367500",
          "192044.857500",
          "192046.347500",
          "192047.837500",
          "192049.327500",
          "192050.817500",
          "192052.307500",
          "192053.797500",
          "192055.287500",
          "192056.777500",
          "192058.267500",
          "192059.757500",
          "192101.247500",
          "192102.737500",
          "192104.227500",
          "192105.717500",
          "192107.207500",
          "192108.697500",
          "192110.187500",
          "192111.677500",
          "192113.167500",
          "192114.657500",
          "192116.147500",
          "192117.637500",
          "192119.127500",
          "192120.617500",
          "192122.107500",
          "192123.597500",
          "192125.087500",
          "192126.577500",
          "192128.067500",
          "192129.557500",
          "192131.047500",
          "192132.537500",
          "192134.027500",
          "192135.517500",
          "192137.007500",
          "192138.497500",
          "192139.987500",
          "192141.477500",
          "192142.967500",
          "192144.457500",
          "192145.947500"
        ],
        "ContentTime": [
          "191251.982000",
          "191251.985000",
          "191251.988000",
          "191251.991000",
          "191251.994000",
          "191251.997000",
          "191252.000000",
          "191252.003000",
          "191252.006000",
          "191252.009000",
          "191252.012000",
          "191252.015000",
          "191252.017000",
          "191252.020000",
          "191252.023000",
          "191252.026000",
          "191252.029000",
          "191252.032000",
          "191252.039000",
          "191252.042000",
          "191252.045000",
          "191252.048000",
          "191311.943000",
          "191311.946000",
          "191311.949000",
          "191311.952000",
          "191311.955000",
          "191311.958000",
          "191311.960000",
          "191311.963000",
          "191311.966000",
          "191311.969000",
          "191311.972000",
          "191311.975000",
          "191311.978000",
          "191311.981000",
          "191311.983000",
          "191311.986000",
          "191311.997000",
          "191312.001000",
          "191312.004000",
          "191312.007000",
          "191331.943000",
          "191331.949000",
          "191331.952000",
          "191331.955000",
          "191331.958000",
          "191331.961000",
          "191331.965000",
          "191331.968000",
          "191331.972000",
          "191331.976000",
          "191331.979000",
          "191331.982000",
          "191331.986000",
          "191331.989000",
          "191331.992000",
          "191331.995000",
          "191332.000000",
          "191332.003000",
          "191332.006000",
          "191332.009000",
          "191351.942000",
          "191351.945000",
          "191351.949000",
          "191351.952000",
          "191351.955000",
          "191351.957000",
          "191351.960000",
          "191351.963000",
          "191351.966000",
          "191351.969000",
          "191351.972000",
          "191351.975000",
          "191351.978000",
          "191351.980000",
          "191351.983000",
          "191351.986000",
          "191351.989000",
          "191351.992000",
          "191351.995000",
          "191351.998000",
          "191352.001000",
          "191411.942000",
          "191411.945000",
          "191411.948000",
          "191411.951000",
          "191411.953000",
          "191411.956000",
          "191411.959000",
          "191411.962000",
          "191411.965000",
          "191411.968000",
          "191411.970000",
          "191411.973000",
          "191411.976000",
          "191411.979000",
          "191411.982000",
          "191411.985000",
          "191411.987000",
          "191411.990000",
          "191411.993000",
          "191411.996000",
          "191451.943000",
          "191451.946000",
          "191451.949000",
          "191451.952000",
          "191451.954000",
          "191451.957000",
          "191451.960000",
          "191451.963000",
          "191451.966000",
          "191451.969000",
          "191451.972000",
          "191451.974000",
          "191451.978000",
          "191451.981000",
          "191451.984000",
          "191451.986000",
          "191451.989000",
          "191451.992000",
          "191451.995000",
          "191451.998000",
          "191452.002000",
          "191452.005000",
          "191452.007000",
          "191452.010000",
          "191452.013000",
          "191452.022000",
          "191452.025000",
          "191452.028000",
          "191531.943000",
          "191531.946000",
          "191531.949000",
          "191531.952000",
          "191531.955000",
          "191531.957000",
          "191531.960000",
          "191531.963000",
          "191531.966000",
          "191531.969000",
          "191531.972000",
          "191531.974000",
          "191531.977000",
          "191531.980000",
          "191531.984000",
          "191531.987000",
          "191531.990000",
          "191531.993000",
          "191531.996000",
          "191532.000000",
          "191532.003000",
          "191532.006000",
          "191532.009000",
          "191532.012000",
          "191532.014000",
          "191532.017000",
          "191611.942000",
          "191611.945000",
          "191611.948000",
          "191611.951000",
          "191611.954000",
          "191611.956000",
          "191611.959000",
          "191611.962000",
          "191611.965000",
          "191611.968000",
          "191611.971000",
          "191611.973000",
          "191611.976000",
          "191611.979000",
          "191611.982000",
          "191611.985000",
          "191611.988000",
          "191611.991000",
          "191611.994000",
          "191611.996000",
          "191612.000000",
          "191612.003000",
          "191612.006000",
          "191612.009000",
          "191612.012000",
          "191612.015000",
          "191612.018000",
          "191651.942000",
          "191651.945000",
          "191651.949000",
          "191651.952000",
          "191651.955000",
          "191651.958000",
          "191651.962000",
          "191651.965000",
          "191651.968000",
          "191651.971000",
          "191651.975000",
          "191651.978000",
          "191651.981000",
          "191651.984000",
          "191651.988000",
          "191651.991000",
          "191651.994000",
          "191651.997000",
          "191652.002000",
          "191652.005000",
          "191652.008000",
          "191652.012000",
          "191652.015000",
          "191652.018000",
          "191652.021000",
          "191652.024000",
          "191652.027000",
          "191731.943000",
          "191731.946000",
          "191731.949000",
          "191731.952000",
          "191731.954000",
          "191731.957000",
