{
  "aor": 0.0005250859950859952,
  "aqi": 0.0062253912285012295,
  "bids_meta": {
    "AcquisitionMatrixPE": 104,
    "AcquisitionNumber": 1,
    "AcquisitionTime": "12:14:33.240000",
    "BandwidthPerPixelPhaseEncode": 17.17,
    "BaseResolution": 104,
    "BodyPartExamined": "BRAIN",
    "CogAtlasID": "trm_4c898da401420",
    "CoilString": "HC1-7;NC1_2",
    "ConsistencyInfo": "N4_VE11C_LATEST_20160120",
    "ConversionSoftware": "dcm2niix",
    "ConversionSoftwareVersion": "v1.0.20190720  (JP2:OpenJPEG) GCC7.3.0",
    "DerivedVendorReportedEchoSpacing": 0.000560011,
    "DeviceSerialNumber": "167006",
    "DwellTime": 2.1e-06,
    "EchoTime": 0.037,
    "EchoTrainLength": 104,
    "EffectiveEchoSpacing": 0.000560011,
    "FlipAngle": 52,
    "ImageComments": "Unaliased_MB4_PE3_LB",
    "ImageOrientationPatientDICOM": [
      0.996803,
      0.0454616,
      -0.065702,
      -0.0527636,
      0.992072,
      -0.114057
    ],
    "ImageType": [
      "ORIGINAL",
      "PRIMARY",
      "M",
      "MB",
      "ND",
      "MOSAIC"
    ],
    "ImagingFrequency": 123.259,
    "InPlanePhaseEncodingDirectionDICOM": "COL",
    "InstitutionAddress": "Chemin_Queen-Mary_4565_Montreal_District_CA_H3W_1W5",
    "InstitutionName": "IUGM",
    "InstitutionalDepartmentName": "Department",
    "MRAcquisitionType": "2D",
    "MagneticFieldStrength": 3,
    "Manufacturer": "Siemens",
    "ManufacturersModelName": "Prisma_fit",
    "Modality": "MR",
    "MultibandAccelerationFactor": 4,
    "PartialFourier": 1,
    "PatientPosition": "HFS",
    "PercentPhaseFOV": 100,
    "PhaseEncodingDirection": "j-",
    "PhaseEncodingSteps": 104,
    "PhaseResolution": 1,
    "PixelBandwidth": 2290,
    "ProcedureStepDescription": "video5_generic",
    "ProtocolName": "func_task-figures10",
    "PulseSequenceDetails": "%CustomerSeq%_cmrr_mbep2d_bold",
    "ReceiveCoilActiveElements": "HC1-7;NC1,2",
    "ReceiveCoilName": "HeadNeck_64",
    "ReconMatrixPE": 104,
    "RepetitionTime": 1.49,
    "SAR": 0.0310686,
    "ScanOptions": "FS",
    "ScanningSequence": "EP",
    "SequenceName": "epfid2d1_104",
    "SequenceVariant": "SK_SS",
    "SeriesDescription": "func_task-figures10",
    "SeriesNumber": 15,
    "ShimSetting": [
      601,
      -7239,
      -8858,
      596,
      -33,
      -261,
      47,
      41
    ],
    "SliceThickness": 2,
    "SliceTiming": [
      0,
      0.785,
      0.1,
      0.8825,
      0.1975,
      0.98,
      0.295,
      1.08,
      0.3925,
      1.1775,
      0.49,
      1.275,
      0.59,
      1.3725,
      0.6875,
      0,
      0.785,
      0.1,
      0.8825,
      0.1975,
      0.98,
      0.295,
      1.08,
      0.3925,
      1.1775,
      0.49,
      1.275,
      0.59,
      1.3725,
      0.6875,
      0,
      0.785,
      0.1,
      0.8825,
      0.1975,
      0.98,
      0.295,
      1.08,
      0.3925,
      1.1775,
      0.49,
      1.275,
      0.59,
      1.3725,
      0.6875,
      0,
      0.785,
      0.1,
      0.8825,
      0.1975,
      0.98,
      0.295,
      1.08,
      0.3925,
      1.1775,
      0.49,
      1.275,
      0.59,
      1.3725,
      0.6875
    ],
    "SoftwareVersions": "syngo_MR_E11",
    "SpacingBetweenSlices": 2,
    "StationName": "MRC35049",
    "TaskName": "figures10",
    "TotalReadoutTime": 0.0576811,
    "TxRefAmp": 216.268,
    "WipMemBlock": "92a2969c-f04f-4b54-a71f-f80c414d94f9||Sequence: R016 ve11c/master r/e634e98; Dec 19 2017 11:00:25 by eja",
    "dataset": "<unset>",
    "dcmmeta_affine": [
      [
        -1.9936062097549438,
        -0.10552723705768585,
        -0.11999192088842392,
        110.6579360961914
      ],
      [
        -0.09092318266630173,
        1.9841442108154297,
        -0.2343176007270813,
        -82.63350677490234
      ],
      [
        -0.1314040720462799,
        0.22811348736286163,
        1.9825986623764038,
        -48.725345611572266
      ],
      [
        0.0,
        0.0,
        0.0,
        1.0
      ]
    ],
    "dcmmeta_reorient_transform": [
      [
        0.0,
        -1.0,
        0.0,
        103.0
      ],
      [
        1.0,
        0.0,
        0.0,
        0.0
      ],
      [
        0.0,
        0.0,
        1.0,
        0.0
      ],
      [
        0.0,
        0.0,
        0.0,
        1.0
      ]
    ],
    "dcmmeta_shape": [
      104,
      104,
      60,
      409
    ],
    "dcmmeta_slice_dim": 2,
    "dcmmeta_version": 0.6,
    "global": {
      "const": {
        "AcquisitionMatrix": [
          104,
          0,
          0,
          104
        ],
        "AngioFlag": "N",
        "BitsAllocated": 16,
        "BitsStored": 16,
        "BodyPartExamined": "BRAIN",
        "Columns": 832,
        "EchoNumbers": 1,
        "EchoTime": 37.0,
        "EchoTrainLength": 104,
        "FlipAngle": 52.0,
        "HighBit": 15,
        "ImageOrientationPatient": [
          0.99680313288554,
          0.0454615931663,
          -0.0657020381446,
          -0.0527636172917,
          0.9920721039948,
          -0.1140567453754
        ],
        "ImagePositionPatient": [
          -787.04940153499,
          -877.05787574446,
          105.63473971237
        ],
        "ImageType": [
          "ORIGINAL",
          "PRIMARY",
          "M",
          "MB",
          "ND",
          "MOSAIC"
        ],
        "ImagedNucleus": "1H",
        "ImagingFrequency": 123.259156,
        "InPlanePhaseEncodingDirection": "COL",
        "MRAcquisitionType": "2D",
        "MagneticFieldStrength": 3.0,
        "Manufacturer": "SIEMENS",
        "ManufacturerModelName": "Prisma_fit",
        "Modality": "MR",
        "NumberOfAverages": 1.0,
        "NumberOfPhaseEncodingSteps": 104,
        "PercentPhaseFieldOfView": 100.0,
        "PercentSampling": 100.0,
        "PerformedProcedureStepStartTime": "113652.581000",
        "PhotometricInterpretation": "MONOCHROME2",
        "PixelBandwidth": 2290.0,
        "PixelRepresentation": 0,
        "PixelSpacing": [
          2.0,
          2.0
        ],
        "ProtocolName": "func_task-figures10",
        "RepetitionTime": 1490.0,
        "Rows": 832,
        "SAR": 0.03106864947648,
        "SamplesPerPixel": 1,
        "ScanOptions": "FS",
        "ScanningSequence": "EP",
        "SequenceName": "epfid2d1_104",
        "SequenceVariant": [
          "SK",
          "SS"
        ],
        "SeriesDescription": "func_task-figures10",
        "SeriesNumber": 15,
        "SeriesTime": "121543.233000",
        "SliceLocation": -45.259186032826,
        "SliceThickness": 2.0,
        "SmallestImagePixelValue": 0,
        "SoftwareVersions": "syngo MR E11",
        "SpacingBetweenSlices": 2.0000000460596,
        "SpecificCharacterSet": "ISO_IR 100",
        "StudyID": "1",
        "StudyTime": "113652.474000",
        "TransmitCoilName": "Body",
        "VariableFlipAngleFlag": "N",
        "WindowCenterWidthExplanation": "Algo1",
        "dBdt": 0.0
      },
      "slices": {}
    },
    "modality": "bold",
    "run_id": 1,
    "session_id": "006",
    "subject_id": "04",
    "task_id": "figures10",
    "time": {
      "samples": {
        "AcquisitionNumber": [
          1,
          2,
          3,
          4,
          5,
          6,
          7,
          8,
          9,
          10,
          11,
          12,
          13,
          14,
          15,
          16,
          17,
          18,
          19,
          20,
          21,
          22,
          23,
          24,
          25,
          26,
          27,
          28,
          29,
          30,
          31,
          32,
          33,
          34,
          35,
          36,
          37,
          38,
          39,
          40,
          41,
          42,
          43,
          44,
          45,
          46,
          47,
          48,
          49,
          50,
          51,
          52,
          53,
          54,
          55,
          56,
          57,
          58,
          59,
          60,
          61,
          62,
          63,
          64,
          65,
          66,
          67,
          68,
          69,
          70,
          71,
          72,
          73,
          74,
          75,
          76,
          77,
          78,
          79,
          80,
          81,
          82,
          83,
          84,
          85,
          86,
          87,
          88,
          89,
          90,
          91,
          92,
          93,
          94,
          95,
          96,
          97,
          98,
          99,
          100,
          101,
          102,
          103,
          104,
          105,
          106,
          107,
          108,
          109,
          110,
          111,
          112,
          113,
          114,
          115,
          116,
          117,
          118,
          119,
          120,
          121,
          122,
          123,
          124,
          125,
          126,
          127,
          128,
          129,
          130,
          131,
          132,
          133,
          134,
          135,
          136,
          137,
          138,
          139,
          140,
          141,
          142,
          143,
          144,
          145,
          146,
          147,
          148,
          149,
          150,
          151,
          152,
          153,
          154,
          155,
          156,
          157,
          158,
          159,
          160,
          161,
          162,
          163,
          164,
          165,
          166,
          167,
          168,
          169,
          170,
          171,
          172,
          173,
          174,
          175,
          176,
          177,
          178,
          179,
          180,
          181,
          182,
          183,
          184,
          185,
          186,
          187,
          188,
          189,
          190,
          191,
          192,
          193,
          194,
          195,
          196,
          197,
          198,
          199,
          200,
          201,
          202,
          203,
          204,
          205,
          206,
          207,
          208,
          209,
          210,
          211,
          212,
          213,
          214,
          215,
          216,
          217,
          218,
          219,
          220,
          221,
          222,
          223,
          224,
          225,
          226,
          227,
          228,
          229,
          230,
          231,
          232,
          233,
          234,
          235,
          236,
          237,
          238,
          239,
          240,
          241,
          242,
          243,
          244,
          245,
          246,
          247,
          248,
          249,
          250,
          251,
          252,
          253,
          254,
          255,
          256,
          257,
          258,
          259,
          260,
          261,
          262,
          263,
          264,
          265,
          266,
          267,
          268,
          269,
          270,
          271,
          272,
          273,
          274,
          275,
          276,
          277,
          278,
          279,
          280,
          281,
          282,
          283,
          284,
          285,
          286,
          287,
          288,
          289,
          290,
          291,
          292,
          293,
          294,
          295,
          296,
          297,
          298,
          299,
          300,
          301,
          302,
          303,
          304,
          305,
          306,
          307,
          308,
          309,
          310,
          311,
          312,
          313,
          314,
          315,
          316,
          317,
          318,
          319,
          320,
          321,
          322,
          323,
          324,
          325,
          326,
          327,
          328,
          329,
          330,
          331,
          332,
          333,
          334,
          335,
          336,
          337,
          338,
          339,
          340,
          341,
          342,
          343,
          344,
          345,
          346,
          347,
          348,
          349,
          350,
          351,
          352,
          353,
          354,
          355,
          356,
          357,
          358,
          359,
          360,
          361,
          362,
          363,
          364,
          365,
          366,
          367,
          368,
          369,
          370,
          371,
          372,
          373,
          374,
          375,
          376,
          377,
          378,
          379,
          380,
          381,
          382,
          383,
          384,
          385,
          386,
          387,
          388,
          389,
          390,
          391,
          392,
          393,
          394,
          395,
          396,
          397,
          398,
          399,
          400,
          401,
          402,
          403,
          404,
          405,
          406,
          407,
          408,
          409
        ],
        "AcquisitionTime": [
          "121433.240000",
          "121434.730000",
          "121436.220000",
          "121437.710000",
          "121439.200000",
          "121440.690000",
          "121442.180000",
          "121443.670000",
          "121445.160000",
          "121446.650000",
          "121448.140000",
          "121449.630000",
          "121451.120000",
          "121452.610000",
          "121454.100000",
          "121455.590000",
          "121457.080000",
          "121458.570000",
          "121500.060000",
          "121501.550000",
          "121503.040000",
          "121504.530000",
          "121506.020000",
          "121507.510000",
          "121509.000000",
          "121510.490000",
          "121511.980000",
          "121513.470000",
          "121514.960000",
          "121516.450000",
          "121517.940000",
          "121519.430000",
          "121520.920000",
          "121522.410000",
          "121523.900000",
          "121525.390000",
          "121526.880000",
          "121528.370000",
          "121529.860000",
          "121531.350000",
          "121532.840000",
          "121534.330000",
          "121535.820000",
          "121537.310000",
          "121538.800000",
          "121540.290000",
          "121541.780000",
          "121543.270000",
          "121544.760000",
          "121546.250000",
          "121547.740000",
          "121549.230000",
          "121550.720000",
          "121552.210000",
          "121553.700000",
          "121555.190000",
          "121556.680000",
          "121558.170000",
          "121559.660000",
          "121601.150000",
          "121602.640000",
          "121604.130000",
          "121605.620000",
          "121607.110000",
          "121608.600000",
          "121610.090000",
          "121611.580000",
          "121613.070000",
          "121614.560000",
          "121616.050000",
          "121617.540000",
          "121619.030000",
          "121620.520000",
          "121622.010000",
          "121623.500000",
          "121624.990000",
          "121626.480000",
          "121627.970000",
          "121629.460000",
          "121630.950000",
          "121632.440000",
          "121633.930000",
          "121635.420000",
          "121636.910000",
          "121638.400000",
          "121639.890000",
          "121641.380000",
          "121642.870000",
          "121644.360000",
          "121645.850000",
          "121647.340000",
          "121648.830000",
          "121650.320000",
          "121651.810000",
          "121653.300000",
          "121654.790000",
          "121656.280000",
          "121657.770000",
          "121659.260000",
          "121700.750000",
          "121702.240000",
          "121703.730000",
          "121705.220000",
          "121706.710000",
          "121708.200000",
          "121709.690000",
          "121711.180000",
          "121712.670000",
          "121714.160000",
          "121715.650000",
          "121717.140000",
          "121718.630000",
          "121720.120000",
          "121721.610000",
          "121723.100000",
          "121724.590000",
          "121726.080000",
          "121727.570000",
          "121729.060000",
          "121730.550000",
          "121732.040000",
          "121733.530000",
          "121735.020000",
          "121736.510000",
          "121738.000000",
          "121739.490000",
          "121740.980000",
          "121742.470000",
          "121743.960000",
          "121745.450000",
          "121746.940000",
          "121748.430000",
          "121749.920000",
          "121751.410000",
          "121752.900000",
          "121754.390000",
          "121755.880000",
          "121757.370000",
          "121758.860000",
          "121800.350000",
          "121801.840000",
          "121803.330000",
          "121804.820000",
          "121806.310000",
          "121807.800000",
          "121809.290000",
          "121810.780000",
          "121812.270000",
          "121813.760000",
          "121815.250000",
          "121816.740000",
          "121818.230000",
          "121819.720000",
          "121821.210000",
          "121822.700000",
          "121824.190000",
          "121825.680000",
          "121827.170000",
          "121828.660000",
          "121830.150000",
          "121831.640000",
          "121833.130000",
          "121834.620000",
          "121836.110000",
          "121837.600000",
          "121839.090000",
          "121840.580000",
          "121842.070000",
          "121843.560000",
          "121845.050000",
          "121846.540000",
          "121848.030000",
          "121849.520000",
          "121851.010000",
          "121852.500000",
          "121853.990000",
          "121855.480000",
          "121856.970000",
          "121858.460000",
          "121859.950000",
          "121901.440000",
          "121902.930000",
          "121904.420000",
          "121905.910000",
          "121907.400000",
          "121908.890000",
          "121910.380000",
          "121911.870000",
          "121913.360000",
          "121914.850000",
          "121916.340000",
          "121917.830000",
          "121919.320000",
          "121920.810000",
          "121922.300000",
          "121923.790000",
          "121925.280000",
          "121926.770000",
          "121928.260000",
          "121929.750000",
          "121931.240000",
          "121932.730000",
          "121934.220000",
          "121935.710000",
          "121937.200000",
          "121938.690000",
          "121940.180000",
          "121941.670000",
          "121943.160000",
          "121944.650000",
          "121946.140000",
          "121947.630000",
          "121949.120000",
          "121950.610000",
          "121952.100000",
          "121953.590000",
          "121955.080000",
          "121956.570000",
          "121958.060000",
          "121959.550000",
          "122001.040000",
          "122002.530000",
          "122004.020000",
          "122005.510000",
          "122007.000000",
          "122008.490000",
          "122009.980000",
          "122011.470000",
          "122012.960000",
          "122014.450000",
          "122015.940000",
          "122017.430000",
          "122018.920000",
          "122020.410000",
          "122021.900000",
          "122023.390000",
          "122024.880000",
          "122026.370000",
          "122027.860000",
          "122029.350000",
          "122030.840000",
          "122032.330000",
          "122033.820000",
          "122035.310000",
          "122036.800000",
          "122038.290000",
          "122039.780000",
          "122041.270000",
          "122042.760000",
          "122044.250000",
          "122045.740000",
          "122047.230000",
          "122048.720000",
          "122050.210000",
          "122051.700000",
          "122053.190000",
          "122054.680000",
          "122056.170000",
          "122057.660000",
          "122059.150000",
          "122100.640000",
          "122102.130000",
          "122103.620000",
          "122105.110000",
          "122106.600000",
          "122108.090000",
          "122109.580000",
          "122111.070000",
          "122112.560000",
          "122114.050000",
          "122115.540000",
          "122117.030000",
          "122118.520000",
          "122120.010000",
          "122121.500000",
          "122122.990000",
          "122124.480000",
          "122125.970000",
          "122127.460000",
          "122128.950000",
          "122130.440000",
          "122131.930000",
          "122133.420000",
          "122134.910000",
          "122136.400000",
          "122137.890000",
          "122139.380000",
          "122140.870000",
          "122142.360000",
          "122143.850000",
          "122145.340000",
          "122146.830000",
          "122148.320000",
          "122149.810000",
          "122151.300000",
          "122152.790000",
          "122154.280000",
          "122155.770000",
          "122157.260000",
          "122158.750000",
          "122200.240000",
          "122201.730000",
          "122203.220000",
          "122204.710000",
          "122206.200000",
          "122207.690000",
          "122209.180000",
          "122210.670000",
          "122212.160000",
          "122213.650000",
          "122215.140000",
          "122216.630000",
          "122218.120000",
          "122219.610000",
          "122221.100000",
          "122222.590000",
          "122224.080000",
          "122225.570000",
          "122227.060000",
          "122228.550000",
          "122230.040000",
          "122231.530000",
          "122233.020000",
          "122234.510000",
          "122236.000000",
          "122237.490000",
          "122238.980000",
          "122240.470000",
          "122241.960000",
          "122243.450000",
          "122244.940000",
          "122246.430000",
          "122247.920000",
          "122249.410000",
          "122250.900000",
          "122252.390000",
          "122253.880000",
          "122255.370000",
          "122256.860000",
          "122258.350000",
          "122259.840000",
          "122301.330000",
          "122302.820000",
          "122304.310000",
          "122305.800000",
          "122307.290000",
          "122308.780000",
          "122310.270000",
          "122311.760000",
          "122313.250000",
          "122314.740000",
          "122316.230000",
          "122317.720000",
          "122319.210000",
          "122320.700000",
          "122322.190000",
          "122323.680000",
          "122325.170000",
          "122326.660000",
          "122328.150000",
          "122329.640000",
          "122331.130000",
          "122332.620000",
          "122334.110000",
          "122335.600000",
          "122337.090000",
          "122338.580000",
          "122340.070000",
          "122341.560000",
          "122343.050000",
          "122344.540000",
          "122346.030000",
          "122347.520000",
          "122349.010000",
          "122350.500000",
          "122351.990000",
          "122353.480000",
          "122354.970000",
          "122356.460000",
          "122357.950000",
          "122359.440000",
          "122400.930000",
          "122402.420000",
          "122403.910000",
          "122405.400000",
          "122406.890000",
          "122408.380000",
          "122409.870000",
          "122411.360000",
          "122412.850000",
          "122414.340000",
          "122415.830000",
          "122417.320000",
          "122418.810000",
          "122420.300000",
          "122421.790000",
          "122423.280000",
          "122424.770000",
          "122426.260000",
          "122427.750000",
          "122429.240000",
          "122430.730000",
          "122432.220000",
          "122433.710000",
          "122435.200000",
          "122436.690000",
          "122438.180000",
          "122439.670000",
          "122441.160000"
        ],
        "ContentTime": [
          "121543.236000",
          "121543.239000",
          "121543.246000",
          "121543.249000",
          "121543.252000",
          "121543.255000",
          "121543.258000",
          "121543.261000",
          "121543.264000",
          "121543.267000",
          "121543.269000",
          "121543.275000",
          "121543.278000",
          "121543.281000",
          "121543.284000",
          "121543.287000",
          "121603.185000",
          "121603.195000",
          "121603.198000",
          "121603.201000",
          "121603.203000",
          "121603.206000",
          "121603.209000",
          "121603.212000",
          "121603.215000",
          "121603.218000",
          "121603.221000",
          "121603.223000",
          "121603.226000",
          "121603.229000",
          "121603.232000",
          "121603.235000",
          "121603.238000",
          "121603.241000",
          "121603.244000",
          "121603.246000",
          "121623.185000",
          "121623.188000",
          "121623.191000",
          "121623.194000",
          "121623.197000",
          "121623.200000",
          "121623.203000",
          "121623.206000",
          "121623.209000",
          "121623.212000",
          "121623.215000",
          "121623.218000",
          "121623.221000",
          "121623.224000",
          "121623.246000",
          "121623.250000",
          "121623.252000",
          "121623.255000",
          "121623.258000",
          "121623.261000",
          "121643.186000",
          "121643.189000",
          "121643.192000",
          "121643.195000",
          "121643.198000",
          "121643.201000",
          "121643.203000",
          "121643.206000",
          "121643.210000",
          "121643.213000",
          "121643.216000",
          "121643.219000",
          "121643.222000",
          "121643.225000",
          "121643.227000",
          "121643.230000",
          "121643.233000",
          "121643.236000",
          "121643.239000",
          "121643.242000",
          "121643.244000",
          "121703.185000",
          "121703.188000",
          "121703.191000",
          "121703.194000",
          "121703.197000",
          "121703.199000",
          "121703.203000",
          "121703.205000",
          "121703.208000",
          "121703.211000",
          "121703.214000",
          "121703.217000",
          "121703.220000",
          "121703.222000",
          "121703.225000",
          "121703.228000",
          "121703.231000",
          "121703.234000",
          "121703.237000",
          "121703.240000",
          "121743.185000",
          "121743.188000",
          "121743.191000",
          "121743.194000",
          "121743.197000",
          "121743.200000",
          "121743.203000",
          "121743.206000",
          "121743.208000",
          "121743.211000",
          "121743.215000",
          "121743.217000",
          "121743.220000",
          "121743.223000",
          "121743.226000",
          "121743.233000",
          "121743.236000",
          "121743.239000",
          "121743.242000",
          "121743.245000",
          "121743.247000",
          "121743.250000",
          "121743.253000",
          "121743.256000",
          "121743.259000",
          "121743.262000",
          "121743.265000",
          "121743.268000",
          "121743.270000",
          "121743.283000",
          "121823.185000",
          "121823.188000",
          "121823.191000",
          "121823.194000",
          "121823.197000",
          "121823.200000",
          "121823.203000",
          "121823.206000",
          "121823.209000",
          "121823.211000",
          "121823.214000",
          "121823.217000",
          "121823.229000",
          "121823.231000",
          "121823.234000",
          "121823.237000",
          "121823.240000",
          "121823.243000",
          "121823.246000",
          "121823.249000",
          "121823.252000",
          "121823.254000",
          "121823.257000",
          "121823.260000",
          "121823.263000",
          "121823.266000",
          "121823.269000",
          "121903.186000",
          "121903.189000",
          "121903.192000",
          "121903.205000",
          "121903.208000",
          "121903.210000",
          "121903.213000",
          "121903.216000",
          "121903.219000",
          "121903.222000",
          "121903.225000",
          "121903.228000",
          "121903.231000",
          "121903.234000",
          "121903.236000",
          "121903.255000",
          "121903.258000",
          "121903.261000",
          "121903.263000",
          "121903.269000",
          "121903.272000",
          "121903.275000",
          "121903.278000",
          "121903.281000",
          "121903.284000",
          "121903.286000",
          "121943.185000",
          "121943.188000",
          "121943.191000",
          "121943.194000",
          "121943.197000",
          "121943.200000",
          "121943.203000",
          "121943.206000",
          "121943.209000",
          "121943.211000",
          "121943.214000",
          "121943.217000",
          "121943.220000",
          "121943.223000",
          "121943.226000",
          "121943.229000",
          "121943.232000",
          "121943.235000",
          "121943.237000",
          "121943.240000",
          "121943.243000",
          "121943.247000",
          "121943.250000",
          "121943.253000",
          "121943.255000",
          "121943.258000",
          "121943.261000",
          "122023.185000",
          "122023.188000",
          "122023.191000",
          "122023.194000",
