{
  "aor": 0.0003649388753056235,
  "aqi": 0.005339699364303179,
  "bids_meta": {
    "AcquisitionMatrixPE": 104,
    "AcquisitionNumber": 1,
    "AcquisitionTime": "12:03:58.912500",
    "BandwidthPerPixelPhaseEncode": 17.17,
    "BaseResolution": 104,
    "BodyPartExamined": "BRAIN",
    "CogAtlasID": "trm_4c898da401420",
    "CoilString": "HC1-7;NC1_2",
    "ConsistencyInfo": "N4_VE11C_LATEST_20160120",
    "ConversionSoftware": "dcm2niix",
    "ConversionSoftwareVersion": "v1.0.20190720  (JP2:OpenJPEG) GCC7.3.0",
    "DerivedVendorReportedEchoSpacing": 0.000560011,
    "DeviceSerialNumber": "167006",
    "DwellTime": 2.1e-06,
    "EchoTime": 0.037,
    "EchoTrainLength": 104,
    "EffectiveEchoSpacing": 0.000560011,
    "FlipAngle": 52,
    "ImageComments": "Unaliased_MB4_PE3_LB",
    "ImageOrientationPatientDICOM": [
      0.996803,
      0.0454616,
      -0.065702,
      -0.0527636,
      0.992072,
      -0.114057
    ],
    "ImageType": [
      "ORIGINAL",
      "PRIMARY",
      "M",
      "MB",
      "ND",
      "MOSAIC"
    ],
    "ImagingFrequency": 123.259,
    "InPlanePhaseEncodingDirectionDICOM": "COL",
    "InstitutionAddress": "Chemin_Queen-Mary_4565_Montreal_District_CA_H3W_1W5",
    "InstitutionName": "IUGM",
    "InstitutionalDepartmentName": "Department",
    "MRAcquisitionType": "2D",
    "MagneticFieldStrength": 3,
    "Manufacturer": "Siemens",
    "ManufacturersModelName": "Prisma_fit",
    "Modality": "MR",
    "MultibandAccelerationFactor": 4,
    "PartialFourier": 1,
    "PatientPosition": "HFS",
    "PercentPhaseFOV": 100,
    "PhaseEncodingDirection": "j-",
    "PhaseEncodingSteps": 104,
    "PhaseResolution": 1,
    "PixelBandwidth": 2290,
    "ProcedureStepDescription": "video5_generic",
    "ProtocolName": "func_task-figures09",
    "PulseSequenceDetails": "%CustomerSeq%_cmrr_mbep2d_bold",
    "ReceiveCoilActiveElements": "HC1-7;NC1,2",
    "ReceiveCoilName": "HeadNeck_64",
    "ReconMatrixPE": 104,
    "RepetitionTime": 1.49,
    "SAR": 0.031069,
    "ScanOptions": "FS",
    "ScanningSequence": "EP",
    "SequenceName": "epfid2d1_104",
    "SequenceVariant": "SK_SS",
    "SeriesDescription": "func_task-figures09",
    "SeriesNumber": 13,
    "ShimSetting": [
      601,
      -7239,
      -8858,
      596,
      -33,
      -261,
      47,
      41
    ],
    "SliceThickness": 2,
    "SliceTiming": [
      0,
      0.7825,
      0.0975,
      0.8825,
      0.195,
      0.98,
      0.2925,
      1.0775,
      0.3925,
      1.175,
      0.49,
      1.2725,
      0.5875,
      1.3725,
      0.685,
      0,
      0.7825,
      0.0975,
      0.8825,
      0.195,
      0.98,
      0.2925,
      1.0775,
      0.3925,
      1.175,
      0.49,
      1.2725,
      0.5875,
      1.3725,
      0.685,
      0,
      0.7825,
      0.0975,
      0.8825,
      0.195,
      0.98,
      0.2925,
      1.0775,
      0.3925,
      1.175,
      0.49,
      1.2725,
      0.5875,
      1.3725,
      0.685,
      0,
      0.7825,
      0.0975,
      0.8825,
      0.195,
      0.98,
      0.2925,
      1.0775,
      0.3925,
      1.175,
      0.49,
      1.2725,
      0.5875,
      1.3725,
      0.685
    ],
    "SoftwareVersions": "syngo_MR_E11",
    "SpacingBetweenSlices": 2,
    "StationName": "MRC35049",
    "TaskName": "figures09",
    "TotalReadoutTime": 0.0576811,
    "TxRefAmp": 216.268,
    "WipMemBlock": "a7aef284-d8ea-4286-86e1-f52769e95dfe||Sequence: R016 ve11c/master r/e634e98; Dec 19 2017 11:00:25 by eja",
    "dataset": "<unset>",
    "dcmmeta_affine": [
      [
        -1.9936062097549438,
        -0.10552723705768585,
        -0.11999192088842392,
        110.6579360961914
      ],
      [
        -0.09092318266630173,
        1.9841442108154297,
        -0.2343176007270813,
        -82.63350677490234
      ],
      [
        -0.1314040720462799,
        0.22811348736286163,
        1.9825986623764038,
        -48.725345611572266
      ],
      [
        0.0,
        0.0,
        0.0,
        1.0
      ]
    ],
    "dcmmeta_reorient_transform": [
      [
        0.0,
        -1.0,
        0.0,
        103.0
      ],
      [
        1.0,
        0.0,
        0.0,
        0.0
      ],
      [
        0.0,
        0.0,
        1.0,
        0.0
      ],
      [
        0.0,
        0.0,
        0.0,
        1.0
      ]
    ],
    "dcmmeta_shape": [
      104,
      104,
      60,
      410
    ],
    "dcmmeta_slice_dim": 2,
    "dcmmeta_version": 0.6,
    "global": {
      "const": {
        "AcquisitionMatrix": [
          104,
          0,
          0,
          104
        ],
        "AngioFlag": "N",
        "BitsAllocated": 16,
        "BitsStored": 16,
        "BodyPartExamined": "BRAIN",
        "Columns": 832,
        "EchoNumbers": 1,
        "EchoTime": 37.0,
        "EchoTrainLength": 104,
        "FlipAngle": 52.0,
        "HighBit": 15,
        "ImageOrientationPatient": [
          0.99680313288554,
          0.0454615931663,
          -0.0657020381446,
          -0.0527636172917,
          0.9920721039948,
          -0.1140567453754
        ],
        "ImagePositionPatient": [
          -787.04940153499,
          -877.05787574446,
          105.63473971237
        ],
        "ImageType": [
          "ORIGINAL",
          "PRIMARY",
          "M",
          "MB",
          "ND",
          "MOSAIC"
        ],
        "ImagedNucleus": "1H",
        "ImagingFrequency": 123.259147,
        "InPlanePhaseEncodingDirection": "COL",
        "MRAcquisitionType": "2D",
        "MagneticFieldStrength": 3.0,
        "Manufacturer": "SIEMENS",
        "ManufacturerModelName": "Prisma_fit",
        "Modality": "MR",
        "NumberOfAverages": 1.0,
        "NumberOfPhaseEncodingSteps": 104,
        "PercentPhaseFieldOfView": 100.0,
        "PercentSampling": 100.0,
        "PerformedProcedureStepStartTime": "113652.581000",
        "PhotometricInterpretation": "MONOCHROME2",
        "PixelBandwidth": 2290.0,
        "PixelRepresentation": 0,
        "PixelSpacing": [
          2.0,
          2.0
        ],
        "ProtocolName": "func_task-figures09",
        "RepetitionTime": 1490.0,
        "Rows": 832,
        "SAR": 0.03106901447909,
        "SamplesPerPixel": 1,
        "ScanOptions": "FS",
        "ScanningSequence": "EP",
        "SequenceName": "epfid2d1_104",
        "SequenceVariant": [
          "SK",
          "SS"
        ],
        "SeriesDescription": "func_task-figures09",
        "SeriesNumber": 13,
        "SeriesTime": "120456.080000",
        "SliceLocation": -45.259186032826,
        "SliceThickness": 2.0,
        "SmallestImagePixelValue": 0,
        "SoftwareVersions": "syngo MR E11",
        "SpacingBetweenSlices": 2.0000000460596,
        "SpecificCharacterSet": "ISO_IR 100",
        "StudyID": "1",
        "StudyTime": "113652.474000",
        "TransmitCoilName": "Body",
        "VariableFlipAngleFlag": "N",
        "WindowCenterWidthExplanation": "Algo1",
        "dBdt": 0.0
      },
      "slices": {}
    },
    "modality": "bold",
    "run_id": 1,
    "session_id": "006",
    "subject_id": "04",
    "task_id": "figures09",
    "time": {
      "samples": {
        "AcquisitionNumber": [
          1,
          2,
          3,
          4,
          5,
          6,
          7,
          8,
          9,
          10,
          11,
          12,
          13,
          14,
          15,
          16,
          17,
          18,
          19,
          20,
          21,
          22,
          23,
          24,
          25,
          26,
          27,
          28,
          29,
          30,
          31,
          32,
          33,
          34,
          35,
          36,
          37,
          38,
          39,
          40,
          41,
          42,
          43,
          44,
          45,
          46,
          47,
          48,
          49,
          50,
          51,
          52,
          53,
          54,
          55,
          56,
          57,
          58,
          59,
          60,
          61,
          62,
          63,
          64,
          65,
          66,
          67,
          68,
          69,
          70,
          71,
          72,
          73,
          74,
          75,
          76,
          77,
          78,
          79,
          80,
          81,
          82,
          83,
          84,
          85,
          86,
          87,
          88,
          89,
          90,
          91,
          92,
          93,
          94,
          95,
          96,
          97,
          98,
          99,
          100,
          101,
          102,
          103,
          104,
          105,
          106,
          107,
          108,
          109,
          110,
          111,
          112,
          113,
          114,
          115,
          116,
          117,
          118,
          119,
          120,
          121,
          122,
          123,
          124,
          125,
          126,
          127,
          128,
          129,
          130,
          131,
          132,
          133,
          134,
          135,
          136,
          137,
          138,
          139,
          140,
          141,
          142,
          143,
          144,
          145,
          146,
          147,
          148,
          149,
          150,
          151,
          152,
          153,
          154,
          155,
          156,
          157,
          158,
          159,
          160,
          161,
          162,
          163,
          164,
          165,
          166,
          167,
          168,
          169,
          170,
          171,
          172,
          173,
          174,
          175,
          176,
          177,
          178,
          179,
          180,
          181,
          182,
          183,
          184,
          185,
          186,
          187,
          188,
          189,
          190,
          191,
          192,
          193,
          194,
          195,
          196,
          197,
          198,
          199,
          200,
          201,
          202,
          203,
          204,
          205,
          206,
          207,
          208,
          209,
          210,
          211,
          212,
          213,
          214,
          215,
          216,
          217,
          218,
          219,
          220,
          221,
          222,
          223,
          224,
          225,
          226,
          227,
          228,
          229,
          230,
          231,
          232,
          233,
          234,
          235,
          236,
          237,
          238,
          239,
          240,
          241,
          242,
          243,
          244,
          245,
          246,
          247,
          248,
          249,
          250,
          251,
          252,
          253,
          254,
          255,
          256,
          257,
          258,
          259,
          260,
          261,
          262,
          263,
          264,
          265,
          266,
          267,
          268,
          269,
          270,
          271,
          272,
          273,
          274,
          275,
          276,
          277,
          278,
          279,
          280,
          281,
          282,
          283,
          284,
          285,
          286,
          287,
          288,
          289,
          290,
          291,
          292,
          293,
          294,
          295,
          296,
          297,
          298,
          299,
          300,
          301,
          302,
          303,
          304,
          305,
          306,
          307,
          308,
          309,
          310,
          311,
          312,
          313,
          314,
          315,
          316,
          317,
          318,
          319,
          320,
          321,
          322,
          323,
          324,
          325,
          326,
          327,
          328,
          329,
          330,
          331,
          332,
          333,
          334,
          335,
          336,
          337,
          338,
          339,
          340,
          341,
          342,
          343,
          344,
          345,
          346,
          347,
          348,
          349,
          350,
          351,
          352,
          353,
          354,
          355,
          356,
          357,
          358,
          359,
          360,
          361,
          362,
          363,
          364,
          365,
          366,
          367,
          368,
          369,
          370,
          371,
          372,
          373,
          374,
          375,
          376,
          377,
          378,
          379,
          380,
          381,
          382,
          383,
          384,
          385,
          386,
          387,
          388,
          389,
          390,
          391,
          392,
          393,
          394,
          395,
          396,
          397,
          398,
          399,
          400,
          401,
          402,
          403,
          404,
          405,
          406,
          407,
          408,
          409,
          410
        ],
        "AcquisitionTime": [
          "120358.912500",
          "120400.402500",
          "120401.892500",
          "120403.382500",
          "120404.872500",
          "120406.362500",
          "120407.852500",
          "120409.342500",
          "120410.832500",
          "120412.322500",
          "120413.812500",
          "120415.302500",
          "120416.792500",
          "120418.282500",
          "120419.772500",
          "120421.262500",
          "120422.752500",
          "120424.242500",
          "120425.732500",
          "120427.222500",
          "120428.712500",
          "120430.202500",
          "120431.692500",
          "120433.182500",
          "120434.672500",
          "120436.162500",
          "120437.652500",
          "120439.142500",
          "120440.632500",
          "120442.122500",
          "120443.612500",
          "120445.102500",
          "120446.592500",
          "120448.082500",
          "120449.572500",
          "120451.062500",
          "120452.552500",
          "120454.042500",
          "120455.532500",
          "120457.022500",
          "120458.512500",
          "120500.002500",
          "120501.492500",
          "120502.982500",
          "120504.472500",
          "120505.962500",
          "120507.452500",
          "120508.942500",
          "120510.432500",
          "120511.922500",
          "120513.412500",
          "120514.902500",
          "120516.392500",
          "120517.882500",
          "120519.372500",
          "120520.862500",
          "120522.352500",
          "120523.842500",
          "120525.332500",
          "120526.822500",
          "120528.312500",
          "120529.802500",
          "120531.292500",
          "120532.782500",
          "120534.272500",
          "120535.762500",
          "120537.252500",
          "120538.742500",
          "120540.232500",
          "120541.722500",
          "120543.212500",
          "120544.702500",
          "120546.192500",
          "120547.682500",
          "120549.172500",
          "120550.662500",
          "120552.152500",
          "120553.642500",
          "120555.132500",
          "120556.622500",
          "120558.112500",
          "120559.602500",
          "120601.092500",
          "120602.582500",
          "120604.072500",
          "120605.562500",
          "120607.052500",
          "120608.542500",
          "120610.032500",
          "120611.522500",
          "120613.012500",
          "120614.502500",
          "120615.992500",
          "120617.482500",
          "120618.972500",
          "120620.462500",
          "120621.952500",
          "120623.442500",
          "120624.932500",
          "120626.422500",
          "120627.912500",
          "120629.402500",
          "120630.892500",
          "120632.382500",
          "120633.872500",
          "120635.362500",
          "120636.852500",
          "120638.342500",
          "120639.832500",
          "120641.322500",
          "120642.812500",
          "120644.302500",
          "120645.792500",
          "120647.282500",
          "120648.772500",
          "120650.262500",
          "120651.752500",
          "120653.242500",
          "120654.732500",
          "120656.222500",
          "120657.712500",
          "120659.202500",
          "120700.692500",
          "120702.182500",
          "120703.672500",
          "120705.162500",
          "120706.652500",
          "120708.142500",
          "120709.632500",
          "120711.122500",
          "120712.612500",
          "120714.102500",
          "120715.592500",
          "120717.082500",
          "120718.572500",
          "120720.062500",
          "120721.552500",
          "120723.042500",
          "120724.532500",
          "120726.022500",
          "120727.512500",
          "120729.002500",
          "120730.492500",
          "120731.982500",
          "120733.472500",
          "120734.962500",
          "120736.452500",
          "120737.942500",
          "120739.432500",
          "120740.922500",
          "120742.412500",
          "120743.902500",
          "120745.392500",
          "120746.882500",
          "120748.372500",
          "120749.862500",
          "120751.352500",
          "120752.842500",
          "120754.332500",
          "120755.822500",
          "120757.312500",
          "120758.802500",
          "120800.292500",
          "120801.782500",
          "120803.272500",
          "120804.762500",
          "120806.252500",
          "120807.742500",
          "120809.232500",
          "120810.722500",
          "120812.212500",
          "120813.702500",
          "120815.192500",
          "120816.682500",
          "120818.172500",
          "120819.662500",
          "120821.152500",
          "120822.642500",
          "120824.132500",
          "120825.622500",
          "120827.112500",
          "120828.602500",
          "120830.092500",
          "120831.582500",
          "120833.072500",
          "120834.562500",
          "120836.052500",
          "120837.542500",
          "120839.032500",
          "120840.522500",
          "120842.012500",
          "120843.502500",
          "120844.992500",
          "120846.482500",
          "120847.972500",
          "120849.462500",
          "120850.952500",
          "120852.442500",
          "120853.932500",
          "120855.422500",
          "120856.912500",
          "120858.402500",
          "120859.892500",
          "120901.382500",
          "120902.872500",
          "120904.362500",
          "120905.852500",
          "120907.342500",
          "120908.832500",
          "120910.322500",
          "120911.812500",
          "120913.302500",
          "120914.792500",
          "120916.282500",
          "120917.772500",
          "120919.262500",
          "120920.752500",
          "120922.242500",
          "120923.732500",
          "120925.222500",
          "120926.712500",
          "120928.202500",
          "120929.692500",
          "120931.182500",
          "120932.672500",
          "120934.162500",
          "120935.652500",
          "120937.142500",
          "120938.632500",
          "120940.122500",
          "120941.612500",
          "120943.102500",
          "120944.592500",
          "120946.082500",
          "120947.572500",
          "120949.062500",
          "120950.552500",
          "120952.042500",
          "120953.532500",
          "120955.022500",
          "120956.512500",
          "120958.002500",
          "120959.492500",
          "121000.982500",
          "121002.472500",
          "121003.962500",
          "121005.452500",
          "121006.942500",
          "121008.432500",
          "121009.922500",
          "121011.412500",
          "121012.902500",
          "121014.392500",
          "121015.882500",
          "121017.372500",
          "121018.862500",
          "121020.352500",
          "121021.842500",
          "121023.332500",
          "121024.822500",
          "121026.312500",
          "121027.802500",
          "121029.292500",
          "121030.782500",
          "121032.272500",
          "121033.762500",
          "121035.252500",
          "121036.742500",
          "121038.232500",
          "121039.722500",
          "121041.212500",
          "121042.702500",
          "121044.192500",
          "121045.682500",
          "121047.172500",
          "121048.662500",
          "121050.152500",
          "121051.642500",
          "121053.132500",
          "121054.622500",
          "121056.112500",
          "121057.602500",
          "121059.092500",
          "121100.582500",
          "121102.072500",
          "121103.562500",
          "121105.052500",
          "121106.542500",
          "121108.032500",
          "121109.522500",
          "121111.012500",
          "121112.502500",
          "121113.992500",
          "121115.482500",
          "121116.972500",
          "121118.462500",
          "121119.952500",
          "121121.442500",
          "121122.932500",
          "121124.422500",
          "121125.912500",
          "121127.402500",
          "121128.892500",
          "121130.382500",
          "121131.872500",
          "121133.362500",
          "121134.852500",
          "121136.342500",
          "121137.832500",
          "121139.322500",
          "121140.812500",
          "121142.302500",
          "121143.792500",
          "121145.282500",
          "121146.772500",
          "121148.262500",
          "121149.752500",
          "121151.242500",
          "121152.732500",
          "121154.222500",
          "121155.712500",
          "121157.202500",
          "121158.692500",
          "121200.182500",
          "121201.672500",
          "121203.162500",
          "121204.652500",
          "121206.142500",
          "121207.632500",
          "121209.122500",
          "121210.612500",
          "121212.102500",
          "121213.592500",
          "121215.082500",
          "121216.572500",
          "121218.062500",
          "121219.552500",
          "121221.042500",
          "121222.532500",
          "121224.022500",
          "121225.512500",
          "121227.002500",
          "121228.492500",
          "121229.982500",
          "121231.472500",
          "121232.962500",
          "121234.452500",
          "121235.942500",
          "121237.432500",
          "121238.922500",
          "121240.412500",
          "121241.902500",
          "121243.392500",
          "121244.882500",
          "121246.372500",
          "121247.862500",
          "121249.352500",
          "121250.842500",
          "121252.332500",
          "121253.822500",
          "121255.312500",
          "121256.802500",
          "121258.292500",
          "121259.782500",
          "121301.272500",
          "121302.762500",
          "121304.252500",
          "121305.742500",
          "121307.232500",
          "121308.722500",
          "121310.212500",
          "121311.702500",
          "121313.192500",
          "121314.682500",
          "121316.172500",
          "121317.662500",
          "121319.152500",
          "121320.642500",
          "121322.132500",
          "121323.622500",
          "121325.112500",
          "121326.602500",
          "121328.092500",
          "121329.582500",
          "121331.072500",
          "121332.562500",
          "121334.052500",
          "121335.542500",
          "121337.032500",
          "121338.522500",
          "121340.012500",
          "121341.502500",
          "121342.992500",
          "121344.482500",
          "121345.972500",
          "121347.462500",
          "121348.952500",
          "121350.442500",
          "121351.932500",
          "121353.422500",
          "121354.912500",
          "121356.402500",
          "121357.892500",
          "121359.382500",
          "121400.872500",
          "121402.362500",
          "121403.852500",
          "121405.342500",
          "121406.832500",
          "121408.322500"
        ],
        "ContentTime": [
          "120456.083000",
          "120456.086000",
          "120516.050000",
          "120516.053000",
          "120516.055000",
          "120516.058000",
          "120516.061000",
          "120516.064000",
          "120516.066000",
          "120516.069000",
          "120516.078000",
          "120516.080000",
          "120516.083000",
          "120516.086000",
          "120516.089000",
          "120516.092000",
          "120516.095000",
          "120516.097000",
          "120516.100000",
          "120516.103000",
          "120516.106000",
          "120516.109000",
          "120556.051000",
          "120556.054000",
          "120556.057000",
          "120556.067000",
          "120556.070000",
          "120556.073000",
          "120556.075000",
          "120556.078000",
          "120556.081000",
          "120556.084000",
          "120556.086000",
          "120556.089000",
          "120556.092000",
          "120556.095000",
          "120556.103000",
          "120556.107000",
          "120556.110000",
          "120556.114000",
          "120556.117000",
          "120556.120000",
          "120556.123000",
          "120556.126000",
          "120556.128000",
          "120556.131000",
          "120556.134000",
          "120556.137000",
          "120556.140000",
          "120556.142000",
          "120556.145000",
          "120556.148000",
          "120556.151000",
          "120556.154000",
          "120556.157000",
          "120556.159000",
          "120556.162000",
          "120556.165000",
          "120556.168000",
          "120556.171000",
          "120556.174000",
          "120616.051000",
          "120616.054000",
          "120616.056000",
          "120616.059000",
          "120616.062000",
          "120616.065000",
          "120616.068000",
          "120616.071000",
          "120616.073000",
          "120616.076000",
          "120616.079000",
          "120616.082000",
          "120616.084000",
          "120616.087000",
          "120616.090000",
          "120616.093000",
          "120616.096000",
          "120616.099000",
          "120616.101000",
          "120616.104000",
          "120616.107000",
          "120636.051000",
          "120636.054000",
          "120636.057000",
          "120636.059000",
          "120636.062000",
          "120636.065000",
          "120636.068000",
          "120636.071000",
          "120636.074000",
          "120636.076000",
          "120636.084000",
          "120636.087000",
          "120636.089000",
          "120636.092000",
          "120636.095000",
          "120636.098000",
          "120636.101000",
          "120636.104000",
          "120636.107000",
          "120636.109000",
          "120716.050000",
          "120716.053000",
          "120716.056000",
          "120716.058000",
          "120716.061000",
          "120716.064000",
          "120716.067000",
          "120716.070000",
          "120716.073000",
          "120716.076000",
          "120716.079000",
          "120716.081000",
          "120716.084000",
          "120716.087000",
          "120716.090000",
          "120716.093000",
          "120716.095000",
          "120716.109000",
          "120716.112000",
          "120716.115000",
          "120716.118000",
          "120716.121000",
          "120716.123000",
          "120716.126000",
          "120716.129000",
          "120716.132000",
          "120716.135000",
          "120716.138000",
          "120716.140000",
          "120756.050000",
          "120756.053000",
          "120756.056000",
          "120756.059000",
          "120756.061000",
          "120756.064000",
          "120756.067000",
          "120756.070000",
          "120756.073000",
          "120756.076000",
          "120756.079000",
          "120756.082000",
          "120756.084000",
          "120756.087000",
          "120756.090000",
          "120756.093000",
          "120756.096000",
          "120756.099000",
          "120756.102000",
          "120756.105000",
          "120756.107000",
          "120756.110000",
          "120756.113000",
          "120756.116000",
          "120756.119000",
          "120756.122000",
          "120756.124000",
          "120836.051000",
          "120836.054000",
          "120836.057000",
          "120836.059000",
          "120836.062000",
          "120836.065000",
          "120836.068000",
          "120836.071000",
          "120836.074000",
          "120836.076000",
          "120836.079000",
          "120836.082000",
          "120836.085000",
          "120836.088000",
          "120836.091000",
          "120836.093000",
          "120836.096000",
          "120836.099000",
          "120836.102000",
          "120836.105000",
          "120836.108000",
          "120836.110000",
          "120836.113000",
          "120836.116000",
          "120836.119000",
          "120836.122000",
          "120836.124000",
          "120916.050000",
          "120916.053000",
          "120916.056000",
          "120916.059000",
          "120916.061000",
          "120916.064000",
          "120916.067000",
          "120916.070000",
          "120916.073000",
          "120916.075000",
          "120916.078000",
          "120916.081000",
          "120916.084000",
          "120916.087000",
          "120916.090000",
          "120916.093000",
          "120916.095000",
          "120916.098000",
          "120916.101000",
          "120916.104000",
          "120916.107000",
          "120916.110000",
          "120916.112000",
          "120916.115000",
