{
  "aor": 0.0004724815724815724,
  "aqi": 0.009612787346437345,
  "bids_meta": {
    "AcquisitionMatrixPE": 104,
    "AcquisitionNumber": 1,
    "AcquisitionTime": "12:45:54.115000",
    "BandwidthPerPixelPhaseEncode": 17.17,
    "BaseResolution": 104,
    "BodyPartExamined": "BRAIN",
    "CogAtlasID": "trm_4c898da401420",
    "CoilString": "HC1-7;NC1_2",
    "ConsistencyInfo": "N4_VE11C_LATEST_20160120",
    "ConversionSoftware": "dcm2niix",
    "ConversionSoftwareVersion": "v1.0.20190720  (JP2:OpenJPEG) GCC7.3.0",
    "DerivedVendorReportedEchoSpacing": 0.000560011,
    "DeviceSerialNumber": "167006",
    "DwellTime": 2.1e-06,
    "EchoTime": 0.037,
    "EchoTrainLength": 104,
    "EffectiveEchoSpacing": 0.000560011,
    "FlipAngle": 52,
    "ImageComments": "Unaliased_MB4_PE3_LB",
    "ImageOrientationPatientDICOM": [
      0.996794,
      0.0456347,
      -0.0657219,
      -0.0529376,
      0.992064,
      -0.114045
    ],
    "ImageType": [
      "ORIGINAL",
      "PRIMARY",
      "M",
      "MB",
      "ND",
      "MOSAIC"
    ],
    "ImagingFrequency": 123.259,
    "InPlanePhaseEncodingDirectionDICOM": "COL",
    "InstitutionAddress": "Chemin_Queen-Mary_4565_Montreal_District_CA_H3W_1W5",
    "InstitutionName": "IUGM",
    "InstitutionalDepartmentName": "Department",
    "MRAcquisitionType": "2D",
    "MagneticFieldStrength": 3,
    "Manufacturer": "Siemens",
    "ManufacturersModelName": "Prisma_fit",
    "Modality": "MR",
    "MultibandAccelerationFactor": 4,
    "PartialFourier": 1,
    "PatientPosition": "HFS",
    "PercentPhaseFOV": 100,
    "PhaseEncodingDirection": "j-",
    "PhaseEncodingSteps": 104,
    "PhaseResolution": 1,
    "PixelBandwidth": 2290,
    "ProcedureStepDescription": "video5_generic",
    "ProtocolName": "func_task-life1",
    "PulseSequenceDetails": "%CustomerSeq%_cmrr_mbep2d_bold",
    "ReceiveCoilActiveElements": "HC1-7;NC1,2",
    "ReceiveCoilName": "HeadNeck_64",
    "ReconMatrixPE": 104,
    "RepetitionTime": 1.49,
    "SAR": 0.0310686,
    "ScanOptions": "FS",
    "ScanningSequence": "EP",
    "SequenceName": "epfid2d1_104",
    "SequenceVariant": "SK_SS",
    "SeriesDescription": "func_task-life1",
    "SeriesNumber": 21,
    "ShimSetting": [
      599,
      -7237,
      -8859,
      592,
      -37,
      -263,
      41,
      39
    ],
    "SliceThickness": 2,
    "SliceTiming": [
      0,
      0.785,
      0.0975,
      0.8825,
      0.195,
      0.98,
      0.295,
      1.0775,
      0.3925,
      1.175,
      0.49,
      1.275,
      0.5875,
      1.3725,
      0.685,
      0,
      0.785,
      0.0975,
      0.8825,
      0.195,
      0.98,
      0.295,
      1.0775,
      0.3925,
      1.175,
      0.49,
      1.275,
      0.5875,
      1.3725,
      0.685,
      0,
      0.785,
      0.0975,
      0.8825,
      0.195,
      0.98,
      0.295,
      1.0775,
      0.3925,
      1.175,
      0.49,
      1.275,
      0.5875,
      1.3725,
      0.685,
      0,
      0.785,
      0.0975,
      0.8825,
      0.195,
      0.98,
      0.295,
      1.0775,
      0.3925,
      1.175,
      0.49,
      1.275,
      0.5875,
      1.3725,
      0.685
    ],
    "SoftwareVersions": "syngo_MR_E11",
    "SpacingBetweenSlices": 2,
    "StationName": "MRC35049",
    "TaskName": "life01",
    "TotalReadoutTime": 0.0576811,
    "TxRefAmp": 216.268,
    "WipMemBlock": "fa7476fb-31d4-4951-bd6f-a10d7c179aca||Sequence: R016 ve11c/master r/e634e98; Dec 19 2017 11:00:25 by eja",
    "dataset": "<unset>",
    "dcmmeta_affine": [
      [
        -1.993587851524353,
        -0.10587511956691742,
        -0.11999192088842392,
        110.50992584228516
      ],
      [
        -0.09126941859722137,
        1.9841283559799194,
        -0.2343175858259201,
        -73.70983123779297
      ],
      [
        -0.13144388794898987,
        0.2280905544757843,
        1.9825985431671143,
        -49.09454345703125
      ],
      [
        0.0,
        0.0,
        0.0,
        1.0
      ]
    ],
    "dcmmeta_reorient_transform": [
      [
        0.0,
        -1.0,
        0.0,
        103.0
      ],
      [
        1.0,
        0.0,
        0.0,
        0.0
      ],
      [
        0.0,
        0.0,
        1.0,
        0.0
      ],
      [
        0.0,
        0.0,
        0.0,
        1.0
      ]
    ],
    "dcmmeta_shape": [
      104,
      104,
      60,
      409
    ],
    "dcmmeta_slice_dim": 2,
    "dcmmeta_version": 0.6,
    "global": {
      "const": {
        "AcquisitionMatrix": [
          104,
          0,
          0,
          104
        ],
        "AngioFlag": "N",
        "BitsAllocated": 16,
        "BitsStored": 16,
        "BodyPartExamined": "BRAIN",
        "Columns": 832,
        "EchoNumbers": 1,
        "EchoTime": 37.0,
        "EchoTrainLength": 104,
        "FlipAngle": 52.0,
        "HighBit": 15,
        "ImageOrientationPatient": [
          0.99679391026084,
          0.04563470849352,
          -0.0657219434254,
          -0.0529375583019,
          0.9920641561841,
          -0.1140452758152
        ],
        "ImagePositionPatient": [
          -786.73221148868,
          -886.10015466104,
          105.26931789377
        ],
        "ImageType": [
          "ORIGINAL",
          "PRIMARY",
          "M",
          "MB",
          "ND",
          "MOSAIC"
        ],
        "ImagedNucleus": "1H",
        "ImagingFrequency": 123.259168,
        "InPlanePhaseEncodingDirection": "COL",
        "MRAcquisitionType": "2D",
        "MagneticFieldStrength": 3.0,
        "Manufacturer": "SIEMENS",
        "ManufacturerModelName": "Prisma_fit",
        "Modality": "MR",
        "NumberOfAverages": 1.0,
        "NumberOfPhaseEncodingSteps": 104,
        "PercentPhaseFieldOfView": 100.0,
        "PercentSampling": 100.0,
        "PerformedProcedureStepStartTime": "113652.581000",
        "PhotometricInterpretation": "MONOCHROME2",
        "PixelBandwidth": 2290.0,
        "PixelRepresentation": 0,
        "PixelSpacing": [
          2.0,
          2.0
        ],
        "ProtocolName": "func_task-life1",
        "RepetitionTime": 1490.0,
        "Rows": 832,
        "SAR": 0.03106864947648,
        "SamplesPerPixel": 1,
        "ScanOptions": "FS",
        "ScanningSequence": "EP",
        "SequenceName": "epfid2d1_104",
        "SequenceVariant": [
          "SK",
          "SS"
        ],
        "SeriesDescription": "func_task-life1",
        "SeriesNumber": 21,
        "SeriesTime": "124723.213000",
        "SliceLocation": -46.661781263072,
        "SliceThickness": 2.0,
        "SmallestImagePixelValue": 0,
        "SoftwareVersions": "syngo MR E11",
        "SpacingBetweenSlices": 1.9999999821413,
        "SpecificCharacterSet": "ISO_IR 100",
        "StudyID": "1",
        "StudyTime": "113652.474000",
        "TransmitCoilName": "Body",
        "VariableFlipAngleFlag": "N",
        "WindowCenterWidthExplanation": "Algo1",
        "dBdt": 0.0
      },
      "slices": {}
    },
    "modality": "bold",
    "run_id": 1,
    "session_id": "006",
    "subject_id": "04",
    "task_id": "life01",
    "time": {
      "samples": {
        "AcquisitionNumber": [
          1,
          2,
          3,
          4,
          5,
          6,
          7,
          8,
          9,
          10,
          11,
          12,
          13,
          14,
          15,
          16,
          17,
          18,
          19,
          20,
          21,
          22,
          23,
          24,
          25,
          26,
          27,
          28,
          29,
          30,
          31,
          32,
          33,
          34,
          35,
          36,
          37,
          38,
          39,
          40,
          41,
          42,
          43,
          44,
          45,
          46,
          47,
          48,
          49,
          50,
          51,
          52,
          53,
          54,
          55,
          56,
          57,
          58,
          59,
          60,
          61,
          62,
          63,
          64,
          65,
          66,
          67,
          68,
          69,
          70,
          71,
          72,
          73,
          74,
          75,
          76,
          77,
          78,
          79,
          80,
          81,
          82,
          83,
          84,
          85,
          86,
          87,
          88,
          89,
          90,
          91,
          92,
          93,
          94,
          95,
          96,
          97,
          98,
          99,
          100,
          101,
          102,
          103,
          104,
          105,
          106,
          107,
          108,
          109,
          110,
          111,
          112,
          113,
          114,
          115,
          116,
          117,
          118,
          119,
          120,
          121,
          122,
          123,
          124,
          125,
          126,
          127,
          128,
          129,
          130,
          131,
          132,
          133,
          134,
          135,
          136,
          137,
          138,
          139,
          140,
          141,
          142,
          143,
          144,
          145,
          146,
          147,
          148,
          149,
          150,
          151,
          152,
          153,
          154,
          155,
          156,
          157,
          158,
          159,
          160,
          161,
          162,
          163,
          164,
          165,
          166,
          167,
          168,
          169,
          170,
          171,
          172,
          173,
          174,
          175,
          176,
          177,
          178,
          179,
          180,
          181,
          182,
          183,
          184,
          185,
          186,
          187,
          188,
          189,
          190,
          191,
          192,
          193,
          194,
          195,
          196,
          197,
          198,
          199,
          200,
          201,
          202,
          203,
          204,
          205,
          206,
          207,
          208,
          209,
          210,
          211,
          212,
          213,
          214,
          215,
          216,
          217,
          218,
          219,
          220,
          221,
          222,
          223,
          224,
          225,
          226,
          227,
          228,
          229,
          230,
          231,
          232,
          233,
          234,
          235,
          236,
          237,
          238,
          239,
          240,
          241,
          242,
          243,
          244,
          245,
          246,
          247,
          248,
          249,
          250,
          251,
          252,
          253,
          254,
          255,
          256,
          257,
          258,
          259,
          260,
          261,
          262,
          263,
          264,
          265,
          266,
          267,
          268,
          269,
          270,
          271,
          272,
          273,
          274,
          275,
          276,
          277,
          278,
          279,
          280,
          281,
          282,
          283,
          284,
          285,
          286,
          287,
          288,
          289,
          290,
          291,
          292,
          293,
          294,
          295,
          296,
          297,
          298,
          299,
          300,
          301,
          302,
          303,
          304,
          305,
          306,
          307,
          308,
          309,
          310,
          311,
          312,
          313,
          314,
          315,
          316,
          317,
          318,
          319,
          320,
          321,
          322,
          323,
          324,
          325,
          326,
          327,
          328,
          329,
          330,
          331,
          332,
          333,
          334,
          335,
          336,
          337,
          338,
          339,
          340,
          341,
          342,
          343,
          344,
          345,
          346,
          347,
          348,
          349,
          350,
          351,
          352,
          353,
          354,
          355,
          356,
          357,
          358,
          359,
          360,
          361,
          362,
          363,
          364,
          365,
          366,
          367,
          368,
          369,
          370,
          371,
          372,
          373,
          374,
          375,
          376,
          377,
          378,
          379,
          380,
          381,
          382,
          383,
          384,
          385,
          386,
          387,
          388,
          389,
          390,
          391,
          392,
          393,
          394,
          395,
          396,
          397,
          398,
          399,
          400,
          401,
          402,
          403,
          404,
          405,
          406,
          407,
          408,
          409
        ],
        "AcquisitionTime": [
          "124554.115000",
          "124555.605000",
          "124557.095000",
          "124558.585000",
          "124600.075000",
          "124601.565000",
          "124603.055000",
          "124604.545000",
          "124606.035000",
          "124607.525000",
          "124609.015000",
          "124610.505000",
          "124611.995000",
          "124613.485000",
          "124614.975000",
          "124616.465000",
          "124617.955000",
          "124619.445000",
          "124620.935000",
          "124622.425000",
          "124623.915000",
          "124625.405000",
          "124626.895000",
          "124628.385000",
          "124629.875000",
          "124631.365000",
          "124632.855000",
          "124634.345000",
          "124635.835000",
          "124637.325000",
          "124638.815000",
          "124640.305000",
          "124641.795000",
          "124643.285000",
          "124644.775000",
          "124646.265000",
          "124647.755000",
          "124649.245000",
          "124650.735000",
          "124652.225000",
          "124653.715000",
          "124655.205000",
          "124656.695000",
          "124658.185000",
          "124659.675000",
          "124701.165000",
          "124702.655000",
          "124704.145000",
          "124705.635000",
          "124707.125000",
          "124708.615000",
          "124710.105000",
          "124711.595000",
          "124713.085000",
          "124714.575000",
          "124716.065000",
          "124717.555000",
          "124719.045000",
          "124720.535000",
          "124722.025000",
          "124723.515000",
          "124725.005000",
          "124726.495000",
          "124727.985000",
          "124729.475000",
          "124730.965000",
          "124732.455000",
          "124733.945000",
          "124735.435000",
          "124736.925000",
          "124738.415000",
          "124739.905000",
          "124741.395000",
          "124742.885000",
          "124744.375000",
          "124745.865000",
          "124747.355000",
          "124748.845000",
          "124750.335000",
          "124751.825000",
          "124753.315000",
          "124754.805000",
          "124756.295000",
          "124757.785000",
          "124759.275000",
          "124800.765000",
          "124802.255000",
          "124803.745000",
          "124805.235000",
          "124806.725000",
          "124808.215000",
          "124809.705000",
          "124811.195000",
          "124812.685000",
          "124814.175000",
          "124815.665000",
          "124817.155000",
          "124818.645000",
          "124820.135000",
          "124821.625000",
          "124823.115000",
          "124824.605000",
          "124826.095000",
          "124827.585000",
          "124829.075000",
          "124830.565000",
          "124832.055000",
          "124833.545000",
          "124835.035000",
          "124836.525000",
          "124838.015000",
          "124839.505000",
          "124840.995000",
          "124842.485000",
          "124843.975000",
          "124845.465000",
          "124846.955000",
          "124848.445000",
          "124849.935000",
          "124851.425000",
          "124852.915000",
          "124854.405000",
          "124855.895000",
          "124857.385000",
          "124858.875000",
          "124900.365000",
          "124901.855000",
          "124903.345000",
          "124904.835000",
          "124906.325000",
          "124907.815000",
          "124909.305000",
          "124910.795000",
          "124912.285000",
          "124913.775000",
          "124915.265000",
          "124916.755000",
          "124918.245000",
          "124919.735000",
          "124921.225000",
          "124922.715000",
          "124924.205000",
          "124925.695000",
          "124927.185000",
          "124928.675000",
          "124930.165000",
          "124931.655000",
          "124933.145000",
          "124934.635000",
          "124936.125000",
          "124937.615000",
          "124939.105000",
          "124940.595000",
          "124942.085000",
          "124943.575000",
          "124945.065000",
          "124946.555000",
          "124948.045000",
          "124949.535000",
          "124951.025000",
          "124952.515000",
          "124954.005000",
          "124955.495000",
          "124956.985000",
          "124958.475000",
          "124959.965000",
          "125001.455000",
          "125002.945000",
          "125004.435000",
          "125005.925000",
          "125007.415000",
          "125008.905000",
          "125010.395000",
          "125011.885000",
          "125013.375000",
          "125014.865000",
          "125016.355000",
          "125017.845000",
          "125019.335000",
          "125020.825000",
          "125022.315000",
          "125023.805000",
          "125025.295000",
          "125026.785000",
          "125028.275000",
          "125029.765000",
          "125031.255000",
          "125032.745000",
          "125034.235000",
          "125035.725000",
          "125037.215000",
          "125038.705000",
          "125040.195000",
          "125041.685000",
          "125043.175000",
          "125044.665000",
          "125046.155000",
          "125047.645000",
          "125049.135000",
          "125050.625000",
          "125052.115000",
          "125053.605000",
          "125055.095000",
          "125056.585000",
          "125058.075000",
          "125059.565000",
          "125101.055000",
          "125102.545000",
          "125104.035000",
          "125105.525000",
          "125107.015000",
          "125108.505000",
          "125109.995000",
          "125111.485000",
          "125112.975000",
          "125114.465000",
          "125115.955000",
          "125117.445000",
          "125118.935000",
          "125120.425000",
          "125121.915000",
          "125123.405000",
          "125124.895000",
          "125126.385000",
          "125127.875000",
          "125129.365000",
          "125130.855000",
          "125132.345000",
          "125133.835000",
          "125135.325000",
          "125136.815000",
          "125138.305000",
          "125139.795000",
          "125141.285000",
          "125142.775000",
          "125144.265000",
          "125145.755000",
          "125147.245000",
          "125148.735000",
          "125150.225000",
          "125151.715000",
          "125153.205000",
          "125154.695000",
          "125156.185000",
          "125157.675000",
          "125159.165000",
          "125200.655000",
          "125202.145000",
          "125203.635000",
          "125205.125000",
          "125206.615000",
          "125208.105000",
          "125209.595000",
          "125211.085000",
          "125212.575000",
          "125214.065000",
          "125215.555000",
          "125217.045000",
          "125218.535000",
          "125220.025000",
          "125221.515000",
          "125223.005000",
          "125224.495000",
          "125225.985000",
          "125227.475000",
          "125228.965000",
          "125230.455000",
          "125231.945000",
          "125233.435000",
          "125234.925000",
          "125236.415000",
          "125237.905000",
          "125239.395000",
          "125240.885000",
          "125242.375000",
          "125243.865000",
          "125245.355000",
          "125246.845000",
          "125248.335000",
          "125249.825000",
          "125251.315000",
          "125252.805000",
          "125254.295000",
          "125255.785000",
          "125257.275000",
          "125258.765000",
          "125300.255000",
          "125301.745000",
          "125303.235000",
          "125304.725000",
          "125306.215000",
          "125307.705000",
          "125309.195000",
          "125310.685000",
          "125312.175000",
          "125313.665000",
          "125315.155000",
          "125316.645000",
          "125318.135000",
          "125319.625000",
          "125321.115000",
          "125322.605000",
          "125324.095000",
          "125325.585000",
          "125327.075000",
          "125328.565000",
          "125330.055000",
          "125331.545000",
          "125333.035000",
          "125334.525000",
          "125336.015000",
          "125337.505000",
          "125338.995000",
          "125340.485000",
          "125341.975000",
          "125343.465000",
          "125344.955000",
          "125346.445000",
          "125347.935000",
          "125349.425000",
          "125350.915000",
          "125352.405000",
          "125353.895000",
          "125355.385000",
          "125356.875000",
          "125358.365000",
          "125359.855000",
          "125401.345000",
          "125402.835000",
          "125404.325000",
          "125405.815000",
          "125407.305000",
          "125408.795000",
          "125410.285000",
          "125411.775000",
          "125413.265000",
          "125414.755000",
          "125416.245000",
          "125417.735000",
          "125419.225000",
          "125420.715000",
          "125422.205000",
          "125423.695000",
          "125425.185000",
          "125426.675000",
          "125428.165000",
          "125429.655000",
          "125431.145000",
          "125432.635000",
          "125434.125000",
          "125435.615000",
          "125437.105000",
          "125438.595000",
          "125440.085000",
          "125441.575000",
          "125443.065000",
          "125444.555000",
          "125446.045000",
          "125447.535000",
          "125449.025000",
          "125450.515000",
          "125452.005000",
          "125453.495000",
          "125454.985000",
          "125456.475000",
          "125457.965000",
          "125459.455000",
          "125500.945000",
          "125502.435000",
          "125503.925000",
          "125505.415000",
          "125506.905000",
          "125508.395000",
          "125509.885000",
          "125511.375000",
          "125512.865000",
          "125514.355000",
          "125515.845000",
          "125517.335000",
          "125518.825000",
          "125520.315000",
          "125521.805000",
          "125523.295000",
          "125524.785000",
          "125526.275000",
          "125527.765000",
          "125529.255000",
          "125530.745000",
          "125532.235000",
          "125533.725000",
          "125535.215000",
          "125536.705000",
          "125538.195000",
          "125539.685000",
          "125541.175000",
          "125542.665000",
          "125544.155000",
          "125545.645000",
          "125547.135000",
          "125548.625000",
          "125550.115000",
          "125551.605000",
          "125553.095000",
          "125554.585000",
          "125556.075000",
          "125557.565000",
          "125559.055000",
          "125600.545000",
          "125602.035000"
        ],
        "ContentTime": [
          "124723.215000",
          "124723.219000",
          "124723.221000",
          "124723.224000",
          "124723.227000",
          "124723.230000",
          "124723.233000",
          "124723.236000",
          "124723.239000",
          "124723.242000",
          "124723.244000",
          "124723.247000",
          "124723.250000",
          "124723.253000",
          "124723.256000",
          "124723.259000",
          "124723.262000",
          "124723.265000",
          "124723.268000",
          "124723.270000",
          "124723.273000",
          "124723.276000",
          "124723.279000",
          "124723.282000",
          "124723.285000",
          "124723.288000",
          "124723.290000",
          "124723.293000",
          "124723.296000",
          "124723.299000",
          "124723.302000",
          "124723.305000",
          "124723.308000",
          "124723.317000",
          "124723.319000",
          "124723.322000",
          "124743.185000",
          "124743.188000",
          "124743.191000",
          "124743.194000",
          "124743.197000",
          "124743.200000",
          "124743.202000",
          "124743.205000",
          "124743.208000",
          "124743.211000",
          "124743.214000",
          "124743.217000",
          "124743.220000",
          "124743.223000",
          "124743.226000",
          "124743.229000",
          "124743.232000",
          "124743.235000",
          "124743.237000",
          "124743.240000",
          "124803.185000",
          "124803.188000",
          "124803.191000",
          "124803.194000",
          "124803.197000",
          "124803.199000",
          "124803.203000",
          "124803.205000",
          "124803.208000",
          "124803.211000",
          "124803.214000",
          "124803.217000",
          "124803.220000",
          "124803.223000",
          "124803.226000",
          "124803.229000",
          "124803.232000",
          "124803.234000",
          "124803.244000",
          "124803.247000",
          "124823.185000",
          "124823.203000",
          "124823.206000",
          "124823.209000",
          "124823.211000",
          "124823.214000",
          "124823.217000",
          "124823.220000",
          "124823.223000",
          "124823.226000",
          "124823.229000",
          "124823.232000",
          "124823.235000",
          "124823.237000",
          "124823.240000",
          "124823.243000",
          "124823.246000",
          "124823.249000",
          "124823.252000",
          "124823.255000",
          "124903.186000",
          "124903.189000",
          "124903.192000",
          "124903.195000",
          "124903.198000",
          "124903.200000",
          "124903.203000",
          "124903.206000",
          "124903.209000",
          "124903.212000",
          "124903.215000",
          "124903.218000",
          "124903.221000",
          "124903.223000",
          "124903.226000",
          "124903.229000",
          "124903.232000",
          "124903.235000",
          "124903.238000",
          "124903.241000",
          "124903.244000",
          "124903.246000",
          "124903.249000",
          "124903.252000",
          "124903.255000",
          "124903.258000",
          "124903.261000",
          "124903.264000",
          "124903.266000",
          "124903.274000",
          "124943.185000",
          "124943.188000",
          "124943.191000",
          "124943.194000",
          "124943.197000",
          "124943.200000",
          "124943.203000",
          "124943.206000",
          "124943.208000",
          "124943.211000",
          "124943.214000",
          "124943.217000",
          "124943.220000",
          "124943.223000",
          "124943.226000",
          "124943.229000",
          "124943.231000",
          "124943.234000",
          "124943.237000",
          "124943.240000",
          "124943.243000",
          "124943.246000",
          "124943.249000",
          "124943.251000",
          "124943.254000",
          "124943.257000",
          "124943.260000",
          "125023.185000",
          "125023.188000",
          "125023.191000",
          "125023.194000",
          "125023.197000",
          "125023.200000",
          "125023.203000",
          "125023.206000",
          "125023.210000",
          "125023.213000",
          "125023.216000",
          "125023.219000",
          "125023.222000",
          "125023.225000",
          "125023.228000",
          "125023.231000",
          "125023.234000",
          "125023.237000",
          "125023.240000",
          "125023.243000",
          "125023.246000",
          "125023.249000",
          "125023.252000",
          "125023.255000",
          "125023.257000",
          "125023.260000",
          "125103.185000",
          "125103.188000",
          "125103.191000",
          "125103.194000",
          "125103.197000",
          "125103.199000",
          "125103.202000",
          "125103.205000",
          "125103.208000",
          "125103.211000",
          "125103.214000",
          "125103.217000",
          "125103.220000",
          "125103.222000",
          "125103.225000",
          "125103.228000",
          "125103.231000",
          "125103.234000",
          "125103.237000",
          "125103.240000",
          "125103.243000",
          "125103.246000",
          "125103.248000",
          "125103.251000",
          "125103.254000",
          "125103.257000",
          "125103.260000",
          "125143.185000",
          "125143.188000",
          "125143.191000",
          "125143.194000",
          "125143.197000",
