{
  "aor": 0.00038302211302211305,
  "aqi": 0.0058287645208845214,
  "bids_meta": {
    "AcquisitionMatrixPE": 104,
    "AcquisitionNumber": 1,
    "AcquisitionTime": "12:25:9.650000",
    "BandwidthPerPixelPhaseEncode": 17.17,
    "BaseResolution": 104,
    "BodyPartExamined": "BRAIN",
    "CogAtlasID": "trm_4c898da401420",
    "CoilString": "HC1-7;NC1_2",
    "ConsistencyInfo": "N4_VE11C_LATEST_20160120",
    "ConversionSoftware": "dcm2niix",
    "ConversionSoftwareVersion": "v1.0.20190720  (JP2:OpenJPEG) GCC7.3.0",
    "DerivedVendorReportedEchoSpacing": 0.000560011,
    "DeviceSerialNumber": "167006",
    "DwellTime": 2.1e-06,
    "EchoTime": 0.037,
    "EchoTrainLength": 104,
    "EffectiveEchoSpacing": 0.000560011,
    "FlipAngle": 52,
    "ImageComments": "Unaliased_MB4_PE3_LB",
    "ImageOrientationPatientDICOM": [
      0.996803,
      0.0454616,
      -0.065702,
      -0.0527636,
      0.992072,
      -0.114057
    ],
    "ImageType": [
      "ORIGINAL",
      "PRIMARY",
      "M",
      "MB",
      "ND",
      "MOSAIC"
    ],
    "ImagingFrequency": 123.259,
    "InPlanePhaseEncodingDirectionDICOM": "COL",
    "InstitutionAddress": "Chemin_Queen-Mary_4565_Montreal_District_CA_H3W_1W5",
    "InstitutionName": "IUGM",
    "InstitutionalDepartmentName": "Department",
    "MRAcquisitionType": "2D",
    "MagneticFieldStrength": 3,
    "Manufacturer": "Siemens",
    "ManufacturersModelName": "Prisma_fit",
    "Modality": "MR",
    "MultibandAccelerationFactor": 4,
    "PartialFourier": 1,
    "PatientPosition": "HFS",
    "PercentPhaseFOV": 100,
    "PhaseEncodingDirection": "j-",
    "PhaseEncodingSteps": 104,
    "PhaseResolution": 1,
    "PixelBandwidth": 2290,
    "ProcedureStepDescription": "video5_generic",
    "ProtocolName": "func_task-figures11",
    "PulseSequenceDetails": "%CustomerSeq%_cmrr_mbep2d_bold",
    "ReceiveCoilActiveElements": "HC1-7;NC1,2",
    "ReceiveCoilName": "HeadNeck_64",
    "ReconMatrixPE": 104,
    "RepetitionTime": 1.49,
    "SAR": 0.0310686,
    "ScanOptions": "FS",
    "ScanningSequence": "EP",
    "SequenceName": "epfid2d1_104",
    "SequenceVariant": "SK_SS",
    "SeriesDescription": "func_task-figures11",
    "SeriesNumber": 17,
    "ShimSetting": [
      601,
      -7239,
      -8858,
      596,
      -33,
      -261,
      47,
      41
    ],
    "SliceThickness": 2,
    "SliceTiming": [
      0,
      0.785,
      0.0975,
      0.8825,
      0.195,
      0.98,
      0.295,
      1.0775,
      0.3925,
      1.175,
      0.49,
      1.275,
      0.5875,
      1.3725,
      0.685,
      0,
      0.785,
      0.0975,
      0.8825,
      0.195,
      0.98,
      0.295,
      1.0775,
      0.3925,
      1.175,
      0.49,
      1.275,
      0.5875,
      1.3725,
      0.685,
      0,
      0.785,
      0.0975,
      0.8825,
      0.195,
      0.98,
      0.295,
      1.0775,
      0.3925,
      1.175,
      0.49,
      1.275,
      0.5875,
      1.3725,
      0.685,
      0,
      0.785,
      0.0975,
      0.8825,
      0.195,
      0.98,
      0.295,
      1.0775,
      0.3925,
      1.175,
      0.49,
      1.275,
      0.5875,
      1.3725,
      0.685
    ],
    "SoftwareVersions": "syngo_MR_E11",
    "SpacingBetweenSlices": 2,
    "StationName": "MRC35049",
    "TaskName": "figures11",
    "TotalReadoutTime": 0.0576811,
    "TxRefAmp": 216.268,
    "WipMemBlock": "072b7d88-3d4f-4646-a42c-a4a1eccfe133||Sequence: R016 ve11c/master r/e634e98; Dec 19 2017 11:00:25 by eja",
    "dataset": "<unset>",
    "dcmmeta_affine": [
      [
        -1.9936062097549438,
        -0.10552723705768585,
        -0.11999192088842392,
        110.6579360961914
      ],
      [
        -0.09092318266630173,
        1.9841442108154297,
        -0.2343176007270813,
        -82.63350677490234
      ],
      [
        -0.1314040720462799,
        0.22811348736286163,
        1.9825986623764038,
        -48.725345611572266
      ],
      [
        0.0,
        0.0,
        0.0,
        1.0
      ]
    ],
    "dcmmeta_reorient_transform": [
      [
        0.0,
        -1.0,
        0.0,
        103.0
      ],
      [
        1.0,
        0.0,
        0.0,
        0.0
      ],
      [
        0.0,
        0.0,
        1.0,
        0.0
      ],
      [
        0.0,
        0.0,
        0.0,
        1.0
      ]
    ],
    "dcmmeta_shape": [
      104,
      104,
      60,
      409
    ],
    "dcmmeta_slice_dim": 2,
    "dcmmeta_version": 0.6,
    "global": {
      "const": {
        "AcquisitionMatrix": [
          104,
          0,
          0,
          104
        ],
        "AngioFlag": "N",
        "BitsAllocated": 16,
        "BitsStored": 16,
        "BodyPartExamined": "BRAIN",
        "Columns": 832,
        "EchoNumbers": 1,
        "EchoTime": 37.0,
        "EchoTrainLength": 104,
        "FlipAngle": 52.0,
        "HighBit": 15,
        "ImageOrientationPatient": [
          0.99680313288554,
          0.0454615931663,
          -0.0657020381446,
          -0.0527636172917,
          0.9920721039948,
          -0.1140567453754
        ],
        "ImagePositionPatient": [
          -787.04940153499,
          -877.05787574446,
          105.63473971237
        ],
        "ImageType": [
          "ORIGINAL",
          "PRIMARY",
          "M",
          "MB",
          "ND",
          "MOSAIC"
        ],
        "ImagedNucleus": "1H",
        "ImagingFrequency": 123.259161,
        "InPlanePhaseEncodingDirection": "COL",
        "MRAcquisitionType": "2D",
        "MagneticFieldStrength": 3.0,
        "Manufacturer": "SIEMENS",
        "ManufacturerModelName": "Prisma_fit",
        "Modality": "MR",
        "NumberOfAverages": 1.0,
        "NumberOfPhaseEncodingSteps": 104,
        "PercentPhaseFieldOfView": 100.0,
        "PercentSampling": 100.0,
        "PerformedProcedureStepStartTime": "113652.581000",
        "PhotometricInterpretation": "MONOCHROME2",
        "PixelBandwidth": 2290.0,
        "PixelRepresentation": 0,
        "PixelSpacing": [
          2.0,
          2.0
        ],
        "ProtocolName": "func_task-figures11",
        "RepetitionTime": 1490.0,
        "Rows": 832,
        "SAR": 0.03106864947648,
        "SamplesPerPixel": 1,
        "ScanOptions": "FS",
        "ScanningSequence": "EP",
        "SequenceName": "epfid2d1_104",
        "SequenceVariant": [
          "SK",
          "SS"
        ],
        "SeriesDescription": "func_task-figures11",
        "SeriesNumber": 17,
        "SeriesTime": "122628.153000",
        "SliceLocation": -45.259186032826,
        "SliceThickness": 2.0,
        "SmallestImagePixelValue": 0,
        "SoftwareVersions": "syngo MR E11",
        "SpacingBetweenSlices": 2.0000000460596,
        "SpecificCharacterSet": "ISO_IR 100",
        "StudyID": "1",
        "StudyTime": "113652.474000",
        "TransmitCoilName": "Body",
        "VariableFlipAngleFlag": "N",
        "WindowCenterWidthExplanation": "Algo1",
        "dBdt": 0.0
      },
      "slices": {}
    },
    "modality": "bold",
    "run_id": 1,
    "session_id": "006",
    "subject_id": "04",
    "task_id": "figures11",
    "time": {
      "samples": {
        "AcquisitionNumber": [
          1,
          2,
          3,
          4,
          5,
          6,
          7,
          8,
          9,
          10,
          11,
          12,
          13,
          14,
          15,
          16,
          17,
          18,
          19,
          20,
          21,
          22,
          23,
          24,
          25,
          26,
          27,
          28,
          29,
          30,
          31,
          32,
          33,
          34,
          35,
          36,
          37,
          38,
          39,
          40,
          41,
          42,
          43,
          44,
          45,
          46,
          47,
          48,
          49,
          50,
          51,
          52,
          53,
          54,
          55,
          56,
          57,
          58,
          59,
          60,
          61,
          62,
          63,
          64,
          65,
          66,
          67,
          68,
          69,
          70,
          71,
          72,
          73,
          74,
          75,
          76,
          77,
          78,
          79,
          80,
          81,
          82,
          83,
          84,
          85,
          86,
          87,
          88,
          89,
          90,
          91,
          92,
          93,
          94,
          95,
          96,
          97,
          98,
          99,
          100,
          101,
          102,
          103,
          104,
          105,
          106,
          107,
          108,
          109,
          110,
          111,
          112,
          113,
          114,
          115,
          116,
          117,
          118,
          119,
          120,
          121,
          122,
          123,
          124,
          125,
          126,
          127,
          128,
          129,
          130,
          131,
          132,
          133,
          134,
          135,
          136,
          137,
          138,
          139,
          140,
          141,
          142,
          143,
          144,
          145,
          146,
          147,
          148,
          149,
          150,
          151,
          152,
          153,
          154,
          155,
          156,
          157,
          158,
          159,
          160,
          161,
          162,
          163,
          164,
          165,
          166,
          167,
          168,
          169,
          170,
          171,
          172,
          173,
          174,
          175,
          176,
          177,
          178,
          179,
          180,
          181,
          182,
          183,
          184,
          185,
          186,
          187,
          188,
          189,
          190,
          191,
          192,
          193,
          194,
          195,
          196,
          197,
          198,
          199,
          200,
          201,
          202,
          203,
          204,
          205,
          206,
          207,
          208,
          209,
          210,
          211,
          212,
          213,
          214,
          215,
          216,
          217,
          218,
          219,
          220,
          221,
          222,
          223,
          224,
          225,
          226,
          227,
          228,
          229,
          230,
          231,
          232,
          233,
          234,
          235,
          236,
          237,
          238,
          239,
          240,
          241,
          242,
          243,
          244,
          245,
          246,
          247,
          248,
          249,
          250,
          251,
          252,
          253,
          254,
          255,
          256,
          257,
          258,
          259,
          260,
          261,
          262,
          263,
          264,
          265,
          266,
          267,
          268,
          269,
          270,
          271,
          272,
          273,
          274,
          275,
          276,
          277,
          278,
          279,
          280,
          281,
          282,
          283,
          284,
          285,
          286,
          287,
          288,
          289,
          290,
          291,
          292,
          293,
          294,
          295,
          296,
          297,
          298,
          299,
          300,
          301,
          302,
          303,
          304,
          305,
          306,
          307,
          308,
          309,
          310,
          311,
          312,
          313,
          314,
          315,
          316,
          317,
          318,
          319,
          320,
          321,
          322,
          323,
          324,
          325,
          326,
          327,
          328,
          329,
          330,
          331,
          332,
          333,
          334,
          335,
          336,
          337,
          338,
          339,
          340,
          341,
          342,
          343,
          344,
          345,
          346,
          347,
          348,
          349,
          350,
          351,
          352,
          353,
          354,
          355,
          356,
          357,
          358,
          359,
          360,
          361,
          362,
          363,
          364,
          365,
          366,
          367,
          368,
          369,
          370,
          371,
          372,
          373,
          374,
          375,
          376,
          377,
          378,
          379,
          380,
          381,
          382,
          383,
          384,
          385,
          386,
          387,
          388,
          389,
          390,
          391,
          392,
          393,
          394,
          395,
          396,
          397,
          398,
          399,
          400,
          401,
          402,
          403,
          404,
          405,
          406,
          407,
          408,
          409
        ],
        "AcquisitionTime": [
          "122509.650000",
          "122511.140000",
          "122512.630000",
          "122514.120000",
          "122515.610000",
          "122517.100000",
          "122518.590000",
          "122520.080000",
          "122521.570000",
          "122523.060000",
          "122524.550000",
          "122526.040000",
          "122527.530000",
          "122529.020000",
          "122530.510000",
          "122532.000000",
          "122533.490000",
          "122534.980000",
          "122536.470000",
          "122537.960000",
          "122539.450000",
          "122540.940000",
          "122542.430000",
          "122543.920000",
          "122545.410000",
          "122546.900000",
          "122548.390000",
          "122549.880000",
          "122551.370000",
          "122552.860000",
          "122554.350000",
          "122555.840000",
          "122557.330000",
          "122558.820000",
          "122600.310000",
          "122601.800000",
          "122603.290000",
          "122604.780000",
          "122606.270000",
          "122607.760000",
          "122609.250000",
          "122610.740000",
          "122612.230000",
          "122613.720000",
          "122615.210000",
          "122616.700000",
          "122618.190000",
          "122619.680000",
          "122621.170000",
          "122622.660000",
          "122624.150000",
          "122625.640000",
          "122627.130000",
          "122628.620000",
          "122630.110000",
          "122631.600000",
          "122633.090000",
          "122634.580000",
          "122636.070000",
          "122637.560000",
          "122639.050000",
          "122640.540000",
          "122642.030000",
          "122643.520000",
          "122645.010000",
          "122646.500000",
          "122647.990000",
          "122649.480000",
          "122650.970000",
          "122652.460000",
          "122653.950000",
          "122655.440000",
          "122656.930000",
          "122658.420000",
          "122659.910000",
          "122701.400000",
          "122702.890000",
          "122704.380000",
          "122705.870000",
          "122707.360000",
          "122708.850000",
          "122710.340000",
          "122711.830000",
          "122713.320000",
          "122714.810000",
          "122716.300000",
          "122717.790000",
          "122719.280000",
          "122720.770000",
          "122722.260000",
          "122723.750000",
          "122725.240000",
          "122726.730000",
          "122728.220000",
          "122729.710000",
          "122731.200000",
          "122732.690000",
          "122734.180000",
          "122735.670000",
          "122737.160000",
          "122738.650000",
          "122740.140000",
          "122741.630000",
          "122743.120000",
          "122744.610000",
          "122746.100000",
          "122747.590000",
          "122749.080000",
          "122750.570000",
          "122752.060000",
          "122753.550000",
          "122755.040000",
          "122756.530000",
          "122758.020000",
          "122759.510000",
          "122801.000000",
          "122802.490000",
          "122803.980000",
          "122805.470000",
          "122806.960000",
          "122808.450000",
          "122809.940000",
          "122811.430000",
          "122812.920000",
          "122814.410000",
          "122815.900000",
          "122817.390000",
          "122818.880000",
          "122820.370000",
          "122821.860000",
          "122823.350000",
          "122824.840000",
          "122826.330000",
          "122827.820000",
          "122829.310000",
          "122830.800000",
          "122832.290000",
          "122833.780000",
          "122835.270000",
          "122836.760000",
          "122838.250000",
          "122839.740000",
          "122841.230000",
          "122842.720000",
          "122844.210000",
          "122845.700000",
          "122847.190000",
          "122848.680000",
          "122850.170000",
          "122851.660000",
          "122853.150000",
          "122854.640000",
          "122856.130000",
          "122857.620000",
          "122859.110000",
          "122900.600000",
          "122902.090000",
          "122903.580000",
          "122905.070000",
          "122906.560000",
          "122908.050000",
          "122909.540000",
          "122911.030000",
          "122912.520000",
          "122914.010000",
          "122915.500000",
          "122916.990000",
          "122918.480000",
          "122919.970000",
          "122921.460000",
          "122922.950000",
          "122924.440000",
          "122925.930000",
          "122927.420000",
          "122928.910000",
          "122930.400000",
          "122931.890000",
          "122933.380000",
          "122934.870000",
          "122936.360000",
          "122937.850000",
          "122939.340000",
          "122940.830000",
          "122942.320000",
          "122943.810000",
          "122945.300000",
          "122946.790000",
          "122948.280000",
          "122949.770000",
          "122951.260000",
          "122952.750000",
          "122954.240000",
          "122955.730000",
          "122957.220000",
          "122958.710000",
          "123000.200000",
          "123001.690000",
          "123003.180000",
          "123004.670000",
          "123006.160000",
          "123007.650000",
          "123009.140000",
          "123010.630000",
          "123012.120000",
          "123013.610000",
          "123015.100000",
          "123016.590000",
          "123018.080000",
          "123019.570000",
          "123021.060000",
          "123022.550000",
          "123024.040000",
          "123025.530000",
          "123027.020000",
          "123028.510000",
          "123030.000000",
          "123031.490000",
          "123032.980000",
          "123034.470000",
          "123035.960000",
          "123037.450000",
          "123038.940000",
          "123040.430000",
          "123041.920000",
          "123043.410000",
          "123044.900000",
          "123046.390000",
          "123047.880000",
          "123049.370000",
          "123050.860000",
          "123052.350000",
          "123053.840000",
          "123055.330000",
          "123056.820000",
          "123058.310000",
          "123059.800000",
          "123101.290000",
          "123102.780000",
          "123104.270000",
          "123105.760000",
          "123107.250000",
          "123108.740000",
          "123110.230000",
          "123111.720000",
          "123113.210000",
          "123114.700000",
          "123116.190000",
          "123117.680000",
          "123119.170000",
          "123120.660000",
          "123122.150000",
          "123123.640000",
          "123125.130000",
          "123126.620000",
          "123128.110000",
          "123129.600000",
          "123131.090000",
          "123132.580000",
          "123134.070000",
          "123135.560000",
          "123137.050000",
          "123138.540000",
          "123140.030000",
          "123141.520000",
          "123143.010000",
          "123144.500000",
          "123145.990000",
          "123147.480000",
          "123148.970000",
          "123150.460000",
          "123151.950000",
          "123153.440000",
          "123154.930000",
          "123156.420000",
          "123157.910000",
          "123159.400000",
          "123200.890000",
          "123202.380000",
          "123203.870000",
          "123205.360000",
          "123206.850000",
          "123208.340000",
          "123209.830000",
          "123211.320000",
          "123212.810000",
          "123214.300000",
          "123215.790000",
          "123217.280000",
          "123218.770000",
          "123220.260000",
          "123221.750000",
          "123223.240000",
          "123224.730000",
          "123226.220000",
          "123227.710000",
          "123229.200000",
          "123230.690000",
          "123232.180000",
          "123233.670000",
          "123235.160000",
          "123236.650000",
          "123238.140000",
          "123239.630000",
          "123241.120000",
          "123242.610000",
          "123244.100000",
          "123245.590000",
          "123247.080000",
          "123248.570000",
          "123250.060000",
          "123251.550000",
          "123253.040000",
          "123254.530000",
          "123256.020000",
          "123257.510000",
          "123259.000000",
          "123300.490000",
          "123301.980000",
          "123303.470000",
          "123304.960000",
          "123306.450000",
          "123307.940000",
          "123309.430000",
          "123310.920000",
          "123312.410000",
          "123313.900000",
          "123315.390000",
          "123316.880000",
          "123318.370000",
          "123319.860000",
          "123321.350000",
          "123322.840000",
          "123324.330000",
          "123325.820000",
          "123327.310000",
          "123328.800000",
          "123330.290000",
          "123331.780000",
          "123333.270000",
          "123334.760000",
          "123336.250000",
          "123337.740000",
          "123339.230000",
          "123340.720000",
          "123342.210000",
          "123343.700000",
          "123345.190000",
          "123346.680000",
          "123348.170000",
          "123349.660000",
          "123351.150000",
          "123352.640000",
          "123354.130000",
          "123355.620000",
          "123357.110000",
          "123358.600000",
          "123400.090000",
          "123401.580000",
          "123403.070000",
          "123404.560000",
          "123406.050000",
          "123407.540000",
          "123409.030000",
          "123410.520000",
          "123412.010000",
          "123413.500000",
          "123414.990000",
          "123416.480000",
          "123417.970000",
          "123419.460000",
          "123420.950000",
          "123422.440000",
          "123423.930000",
          "123425.420000",
          "123426.910000",
          "123428.400000",
          "123429.890000",
          "123431.380000",
          "123432.870000",
          "123434.360000",
          "123435.850000",
          "123437.340000",
          "123438.830000",
          "123440.320000",
          "123441.810000",
          "123443.300000",
          "123444.790000",
          "123446.280000",
          "123447.770000",
          "123449.260000",
          "123450.750000",
          "123452.240000",
          "123453.730000",
          "123455.220000",
          "123456.710000",
          "123458.200000",
          "123459.690000",
          "123501.180000",
          "123502.670000",
          "123504.160000",
          "123505.650000",
          "123507.140000",
          "123508.630000",
          "123510.120000",
          "123511.610000",
          "123513.100000",
          "123514.590000",
          "123516.080000",
          "123517.570000"
        ],
        "ContentTime": [
          "122628.155000",
          "122628.159000",
          "122628.162000",
          "122628.165000",
          "122628.168000",
          "122628.171000",
          "122628.174000",
          "122628.177000",
          "122628.180000",
          "122628.183000",
          "122628.185000",
          "122628.188000",
          "122628.191000",
          "122628.194000",
          "122628.197000",
          "122628.207000",
          "122628.209000",
          "122628.213000",
          "122628.215000",
          "122628.218000",
          "122628.221000",
          "122628.224000",
          "122628.227000",
          "122628.230000",
          "122648.120000",
          "122648.123000",
          "122648.126000",
          "122648.129000",
          "122648.132000",
          "122648.134000",
          "122648.137000",
          "122648.140000",
          "122648.143000",
          "122648.146000",
          "122648.149000",
          "122648.151000",
          "122648.154000",
          "122648.157000",
          "122648.160000",
          "122648.163000",
          "122648.166000",
          "122648.169000",
          "122648.171000",
          "122648.174000",
          "122708.120000",
          "122708.123000",
          "122708.126000",
          "122708.128000",
          "122708.131000",
          "122708.134000",
          "122708.137000",
          "122708.140000",
          "122708.143000",
          "122708.146000",
          "122708.149000",
          "122708.152000",
          "122708.155000",
          "122708.157000",
          "122708.160000",
          "122708.163000",
          "122708.166000",
          "122708.169000",
          "122708.172000",
          "122708.230000",
          "122728.121000",
          "122728.124000",
          "122728.127000",
          "122728.129000",
          "122728.133000",
          "122728.135000",
          "122728.138000",
          "122728.141000",
          "122728.144000",
          "122728.147000",
          "122728.150000",
          "122728.152000",
          "122728.155000",
          "122728.158000",
          "122728.161000",
          "122728.164000",
          "122728.174000",
          "122728.177000",
          "122728.179000",
          "122728.182000",
          "122748.121000",
          "122748.124000",
          "122748.127000",
          "122748.130000",
          "122748.133000",
          "122748.136000",
          "122748.139000",
          "122748.142000",
          "122748.145000",
          "122748.148000",
          "122748.151000",
          "122748.153000",
          "122748.156000",
          "122748.159000",
          "122748.162000",
          "122748.165000",
          "122748.168000",
          "122748.171000",
          "122748.174000",
          "122748.177000",
          "122748.179000",
          "122828.121000",
          "122828.124000",
          "122828.127000",
          "122828.130000",
          "122828.133000",
          "122828.135000",
          "122828.138000",
          "122828.141000",
          "122828.148000",
          "122828.150000",
          "122828.153000",
          "122828.156000",
          "122828.159000",
          "122828.162000",
          "122828.165000",
          "122828.168000",
          "122828.171000",
          "122828.174000",
          "122828.176000",
          "122828.179000",
          "122828.182000",
          "122828.185000",
          "122828.188000",
          "122828.191000",
          "122828.207000",
          "122828.210000",
          "122828.213000",
          "122908.120000",
          "122908.123000",
          "122908.126000",
          "122908.129000",
          "122908.132000",
          "122908.134000",
          "122908.137000",
          "122908.140000",
          "122908.143000",
          "122908.146000",
          "122908.149000",
          "122908.152000",
          "122908.155000",
          "122908.157000",
          "122908.160000",
          "122908.163000",
          "122908.166000",
          "122908.169000",
          "122908.172000",
          "122908.175000",
          "122908.178000",
          "122908.181000",
          "122908.184000",
          "122908.187000",
          "122908.190000",
          "122908.192000",
          "122908.195000",
          "122948.121000",
          "122948.124000",
          "122948.127000",
          "122948.130000",
          "122948.141000",
          "122948.144000",
          "122948.147000",
          "122948.150000",
          "122948.153000",
          "122948.156000",
          "122948.159000",
          "122948.162000",
          "122948.165000",
          "122948.168000",
          "122948.170000",
          "122948.173000",
          "122948.176000",
          "122948.179000",
          "122948.182000",
          "122948.185000",
          "122948.188000",
          "122948.191000",
          "122948.193000",
          "122948.196000",
          "122948.199000",
          "122948.202000",
          "122948.205000",
          "123028.121000",
          "123028.124000",
          "123028.127000",
          "123028.130000",
          "123028.134000",
          "123028.137000",
          "123028.140000",
          "123028.142000",
          "123028.146000",
          "123028.148000",
          "123028.151000",
          "123028.154000",
          "123028.157000",
          "123028.160000",
          "123028.163000",
          "123028.166000",
          "123028.169000",
          "123028.172000",
          "123028.175000",
          "123028.178000",
          "123028.180000",
          "123028.183000",
          "123028.186000",
          "123028.189000",
          "123028.192000",
