{
  "aor": 0.0008427450980392157,
  "aqi": 0.007433000882352941,
  "bids_meta": {
    "AcquisitionMatrixPE": 104,
    "AcquisitionNumber": 1,
    "AcquisitionTime": "14:39:3.112500",
    "BandwidthPerPixelPhaseEncode": 17.17,
    "BaseResolution": 104,
    "BodyPartExamined": "BRAIN",
    "CogAtlasID": "trm_4c898da401420",
    "ConsistencyInfo": "N4_VE11C_LATEST_20160120",
    "ConversionSoftware": "dcm2niix",
    "ConversionSoftwareVersion": "v1.0.20171215 (OpenJPEG build) GCC7.3.0",
    "DerivedVendorReportedEchoSpacing": 0.000560011,
    "DeviceSerialNumber": "167006",
    "DwellTime": 2.1e-06,
    "EchoTime": 0.037,
    "EchoTrainLength": 104,
    "EffectiveEchoSpacing": 0.000560011,
    "FlipAngle": 52,
    "ImageComments": "Unaliased_MB4_PE3_LB",
    "ImageOrientationPatientDICOM": [
      0.999998,
      -0.00078449,
      -0.00191285,
      2.79624e-08,
      0.925219,
      -0.379433
    ],
    "ImageType": [
      "ORIGINAL",
      "PRIMARY",
      "M",
      "MB",
      "ND",
      "MOSAIC"
    ],
    "InPlanePhaseEncodingDirectionDICOM": "COL",
    "InstitutionAddress": "Chemin_Queen-Mary_4565_Montreal_District_CA_H3W_1W5",
    "InstitutionName": "IUGM",
    "InstitutionalDepartmentName": "Department",
    "MRAcquisitionType": "2D",
    "MagneticFieldStrength": 3,
    "Manufacturer": "Siemens",
    "ManufacturersModelName": "Prisma_fit",
    "Modality": "MR",
    "MultibandAccelerationFactor": 4,
    "PartialFourier": 1,
    "PatientPosition": "HFS",
    "PercentPhaseFOV": 100,
    "PhaseEncodingDirection": "j-",
    "PhaseEncodingSteps": 104,
    "PhaseResolution": 1,
    "PixelBandwidth": 2290,
    "ProcedureStepDescription": "video5_generic",
    "ProtocolName": "func_task-life_23",
    "PulseSequenceDetails": "%CustomerSeq%_cmrr_mbep2d_bold",
    "ReceiveCoilActiveElements": "HC1-7;NC1,2",
    "ReceiveCoilName": "HeadNeck_64",
    "ReconMatrixPE": 104,
    "RepetitionTime": 1.49,
    "SAR": 0.0290842,
    "ScanOptions": "FS",
    "ScanningSequence": "EP",
    "SequenceName": "epfid2d1_104",
    "SequenceVariant": "SK_SS",
    "SeriesDescription": "func_task-life_23",
    "SeriesNumber": 10,
    "ShimSetting": [
      635,
      -7245,
      -8852,
      520,
      39,
      -250,
      -192,
      -10
    ],
    "SliceThickness": 2,
    "SliceTiming": [
      0,
      0.785,
      0.0975,
      0.8825,
      0.195,
      0.98,
      0.295,
      1.0775,
      0.3925,
      1.175,
      0.49,
      1.275,
      0.5875,
      1.3725,
      0.685,
      0,
      0.785,
      0.0975,
      0.8825,
      0.195,
      0.98,
      0.295,
      1.0775,
      0.3925,
      1.175,
      0.49,
      1.275,
      0.5875,
      1.3725,
      0.685,
      0,
      0.785,
      0.0975,
      0.8825,
      0.195,
      0.98,
      0.295,
      1.0775,
      0.3925,
      1.175,
      0.49,
      1.275,
      0.5875,
      1.3725,
      0.685,
      0,
      0.785,
      0.0975,
      0.8825,
      0.195,
      0.98,
      0.295,
      1.0775,
      0.3925,
      1.175,
      0.49,
      1.275,
      0.5875,
      1.3725,
      0.685
    ],
    "SoftwareVersions": "syngo_MR_E11",
    "SpacingBetweenSlices": 2,
    "StationName": "MRC35049",
    "TaskName": "life03",
    "TotalReadoutTime": 0.0576811,
    "TxRefAmp": 219.238,
    "dataset": "<unset>",
    "dcmmeta_affine": [
      [
        -1.9999957084655762,
        5.592484697558575e-08,
        -0.004134935326874256,
        104.94476318359375
      ],
      [
        0.001568980747833848,
        1.8504388332366943,
        -0.7588635087013245,
        -63.34248352050781
      ],
      [
        -0.0038257010746747255,
        0.7588650584220886,
        1.8504348993301392,
        -78.03445434570312
      ],
      [
        0.0,
        0.0,
        0.0,
        1.0
      ]
    ],
    "dcmmeta_reorient_transform": [
      [
        0.0,
        -1.0,
        0.0,
        103.0
      ],
      [
        1.0,
        0.0,
        0.0,
        0.0
      ],
      [
        0.0,
        0.0,
        1.0,
        0.0
      ],
      [
        0.0,
        0.0,
        0.0,
        1.0
      ]
    ],
    "dcmmeta_shape": [
      104,
      104,
      60,
      410
    ],
    "dcmmeta_slice_dim": 2,
    "dcmmeta_version": 0.6,
    "global": {
      "const": {
        "AcquisitionMatrix": [
          104,
          0,
          0,
          104
        ],
        "AngioFlag": "N",
        "BitsAllocated": 16,
        "BitsStored": 16,
        "BodyPartExamined": "BRAIN",
        "Columns": 832,
        "EchoNumbers": 1,
        "EchoTime": 37.0,
        "EchoTrainLength": 104,
        "FlipAngle": 52.0,
        "HighBit": 15,
        "ImageOrientationPatient": [
          0.99999786278649,
          -0.0007844903755,
          -0.0019128505705,
          2.7962424e-08,
          0.92521940407737,
          -0.3794325425141
        ],
        "ImagePositionPatient": [
          -832.94323025439,
          -800.24133272751,
          277.74809415818
        ],
        "ImageType": [
          "ORIGINAL",
          "PRIMARY",
          "M",
          "MB",
          "ND",
          "MOSAIC"
        ],
        "ImagedNucleus": "1H",
        "ImagingFrequency": 123.259172,
        "InPlanePhaseEncodingDirection": "COL",
        "MRAcquisitionType": "2D",
        "MagneticFieldStrength": 3.0,
        "Manufacturer": "SIEMENS",
        "ManufacturerModelName": "Prisma_fit",
        "Modality": "MR",
        "NumberOfAverages": 1.0,
        "NumberOfPhaseEncodingSteps": 104,
        "PercentPhaseFieldOfView": 100.0,
        "PercentSampling": 100.0,
        "PerformedProcedureStepStartTime": "140000.916000",
        "PhotometricInterpretation": "MONOCHROME2",
        "PixelBandwidth": 2290.0,
        "PixelRepresentation": 0,
        "PixelSpacing": [
          2.0,
          2.0
        ],
        "ProtocolName": "func_task-life_23",
        "RepetitionTime": 1490.0,
        "Rows": 832,
        "SAR": 0.02908416952187,
        "SamplesPerPixel": 1,
        "ScanOptions": "FS",
        "ScanningSequence": "EP",
        "SequenceName": "epfid2d1_104",
        "SequenceVariant": [
          "SK",
          "SS"
        ],
        "SeriesDescription": "func_task-life_23",
        "SeriesNumber": 10,
        "SeriesTime": "144013.370000",
        "SliceLocation": -48.381660747158,
        "SliceThickness": 2.0,
        "SmallestImagePixelValue": 0,
        "SoftwareVersions": "syngo MR E11",
        "SpacingBetweenSlices": 2.0000000451491,
        "SpecificCharacterSet": "ISO_IR 100",
        "StudyID": "1",
        "StudyTime": "140000.843000",
        "TransmitCoilName": "Body",
        "VariableFlipAngleFlag": "N",
        "WindowCenterWidthExplanation": "Algo1",
        "dBdt": 0.0
      },
      "slices": {}
    },
    "modality": "bold",
    "run_id": 2,
    "session_id": "005",
    "subject_id": "06",
    "task_id": "life03",
    "time": {
      "samples": {
        "AcquisitionNumber": [
          1,
          2,
          3,
          4,
          5,
          6,
          7,
          8,
          9,
          10,
          11,
          12,
          13,
          14,
          15,
          16,
          17,
          18,
          19,
          20,
          21,
          22,
          23,
          24,
          25,
          26,
          27,
          28,
          29,
          30,
          31,
          32,
          33,
          34,
          35,
          36,
          37,
          38,
          39,
          40,
          41,
          42,
          43,
          44,
          45,
          46,
          47,
          48,
          49,
          50,
          51,
          52,
          53,
          54,
          55,
          56,
          57,
          58,
          59,
          60,
          61,
          62,
          63,
          64,
          65,
          66,
          67,
          68,
          69,
          70,
          71,
          72,
          73,
          74,
          75,
          76,
          77,
          78,
          79,
          80,
          81,
          82,
          83,
          84,
          85,
          86,
          87,
          88,
          89,
          90,
          91,
          92,
          93,
          94,
          95,
          96,
          97,
          98,
          99,
          100,
          101,
          102,
          103,
          104,
          105,
          106,
          107,
          108,
          109,
          110,
          111,
          112,
          113,
          114,
          115,
          116,
          117,
          118,
          119,
          120,
          121,
          122,
          123,
          124,
          125,
          126,
          127,
          128,
          129,
          130,
          131,
          132,
          133,
          134,
          135,
          136,
          137,
          138,
          139,
          140,
          141,
          142,
          143,
          144,
          145,
          146,
          147,
          148,
          149,
          150,
          151,
          152,
          153,
          154,
          155,
          156,
          157,
          158,
          159,
          160,
          161,
          162,
          163,
          164,
          165,
          166,
          167,
          168,
          169,
          170,
          171,
          172,
          173,
          174,
          175,
          176,
          177,
          178,
          179,
          180,
          181,
          182,
          183,
          184,
          185,
          186,
          187,
          188,
          189,
          190,
          191,
          192,
          193,
          194,
          195,
          196,
          197,
          198,
          199,
          200,
          201,
          202,
          203,
          204,
          205,
          206,
          207,
          208,
          209,
          210,
          211,
          212,
          213,
          214,
          215,
          216,
          217,
          218,
          219,
          220,
          221,
          222,
          223,
          224,
          225,
          226,
          227,
          228,
          229,
          230,
          231,
          232,
          233,
          234,
          235,
          236,
          237,
          238,
          239,
          240,
          241,
          242,
          243,
          244,
          245,
          246,
          247,
          248,
          249,
          250,
          251,
          252,
          253,
          254,
          255,
          256,
          257,
          258,
          259,
          260,
          261,
          262,
          263,
          264,
          265,
          266,
          267,
          268,
          269,
          270,
          271,
          272,
          273,
          274,
          275,
          276,
          277,
          278,
          279,
          280,
          281,
          282,
          283,
          284,
          285,
          286,
          287,
          288,
          289,
          290,
          291,
          292,
          293,
          294,
          295,
          296,
          297,
          298,
          299,
          300,
          301,
          302,
          303,
          304,
          305,
          306,
          307,
          308,
          309,
          310,
          311,
          312,
          313,
          314,
          315,
          316,
          317,
          318,
          319,
          320,
          321,
          322,
          323,
          324,
          325,
          326,
          327,
          328,
          329,
          330,
          331,
          332,
          333,
          334,
          335,
          336,
          337,
          338,
          339,
          340,
          341,
          342,
          343,
          344,
          345,
          346,
          347,
          348,
          349,
          350,
          351,
          352,
          353,
          354,
          355,
          356,
          357,
          358,
          359,
          360,
          361,
          362,
          363,
          364,
          365,
          366,
          367,
          368,
          369,
          370,
          371,
          372,
          373,
          374,
          375,
          376,
          377,
          378,
          379,
          380,
          381,
          382,
          383,
          384,
          385,
          386,
          387,
          388,
          389,
          390,
          391,
          392,
          393,
          394,
          395,
          396,
          397,
          398,
          399,
          400,
          401,
          402,
          403,
          404,
          405,
          406,
          407,
          408,
          409,
          410
        ],
        "AcquisitionTime": [
          "143903.112500",
          "143904.602500",
          "143906.092500",
          "143907.582500",
          "143909.072500",
          "143910.562500",
          "143912.052500",
          "143913.542500",
          "143915.032500",
          "143916.522500",
          "143918.012500",
          "143919.502500",
          "143920.992500",
          "143922.482500",
          "143923.972500",
          "143925.462500",
          "143926.952500",
          "143928.442500",
          "143929.932500",
          "143931.422500",
          "143932.912500",
          "143934.402500",
          "143935.892500",
          "143937.382500",
          "143938.872500",
          "143940.362500",
          "143941.852500",
          "143943.342500",
          "143944.832500",
          "143946.322500",
          "143947.812500",
          "143949.302500",
          "143950.792500",
          "143952.282500",
          "143953.772500",
          "143955.262500",
          "143956.752500",
          "143958.242500",
          "143959.732500",
          "144001.222500",
          "144002.712500",
          "144004.202500",
          "144005.692500",
          "144007.182500",
          "144008.672500",
          "144010.162500",
          "144011.652500",
          "144013.142500",
          "144014.632500",
          "144016.122500",
          "144017.612500",
          "144019.102500",
          "144020.592500",
          "144022.082500",
          "144023.572500",
          "144025.062500",
          "144026.552500",
          "144028.042500",
          "144029.532500",
          "144031.022500",
          "144032.512500",
          "144034.002500",
          "144035.492500",
          "144036.982500",
          "144038.472500",
          "144039.962500",
          "144041.452500",
          "144042.942500",
          "144044.432500",
          "144045.922500",
          "144047.412500",
          "144048.902500",
          "144050.392500",
          "144051.882500",
          "144053.372500",
          "144054.862500",
          "144056.352500",
          "144057.842500",
          "144059.332500",
          "144100.822500",
          "144102.312500",
          "144103.802500",
          "144105.292500",
          "144106.782500",
          "144108.272500",
          "144109.762500",
          "144111.252500",
          "144112.742500",
          "144114.232500",
          "144115.722500",
          "144117.212500",
          "144118.702500",
          "144120.192500",
          "144121.682500",
          "144123.172500",
          "144124.662500",
          "144126.152500",
          "144127.642500",
          "144129.132500",
          "144130.622500",
          "144132.112500",
          "144133.602500",
          "144135.092500",
          "144136.582500",
          "144138.072500",
          "144139.562500",
          "144141.052500",
          "144142.542500",
          "144144.032500",
          "144145.522500",
          "144147.012500",
          "144148.502500",
          "144149.992500",
          "144151.482500",
          "144152.972500",
          "144154.462500",
          "144155.952500",
          "144157.442500",
          "144158.932500",
          "144200.422500",
          "144201.912500",
          "144203.402500",
          "144204.892500",
          "144206.382500",
          "144207.872500",
          "144209.362500",
          "144210.852500",
          "144212.342500",
          "144213.832500",
          "144215.322500",
          "144216.812500",
          "144218.302500",
          "144219.792500",
          "144221.282500",
          "144222.772500",
          "144224.262500",
          "144225.752500",
          "144227.242500",
          "144228.732500",
          "144230.222500",
          "144231.712500",
          "144233.202500",
          "144234.692500",
          "144236.182500",
          "144237.672500",
          "144239.162500",
          "144240.652500",
          "144242.142500",
          "144243.632500",
          "144245.122500",
          "144246.612500",
          "144248.102500",
          "144249.592500",
          "144251.082500",
          "144252.572500",
          "144254.062500",
          "144255.552500",
          "144257.042500",
          "144258.532500",
          "144300.022500",
          "144301.512500",
          "144303.002500",
          "144304.492500",
          "144305.982500",
          "144307.472500",
          "144308.962500",
          "144310.452500",
          "144311.942500",
          "144313.432500",
          "144314.922500",
          "144316.412500",
          "144317.902500",
          "144319.392500",
          "144320.882500",
          "144322.372500",
          "144323.862500",
          "144325.352500",
          "144326.842500",
          "144328.332500",
          "144329.822500",
          "144331.312500",
          "144332.802500",
          "144334.292500",
          "144335.782500",
          "144337.272500",
          "144338.762500",
          "144340.252500",
          "144341.742500",
          "144343.232500",
          "144344.722500",
          "144346.212500",
          "144347.702500",
          "144349.192500",
          "144350.682500",
          "144352.172500",
          "144353.662500",
          "144355.152500",
          "144356.642500",
          "144358.132500",
          "144359.622500",
          "144401.112500",
          "144402.602500",
          "144404.092500",
          "144405.582500",
          "144407.072500",
          "144408.562500",
          "144410.052500",
          "144411.542500",
          "144413.032500",
          "144414.522500",
          "144416.012500",
          "144417.502500",
          "144418.992500",
          "144420.482500",
          "144421.972500",
          "144423.462500",
          "144424.952500",
          "144426.442500",
          "144427.932500",
          "144429.422500",
          "144430.912500",
          "144432.402500",
          "144433.892500",
          "144435.382500",
          "144436.872500",
          "144438.362500",
          "144439.852500",
          "144441.342500",
          "144442.832500",
          "144444.322500",
          "144445.812500",
          "144447.302500",
          "144448.792500",
          "144450.282500",
          "144451.772500",
          "144453.262500",
          "144454.752500",
          "144456.242500",
          "144457.732500",
          "144459.222500",
          "144500.712500",
          "144502.202500",
          "144503.692500",
          "144505.182500",
          "144506.672500",
          "144508.162500",
          "144509.652500",
          "144511.142500",
          "144512.632500",
          "144514.122500",
          "144515.612500",
          "144517.102500",
          "144518.592500",
          "144520.082500",
          "144521.572500",
          "144523.062500",
          "144524.552500",
          "144526.042500",
          "144527.532500",
          "144529.022500",
          "144530.512500",
          "144532.002500",
          "144533.492500",
          "144534.982500",
          "144536.472500",
          "144537.962500",
          "144539.452500",
          "144540.942500",
          "144542.432500",
          "144543.922500",
          "144545.412500",
          "144546.902500",
          "144548.392500",
          "144549.882500",
          "144551.372500",
          "144552.862500",
          "144554.352500",
          "144555.842500",
          "144557.332500",
          "144558.822500",
          "144600.312500",
          "144601.802500",
          "144603.292500",
          "144604.782500",
          "144606.272500",
          "144607.762500",
          "144609.252500",
          "144610.742500",
          "144612.232500",
          "144613.722500",
          "144615.212500",
          "144616.702500",
          "144618.192500",
          "144619.682500",
          "144621.172500",
          "144622.662500",
          "144624.152500",
          "144625.642500",
          "144627.132500",
          "144628.622500",
          "144630.112500",
          "144631.602500",
          "144633.092500",
          "144634.582500",
          "144636.072500",
          "144637.562500",
          "144639.052500",
          "144640.542500",
          "144642.032500",
          "144643.522500",
          "144645.012500",
          "144646.502500",
          "144647.992500",
          "144649.482500",
          "144650.972500",
          "144652.462500",
          "144653.952500",
          "144655.442500",
          "144656.932500",
          "144658.422500",
          "144659.912500",
          "144701.402500",
          "144702.892500",
          "144704.382500",
          "144705.872500",
          "144707.362500",
          "144708.852500",
          "144710.342500",
          "144711.832500",
          "144713.322500",
          "144714.812500",
          "144716.302500",
          "144717.792500",
          "144719.282500",
          "144720.772500",
          "144722.262500",
          "144723.752500",
          "144725.242500",
          "144726.732500",
          "144728.222500",
          "144729.712500",
          "144731.202500",
          "144732.692500",
          "144734.182500",
          "144735.672500",
          "144737.162500",
          "144738.652500",
          "144740.142500",
          "144741.632500",
          "144743.122500",
          "144744.612500",
          "144746.102500",
          "144747.592500",
          "144749.082500",
          "144750.572500",
          "144752.062500",
          "144753.552500",
          "144755.042500",
          "144756.532500",
          "144758.022500",
          "144759.512500",
          "144801.002500",
          "144802.492500",
          "144803.982500",
          "144805.472500",
          "144806.962500",
          "144808.452500",
          "144809.942500",
          "144811.432500",
          "144812.922500",
          "144814.412500",
          "144815.902500",
          "144817.392500",
          "144818.882500",
          "144820.372500",
          "144821.862500",
          "144823.352500",
          "144824.842500",
          "144826.332500",
          "144827.822500",
          "144829.312500",
          "144830.802500",
          "144832.292500",
          "144833.782500",
          "144835.272500",
          "144836.762500",
          "144838.252500",
          "144839.742500",
          "144841.232500",
          "144842.722500",
          "144844.212500",
          "144845.702500",
          "144847.192500",
          "144848.682500",
          "144850.172500",
          "144851.662500",
          "144853.152500",
          "144854.642500",
          "144856.132500",
          "144857.622500",
          "144859.112500",
          "144900.602500",
          "144902.092500",
          "144903.582500",
          "144905.072500",
          "144906.562500",
          "144908.052500",
          "144909.542500",
          "144911.032500",
          "144912.522500"
        ],
        "ContentTime": [
          "144013.373000",
          "144013.376000",
          "144013.379000",
          "144013.382000",
          "144013.385000",
          "144013.388000",
          "144013.391000",
          "144013.393000",
          "144013.396000",
          "144013.399000",
          "144013.402000",
          "144013.416000",
          "144013.419000",
          "144013.422000",
          "144013.425000",
          "144053.337000",
          "144053.340000",
          "144053.343000",
          "144053.346000",
          "144053.348000",
          "144053.358000",
          "144053.361000",
          "144053.364000",
          "144053.366000",
          "144053.369000",
          "144053.372000",
          "144053.375000",
          "144053.382000",
          "144053.385000",
          "144053.388000",
          "144053.391000",
          "144053.393000",
          "144053.396000",
          "144053.399000",
          "144053.402000",
          "144053.405000",
          "144053.407000",
          "144053.410000",
          "144053.413000",
          "144053.423000",
          "144053.426000",
          "144053.429000",
          "144053.432000",
          "144053.434000",
          "144053.437000",
          "144053.440000",
          "144053.443000",
          "144053.446000",
          "144053.449000",
          "144053.451000",
          "144053.454000",
          "144053.457000",
          "144053.460000",
          "144053.463000",
          "144113.337000",
          "144113.340000",
          "144113.342000",
          "144113.345000",
          "144113.353000",
          "144113.363000",
          "144113.366000",
          "144113.368000",
          "144113.371000",
          "144113.374000",
          "144113.386000",
          "144113.388000",
          "144113.391000",
          "144113.394000",
          "144113.397000",
          "144113.400000",
          "144113.402000",
          "144113.405000",
          "144113.408000",
          "144113.411000",
          "144133.338000",
          "144133.341000",
          "144133.344000",
          "144133.346000",
          "144133.349000",
          "144133.363000",
          "144133.366000",
          "144133.369000",
          "144133.372000",
          "144133.374000",
          "144133.377000",
          "144133.380000",
          "144133.383000",
          "144133.385000",
          "144133.388000",
          "144133.391000",
          "144133.394000",
          "144133.397000",
          "144133.400000",
          "144133.403000",
          "144213.337000",
          "144213.340000",
          "144213.343000",
          "144213.345000",
          "144213.348000",
          "144213.351000",
          "144213.354000",
          "144213.357000",
          "144213.359000",
          "144213.362000",
          "144213.365000",
          "144213.368000",
          "144213.370000",
          "144213.373000",
          "144213.376000",
          "144213.379000",
          "144213.388000",
          "144213.391000",
          "144213.394000",
          "144213.397000",
          "144213.400000",
          "144213.402000",
          "144213.405000",
          "144213.408000",
          "144213.411000",
          "144213.414000",
          "144213.417000",
          "144213.420000",
          "144213.422000",
          "144213.425000",
          "144213.428000",
          "144213.431000",
          "144213.434000",
          "144253.337000",
          "144253.340000",
          "144253.343000",
          "144253.346000",
          "144253.348000",
          "144253.351000",
          "144253.354000",
          "144253.357000",
          "144253.360000",
          "144253.370000",
          "144253.373000",
          "144253.376000",
          "144253.379000",
          "144253.382000",
          "144253.385000",
          "144253.388000",
          "144253.391000",
          "144253.394000",
          "144253.397000",
          "144253.400000",
          "144253.403000",
          "144253.406000",
          "144253.408000",
          "144253.411000",
          "144253.414000",
          "144253.417000",
          "144253.420000",
          "144333.337000",
          "144333.340000",
          "144333.343000",
          "144333.346000",
          "144333.349000",
          "144333.351000",
          "144333.354000",
          "144333.357000",
          "144333.360000",
          "144333.363000",
          "144333.365000",
          "144333.368000",
          "144333.371000",
          "144333.374000",
          "144333.377000",
          "144333.379000",
          "144333.382000",
          "144333.395000",
          "144333.397000",
          "144333.400000",
          "144333.403000",
          "144333.406000",
          "144333.409000",
          "144333.412000",
          "144333.415000",
          "144333.417000",
          "144333.420000",
          "144413.337000",
          "144413.340000",
          "144413.343000",
          "144413.346000",
          "144413.349000",
          "144413.352000",
          "144413.355000",
          "144413.358000",
          "144413.360000",
          "144413.363000",
          "144413.366000",
          "144413.369000",
          "144413.372000",
          "144413.374000",
          "144413.377000",
          "144413.380000",
          "144413.383000",
          "144413.386000",
          "144413.389000",
          "144413.392000",
          "144413.395000",
          "144413.397000",
          "144413.404000",
          "144413.406000",
          "144413.409000",
          "144413.412000",
          "144453.337000",
          "144453.340000",
          "144453.343000",
          "144453.345000",
          "144453.348000",
          "144453.351000",
          "144453.354000",
          "144453.357000",
          "144453.360000",
