{
  "aor": 0.0007454950495049505,
  "aqi": 0.00827227853960396,
  "bids_meta": {
    "AcquisitionMatrixPE": 104,
    "AcquisitionNumber": 1,
    "AcquisitionTime": "15:57:44.150000",
    "BandwidthPerPixelPhaseEncode": 17.17,
    "BaseResolution": 104,
    "BodyPartExamined": "BRAIN",
    "CogAtlasID": "trm_4c898da401420",
    "ConsistencyInfo": "N4_VE11C_LATEST_20160120",
    "ConversionSoftware": "dcm2niix",
    "ConversionSoftwareVersion": "v1.0.20171215 (OpenJPEG build) GCC7.3.0",
    "DerivedVendorReportedEchoSpacing": 0.000560011,
    "DeviceSerialNumber": "167006",
    "DwellTime": 2.1e-06,
    "EchoTime": 0.037,
    "EchoTrainLength": 104,
    "EffectiveEchoSpacing": 0.000560011,
    "FlipAngle": 52,
    "ImageComments": "Unaliased_MB4_PE3_LB",
    "ImageOrientationPatientDICOM": [
      0.999466,
      -0.0307567,
      0.0110692,
      0.0326318,
      0.918967,
      -0.392982
    ],
    "ImageType": [
      "ORIGINAL",
      "PRIMARY",
      "M",
      "MB",
      "ND",
      "MOSAIC"
    ],
    "InPlanePhaseEncodingDirectionDICOM": "COL",
    "InstitutionAddress": "Chemin_Queen-Mary_4565_Montreal_District_CA_H3W_1W5",
    "InstitutionName": "IUGM",
    "InstitutionalDepartmentName": "Department",
    "MRAcquisitionType": "2D",
    "MagneticFieldStrength": 3,
    "Manufacturer": "Siemens",
    "ManufacturersModelName": "Prisma_fit",
    "Modality": "MR",
    "MultibandAccelerationFactor": 4,
    "PartialFourier": 1,
    "PatientPosition": "HFS",
    "PercentPhaseFOV": 100,
    "PhaseEncodingDirection": "j",
    "PhaseEncodingSteps": 104,
    "PhaseResolution": 1,
    "PixelBandwidth": 2290,
    "ProcedureStepDescription": "video5_generic",
    "ProtocolName": "func_task-bourne5",
    "PulseSequenceDetails": "%CustomerSeq%_cmrr_mbep2d_bold",
    "ReceiveCoilActiveElements": "HC1-7;NC1,2",
    "ReceiveCoilName": "HeadNeck_64",
    "ReconMatrixPE": 104,
    "RepetitionTime": 1.49,
    "SAR": 0.0290824,
    "ScanOptions": "FS",
    "ScanningSequence": "EP",
    "SequenceName": "epfid2d1_104",
    "SequenceVariant": "SK_SS",
    "SeriesDescription": "func_task-bourne5",
    "SeriesNumber": 33,
    "ShimSetting": [
      636,
      -7245,
      -8838,
      575,
      45,
      -230,
      -152,
      -5
    ],
    "SliceThickness": 2,
    "SliceTiming": [
      0,
      0.785,
      0.1,
      0.8825,
      0.1975,
      0.98,
      0.295,
      1.08,
      0.3925,
      1.1775,
      0.49,
      1.275,
      0.59,
      1.3725,
      0.6875,
      0,
      0.785,
      0.1,
      0.8825,
      0.1975,
      0.98,
      0.295,
      1.08,
      0.3925,
      1.1775,
      0.49,
      1.275,
      0.59,
      1.3725,
      0.6875,
      0,
      0.785,
      0.1,
      0.8825,
      0.1975,
      0.98,
      0.295,
      1.08,
      0.3925,
      1.1775,
      0.49,
      1.275,
      0.59,
      1.3725,
      0.6875,
      0,
      0.785,
      0.1,
      0.8825,
      0.1975,
      0.98,
      0.295,
      1.08,
      0.3925,
      1.1775,
      0.49,
      1.275,
      0.59,
      1.3725,
      0.6875
    ],
    "SoftwareVersions": "syngo_MR_E11",
    "SpacingBetweenSlices": 2,
    "StationName": "MRC35049",
    "TaskName": "bourne05",
    "TotalReadoutTime": 0.0576811,
    "TxRefAmp": 219.238,
    "dataset": "<unset>",
    "dcmmeta_affine": [
      [
        -1.9989311695098877,
        0.06526368856430054,
        -0.0038292589597404003,
        98.5636978149414
      ],
      [
        0.06151346117258072,
        1.8379342555999756,
        -0.7862657904624939,
        -72.54728698730469
      ],
      [
        0.022138336673378944,
        0.7859633564949036,
        1.8389593362808228,
        -75.9166030883789
      ],
      [
        0.0,
        0.0,
        0.0,
        1.0
      ]
    ],
    "dcmmeta_reorient_transform": [
      [
        0.0,
        -1.0,
        0.0,
        103.0
      ],
      [
        1.0,
        0.0,
        0.0,
        0.0
      ],
      [
        0.0,
        0.0,
        1.0,
        0.0
      ],
      [
        0.0,
        0.0,
        0.0,
        1.0
      ]
    ],
    "dcmmeta_shape": [
      104,
      104,
      60,
      405
    ],
    "dcmmeta_slice_dim": 2,
    "dcmmeta_version": 0.6,
    "global": {
      "const": {
        "AcquisitionMatrix": [
          104,
          0,
          0,
          104
        ],
        "AngioFlag": "N",
        "BitsAllocated": 16,
        "BitsStored": 16,
        "BodyPartExamined": "BRAIN",
        "Columns": 832,
        "EchoNumbers": 1,
        "EchoTime": 37.0,
        "EchoTrainLength": 104,
        "FlipAngle": 52.0,
        "HighBit": 15,
        "ImageOrientationPatient": [
          0.99946560573854,
          -0.0307567302161,
          0.01106916853747,
          0.03263184242124,
          0.91896711904958,
          -0.3929816751019
        ],
        "ImagePositionPatient": [
          -856.65280025761,
          -763.37710040948,
          283.06992341817
        ],
        "ImageType": [
          "ORIGINAL",
          "PRIMARY",
          "M",
          "MB",
          "ND",
          "MOSAIC"
        ],
        "ImagedNucleus": "1H",
        "ImagingFrequency": 123.2592,
        "InPlanePhaseEncodingDirection": "COL",
        "MRAcquisitionType": "2D",
        "MagneticFieldStrength": 3.0,
        "Manufacturer": "SIEMENS",
        "ManufacturerModelName": "Prisma_fit",
        "Modality": "MR",
        "NumberOfAverages": 1.0,
        "NumberOfPhaseEncodingSteps": 104,
        "PercentPhaseFieldOfView": 100.0,
        "PercentSampling": 100.0,
        "PerformedProcedureStepStartTime": "140000.916000",
        "PhotometricInterpretation": "MONOCHROME2",
        "PixelBandwidth": 2290.0,
        "PixelRepresentation": 0,
        "PixelSpacing": [
          2.0,
          2.0
        ],
        "ProtocolName": "func_task-bourne5",
        "RepetitionTime": 1490.0,
        "Rows": 832,
        "SAR": 0.02908244221931,
        "SamplesPerPixel": 1,
        "ScanOptions": "FS",
        "ScanningSequence": "EP",
        "SequenceName": "epfid2d1_104",
        "SequenceVariant": [
          "SK",
          "SS"
        ],
        "SeriesDescription": "func_task-bourne5",
        "SeriesNumber": 33,
        "SeriesTime": "155844.536000",
        "SliceLocation": -41.471765331082,
        "SliceThickness": 2.0,
        "SmallestImagePixelValue": 0,
        "SoftwareVersions": "syngo MR E11",
        "SpacingBetweenSlices": 2.0000000278271,
        "SpecificCharacterSet": "ISO_IR 100",
        "StudyID": "1",
        "StudyTime": "140000.843000",
        "TransmitCoilName": "Body",
        "VariableFlipAngleFlag": "N",
        "WindowCenterWidthExplanation": "Algo1",
        "dBdt": 0.0
      },
      "slices": {}
    },
    "modality": "bold",
    "session_id": "005",
    "subject_id": "06",
    "task_id": "bourne05",
    "time": {
      "samples": {
        "AcquisitionNumber": [
          1,
          2,
          3,
          4,
          5,
          6,
          7,
          8,
          9,
          10,
          11,
          12,
          13,
          14,
          15,
          16,
          17,
          18,
          19,
          20,
          21,
          22,
          23,
          24,
          25,
          26,
          27,
          28,
          29,
          30,
          31,
          32,
          33,
          34,
          35,
          36,
          37,
          38,
          39,
          40,
          41,
          42,
          43,
          44,
          45,
          46,
          47,
          48,
          49,
          50,
          51,
          52,
          53,
          54,
          55,
          56,
          57,
          58,
          59,
          60,
          61,
          62,
          63,
          64,
          65,
          66,
          67,
          68,
          69,
          70,
          71,
          72,
          73,
          74,
          75,
          76,
          77,
          78,
          79,
          80,
          81,
          82,
          83,
          84,
          85,
          86,
          87,
          88,
          89,
          90,
          91,
          92,
          93,
          94,
          95,
          96,
          97,
          98,
          99,
          100,
          101,
          102,
          103,
          104,
          105,
          106,
          107,
          108,
          109,
          110,
          111,
          112,
          113,
          114,
          115,
          116,
          117,
          118,
          119,
          120,
          121,
          122,
          123,
          124,
          125,
          126,
          127,
          128,
          129,
          130,
          131,
          132,
          133,
          134,
          135,
          136,
          137,
          138,
          139,
          140,
          141,
          142,
          143,
          144,
          145,
          146,
          147,
          148,
          149,
          150,
          151,
          152,
          153,
          154,
          155,
          156,
          157,
          158,
          159,
          160,
          161,
          162,
          163,
          164,
          165,
          166,
          167,
          168,
          169,
          170,
          171,
          172,
          173,
          174,
          175,
          176,
          177,
          178,
          179,
          180,
          181,
          182,
          183,
          184,
          185,
          186,
          187,
          188,
          189,
          190,
          191,
          192,
          193,
          194,
          195,
          196,
          197,
          198,
          199,
          200,
          201,
          202,
          203,
          204,
          205,
          206,
          207,
          208,
          209,
          210,
          211,
          212,
          213,
          214,
          215,
          216,
          217,
          218,
          219,
          220,
          221,
          222,
          223,
          224,
          225,
          226,
          227,
          228,
          229,
          230,
          231,
          232,
          233,
          234,
          235,
          236,
          237,
          238,
          239,
          240,
          241,
          242,
          243,
          244,
          245,
          246,
          247,
          248,
          249,
          250,
          251,
          252,
          253,
          254,
          255,
          256,
          257,
          258,
          259,
          260,
          261,
          262,
          263,
          264,
          265,
          266,
          267,
          268,
          269,
          270,
          271,
          272,
          273,
          274,
          275,
          276,
          277,
          278,
          279,
          280,
          281,
          282,
          283,
          284,
          285,
          286,
          287,
          288,
          289,
          290,
          291,
          292,
          293,
          294,
          295,
          296,
          297,
          298,
          299,
          300,
          301,
          302,
          303,
          304,
          305,
          306,
          307,
          308,
          309,
          310,
          311,
          312,
          313,
          314,
          315,
          316,
          317,
          318,
          319,
          320,
          321,
          322,
          323,
          324,
          325,
          326,
          327,
          328,
          329,
          330,
          331,
          332,
          333,
          334,
          335,
          336,
          337,
          338,
          339,
          340,
          341,
          342,
          343,
          344,
          345,
          346,
          347,
          348,
          349,
          350,
          351,
          352,
          353,
          354,
          355,
          356,
          357,
          358,
          359,
          360,
          361,
          362,
          363,
          364,
          365,
          366,
          367,
          368,
          369,
          370,
          371,
          372,
          373,
          374,
          375,
          376,
          377,
          378,
          379,
          380,
          381,
          382,
          383,
          384,
          385,
          386,
          387,
          388,
          389,
          390,
          391,
          392,
          393,
          394,
          395,
          396,
          397,
          398,
          399,
          400,
          401,
          402,
          403,
          404,
          405
        ],
        "AcquisitionTime": [
          "155744.150000",
          "155745.640000",
          "155747.130000",
          "155748.620000",
          "155750.110000",
          "155751.600000",
          "155753.090000",
          "155754.580000",
          "155756.070000",
          "155757.560000",
          "155759.050000",
          "155800.540000",
          "155802.030000",
          "155803.520000",
          "155805.010000",
          "155806.500000",
          "155807.990000",
          "155809.480000",
          "155810.970000",
          "155812.460000",
          "155813.950000",
          "155815.440000",
          "155816.930000",
          "155818.420000",
          "155819.910000",
          "155821.400000",
          "155822.890000",
          "155824.380000",
          "155825.870000",
          "155827.360000",
          "155828.850000",
          "155830.340000",
          "155831.830000",
          "155833.320000",
          "155834.810000",
          "155836.300000",
          "155837.790000",
          "155839.280000",
          "155840.770000",
          "155842.260000",
          "155843.750000",
          "155845.240000",
          "155846.730000",
          "155848.220000",
          "155849.710000",
          "155851.200000",
          "155852.690000",
          "155854.180000",
          "155855.670000",
          "155857.160000",
          "155858.650000",
          "155900.140000",
          "155901.630000",
          "155903.120000",
          "155904.610000",
          "155906.100000",
          "155907.590000",
          "155909.080000",
          "155910.570000",
          "155912.060000",
          "155913.550000",
          "155915.040000",
          "155916.530000",
          "155918.020000",
          "155919.510000",
          "155921.000000",
          "155922.490000",
          "155923.980000",
          "155925.470000",
          "155926.960000",
          "155928.450000",
          "155929.940000",
          "155931.430000",
          "155932.920000",
          "155934.410000",
          "155935.900000",
          "155937.390000",
          "155938.880000",
          "155940.370000",
          "155941.860000",
          "155943.350000",
          "155944.840000",
          "155946.330000",
          "155947.820000",
          "155949.310000",
          "155950.800000",
          "155952.290000",
          "155953.780000",
          "155955.270000",
          "155956.760000",
          "155958.250000",
          "155959.740000",
          "160001.230000",
          "160002.720000",
          "160004.210000",
          "160005.700000",
          "160007.190000",
          "160008.680000",
          "160010.170000",
          "160011.660000",
          "160013.150000",
          "160014.640000",
          "160016.130000",
          "160017.620000",
          "160019.110000",
          "160020.600000",
          "160022.090000",
          "160023.580000",
          "160025.070000",
          "160026.560000",
          "160028.050000",
          "160029.540000",
          "160031.030000",
          "160032.520000",
          "160034.010000",
          "160035.500000",
          "160036.990000",
          "160038.480000",
          "160039.970000",
          "160041.460000",
          "160042.950000",
          "160044.440000",
          "160045.930000",
          "160047.420000",
          "160048.910000",
          "160050.400000",
          "160051.890000",
          "160053.380000",
          "160054.870000",
          "160056.360000",
          "160057.850000",
          "160059.340000",
          "160100.830000",
          "160102.320000",
          "160103.810000",
          "160105.300000",
          "160106.790000",
          "160108.280000",
          "160109.770000",
          "160111.260000",
          "160112.750000",
          "160114.240000",
          "160115.730000",
          "160117.220000",
          "160118.710000",
          "160120.200000",
          "160121.690000",
          "160123.180000",
          "160124.670000",
          "160126.160000",
          "160127.650000",
          "160129.140000",
          "160130.630000",
          "160132.120000",
          "160133.610000",
          "160135.100000",
          "160136.590000",
          "160138.080000",
          "160139.570000",
          "160141.060000",
          "160142.550000",
          "160144.040000",
          "160145.530000",
          "160147.020000",
          "160148.510000",
          "160150.000000",
          "160151.490000",
          "160152.980000",
          "160154.470000",
          "160155.960000",
          "160157.450000",
          "160158.940000",
          "160200.430000",
          "160201.920000",
          "160203.410000",
          "160204.900000",
          "160206.390000",
          "160207.880000",
          "160209.370000",
          "160210.860000",
          "160212.350000",
          "160213.840000",
          "160215.330000",
          "160216.820000",
          "160218.310000",
          "160219.800000",
          "160221.290000",
          "160222.780000",
          "160224.270000",
          "160225.760000",
          "160227.250000",
          "160228.740000",
          "160230.230000",
          "160231.720000",
          "160233.210000",
          "160234.700000",
          "160236.190000",
          "160237.680000",
          "160239.170000",
          "160240.660000",
          "160242.150000",
          "160243.640000",
          "160245.130000",
          "160246.620000",
          "160248.110000",
          "160249.600000",
          "160251.090000",
          "160252.580000",
          "160254.070000",
          "160255.560000",
          "160257.050000",
          "160258.540000",
          "160300.030000",
          "160301.520000",
          "160303.010000",
          "160304.500000",
          "160305.990000",
          "160307.480000",
          "160308.970000",
          "160310.460000",
          "160311.950000",
          "160313.440000",
          "160314.930000",
          "160316.420000",
          "160317.910000",
          "160319.400000",
          "160320.890000",
          "160322.380000",
          "160323.870000",
          "160325.360000",
          "160326.850000",
          "160328.340000",
          "160329.830000",
          "160331.320000",
          "160332.810000",
          "160334.300000",
          "160335.790000",
          "160337.280000",
          "160338.770000",
          "160340.260000",
          "160341.750000",
          "160343.240000",
          "160344.730000",
          "160346.220000",
          "160347.710000",
          "160349.200000",
          "160350.690000",
          "160352.180000",
          "160353.670000",
          "160355.160000",
          "160356.650000",
          "160358.140000",
          "160359.630000",
          "160401.120000",
          "160402.610000",
          "160404.100000",
          "160405.590000",
          "160407.080000",
          "160408.570000",
          "160410.060000",
          "160411.550000",
          "160413.040000",
          "160414.530000",
          "160416.020000",
          "160417.510000",
          "160419.000000",
          "160420.490000",
          "160421.980000",
          "160423.470000",
          "160424.960000",
          "160426.450000",
          "160427.940000",
          "160429.430000",
          "160430.920000",
          "160432.410000",
          "160433.900000",
          "160435.390000",
          "160436.880000",
          "160438.370000",
          "160439.860000",
          "160441.350000",
          "160442.840000",
          "160444.330000",
          "160445.820000",
          "160447.310000",
          "160448.800000",
          "160450.290000",
          "160451.780000",
          "160453.270000",
          "160454.760000",
          "160456.250000",
          "160457.740000",
          "160459.230000",
          "160500.720000",
          "160502.210000",
          "160503.700000",
          "160505.190000",
          "160506.680000",
          "160508.170000",
          "160509.660000",
          "160511.150000",
          "160512.640000",
          "160514.130000",
          "160515.620000",
          "160517.110000",
          "160518.600000",
          "160520.090000",
          "160521.580000",
          "160523.070000",
          "160524.560000",
          "160526.050000",
          "160527.540000",
          "160529.030000",
          "160530.520000",
          "160532.010000",
          "160533.500000",
          "160534.990000",
          "160536.480000",
          "160537.970000",
          "160539.460000",
          "160540.950000",
          "160542.440000",
          "160543.930000",
          "160545.420000",
          "160546.910000",
          "160548.400000",
          "160549.890000",
          "160551.380000",
          "160552.870000",
          "160554.360000",
          "160555.850000",
          "160557.340000",
          "160558.830000",
          "160600.320000",
          "160601.810000",
          "160603.300000",
          "160604.790000",
          "160606.280000",
          "160607.770000",
          "160609.260000",
          "160610.750000",
          "160612.240000",
          "160613.730000",
          "160615.220000",
          "160616.710000",
          "160618.200000",
          "160619.690000",
          "160621.180000",
          "160622.670000",
          "160624.160000",
          "160625.650000",
          "160627.140000",
          "160628.630000",
          "160630.120000",
          "160631.610000",
          "160633.100000",
          "160634.590000",
          "160636.080000",
          "160637.570000",
          "160639.060000",
          "160640.550000",
          "160642.040000",
          "160643.530000",
          "160645.020000",
          "160646.510000",
          "160648.000000",
          "160649.490000",
          "160650.980000",
          "160652.470000",
          "160653.960000",
          "160655.450000",
          "160656.940000",
          "160658.430000",
          "160659.920000",
          "160701.410000",
          "160702.900000",
          "160704.390000",
          "160705.880000",
          "160707.370000",
          "160708.860000",
          "160710.350000",
          "160711.840000",
          "160713.330000",
          "160714.820000",
          "160716.310000",
          "160717.800000",
          "160719.290000",
          "160720.780000",
          "160722.270000",
          "160723.760000",
          "160725.250000",
          "160726.740000",
          "160728.230000",
          "160729.720000",
          "160731.210000",
          "160732.700000",
          "160734.190000",
          "160735.680000",
          "160737.170000",
          "160738.660000",
          "160740.150000",
          "160741.640000",
          "160743.130000",
          "160744.620000",
          "160746.110000"
        ],
        "ContentTime": [
          "155844.538000",
          "155844.542000",
          "155844.545000",
          "155844.548000",
          "155844.551000",
          "155904.501000",
          "155904.504000",
          "155904.507000",
          "155904.510000",
          "155904.512000",
          "155904.515000",
          "155904.518000",
          "155904.521000",
          "155904.524000",
          "155904.527000",
          "155904.529000",
          "155904.532000",
          "155904.535000",
          "155904.538000",
          "155904.541000",
          "155904.544000",
          "155904.546000",
          "155904.549000",
          "155904.552000",
          "155904.555000",
          "155924.500000",
          "155924.503000",
          "155924.506000",
          "155924.509000",
          "155924.511000",
          "155924.514000",
          "155924.517000",
          "155924.520000",
          "155924.523000",
          "155924.526000",
          "155924.529000",
          "155924.531000",
          "155924.534000",
          "155924.537000",
          "155924.540000",
          "155924.543000",
          "155924.545000",
          "155924.548000",
          "155924.551000",
          "155924.554000",
          "155944.500000",
          "155944.503000",
          "155944.506000",
          "155944.509000",
          "155944.511000",
          "155944.514000",
          "155944.517000",
          "155944.520000",
          "155944.523000",
          "155944.526000",
          "155944.529000",
          "155944.532000",
          "155944.534000",
          "155944.537000",
          "155944.540000",
          "155944.543000",
          "155944.546000",
          "155944.549000",
          "155944.551000",
          "155944.554000",
          "160004.500000",
          "160004.503000",
          "160004.506000",
          "160004.508000",
          "160004.511000",
          "160004.514000",
          "160004.517000",
          "160004.520000",
          "160004.523000",
          "160004.525000",
          "160004.528000",
          "160004.531000",
          "160004.534000",
          "160004.537000",
          "160004.539000",
          "160004.542000",
          "160004.545000",
          "160004.548000",
          "160004.551000",
          "160004.553000",
          "160024.500000",
          "160024.503000",
          "160024.506000",
          "160024.508000",
          "160024.511000",
          "160024.514000",
          "160024.517000",
          "160024.520000",
          "160024.523000",
          "160024.526000",
          "160024.528000",
          "160024.531000",
          "160024.534000",
          "160024.537000",
          "160024.540000",
          "160024.542000",
          "160024.545000",
          "160024.548000",
          "160024.551000",
          "160024.554000",
          "160024.556000",
          "160104.500000",
          "160104.503000",
          "160104.506000",
          "160104.508000",
          "160104.511000",
          "160104.514000",
          "160104.517000",
          "160104.520000",
          "160104.522000",
          "160104.525000",
          "160104.528000",
          "160104.531000",
          "160104.534000",
          "160104.537000",
          "160104.540000",
          "160104.542000",
          "160104.545000",
          "160104.548000",
          "160104.551000",
          "160104.554000",
          "160104.556000",
          "160104.559000",
          "160104.562000",
          "160104.565000",
          "160104.568000",
          "160104.570000",
          "160104.573000",
          "160144.500000",
          "160144.503000",
          "160144.506000",
          "160144.509000",
          "160144.511000",
          "160144.514000",
          "160144.517000",
          "160144.520000",
          "160144.523000",
          "160144.536000",
          "160144.538000",
          "160144.541000",
          "160144.544000",
          "160144.547000",
          "160144.550000",
          "160144.553000",
          "160144.555000",
          "160144.558000",
          "160144.561000",
          "160144.564000",
          "160144.567000",
          "160144.570000",
          "160144.572000",
          "160144.575000",
          "160144.578000",
          "160144.581000",
          "160144.584000",
          "160224.500000",
          "160224.503000",
          "160224.506000",
          "160224.509000",
          "160224.511000",
          "160224.514000",
          "160224.517000",
          "160224.520000",
          "160224.523000",
          "160224.526000",
          "160224.529000",
          "160224.531000",
          "160224.534000",
          "160224.537000",
          "160224.540000",
          "160224.543000",
          "160224.546000",
          "160224.548000",
          "160224.551000",
          "160224.554000",
          "160224.557000",
          "160224.560000",
          "160224.563000",
          "160224.566000",
          "160224.568000",
          "160224.571000",
          "160224.574000",
          "160304.500000",
          "160304.503000",
          "160304.506000",
          "160304.509000",
          "160304.511000",
          "160304.514000",
          "160304.517000",
          "160304.520000",
          "160304.523000",
          "160304.526000",
          "160304.529000",
          "160304.531000",
          "160304.534000",
          "160304.537000",
          "160304.540000",
          "160304.543000",
          "160304.546000",
          "160304.548000",
          "160304.551000",
          "160304.554000",
          "160304.557000",
          "160304.560000",
          "160304.563000",
          "160304.565000",
          "160304.568000",
          "160304.571000",
          "160304.574000",
          "160344.501000",
          "160344.504000",
          "160344.507000",
          "160344.510000",
          "160344.513000",
          "160344.515000",
          "160344.518000",
          "160344.521000",
          "160344.524000",
          "160344.527000",
          "160344.530000",
          "160344.533000",
