{
  "aor": 0.0009008436724565758,
  "aqi": 0.00949350657568238,
  "bids_meta": {
    "AcquisitionMatrixPE": 104,
    "AcquisitionNumber": 1,
    "AcquisitionTime": "15:46:56.825000",
    "BandwidthPerPixelPhaseEncode": 17.17,
    "BaseResolution": 104,
    "BodyPartExamined": "BRAIN",
    "CogAtlasID": "trm_4c898da401420",
    "ConsistencyInfo": "N4_VE11C_LATEST_20160120",
    "ConversionSoftware": "dcm2niix",
    "ConversionSoftwareVersion": "v1.0.20171215 (OpenJPEG build) GCC7.3.0",
    "DerivedVendorReportedEchoSpacing": 0.000560011,
    "DeviceSerialNumber": "167006",
    "DwellTime": 2.1e-06,
    "EchoTime": 0.037,
    "EchoTrainLength": 104,
    "EffectiveEchoSpacing": 0.000560011,
    "FlipAngle": 52,
    "ImageComments": "Unaliased_MB4_PE3_LB",
    "ImageOrientationPatientDICOM": [
      0.999466,
      -0.0307567,
      0.0110692,
      0.0326318,
      0.918967,
      -0.392982
    ],
    "ImageType": [
      "ORIGINAL",
      "PRIMARY",
      "M",
      "MB",
      "ND",
      "MOSAIC"
    ],
    "InPlanePhaseEncodingDirectionDICOM": "COL",
    "InstitutionAddress": "Chemin_Queen-Mary_4565_Montreal_District_CA_H3W_1W5",
    "InstitutionName": "IUGM",
    "InstitutionalDepartmentName": "Department",
    "MRAcquisitionType": "2D",
    "MagneticFieldStrength": 3,
    "Manufacturer": "Siemens",
    "ManufacturersModelName": "Prisma_fit",
    "Modality": "MR",
    "MultibandAccelerationFactor": 4,
    "PartialFourier": 1,
    "PatientPosition": "HFS",
    "PercentPhaseFOV": 100,
    "PhaseEncodingDirection": "j",
    "PhaseEncodingSteps": 104,
    "PhaseResolution": 1,
    "PixelBandwidth": 2290,
    "ProcedureStepDescription": "video5_generic",
    "ProtocolName": "func_task-bourne4",
    "PulseSequenceDetails": "%CustomerSeq%_cmrr_mbep2d_bold",
    "ReceiveCoilActiveElements": "HC1-7;NC1,2",
    "ReceiveCoilName": "HeadNeck_64",
    "ReconMatrixPE": 104,
    "RepetitionTime": 1.49,
    "SAR": 0.0290824,
    "ScanOptions": "FS",
    "ScanningSequence": "EP",
    "SequenceName": "epfid2d1_104",
    "SequenceVariant": "SK_SS",
    "SeriesDescription": "func_task-bourne4",
    "SeriesNumber": 31,
    "ShimSetting": [
      636,
      -7245,
      -8838,
      575,
      45,
      -230,
      -152,
      -5
    ],
    "SliceThickness": 2,
    "SliceTiming": [
      0,
      0.7825,
      0.0975,
      0.8825,
      0.195,
      0.98,
      0.2925,
      1.0775,
      0.3925,
      1.175,
      0.49,
      1.2725,
      0.5875,
      1.3725,
      0.685,
      0,
      0.7825,
      0.0975,
      0.8825,
      0.195,
      0.98,
      0.2925,
      1.0775,
      0.3925,
      1.175,
      0.49,
      1.2725,
      0.5875,
      1.3725,
      0.685,
      0,
      0.7825,
      0.0975,
      0.8825,
      0.195,
      0.98,
      0.2925,
      1.0775,
      0.3925,
      1.175,
      0.49,
      1.2725,
      0.5875,
      1.3725,
      0.685,
      0,
      0.7825,
      0.0975,
      0.8825,
      0.195,
      0.98,
      0.2925,
      1.0775,
      0.3925,
      1.175,
      0.49,
      1.2725,
      0.5875,
      1.3725,
      0.685
    ],
    "SoftwareVersions": "syngo_MR_E11",
    "SpacingBetweenSlices": 2,
    "StationName": "MRC35049",
    "TaskName": "bourne04",
    "TotalReadoutTime": 0.0576811,
    "TxRefAmp": 219.238,
    "dataset": "<unset>",
    "dcmmeta_affine": [
      [
        -1.9989311695098877,
        0.06526368856430054,
        -0.0038292589597404003,
        98.5636978149414
      ],
      [
        0.06151346117258072,
        1.8379342555999756,
        -0.7862657904624939,
        -72.54728698730469
      ],
      [
        0.022138336673378944,
        0.7859633564949036,
        1.8389593362808228,
        -75.9166030883789
      ],
      [
        0.0,
        0.0,
        0.0,
        1.0
      ]
    ],
    "dcmmeta_reorient_transform": [
      [
        0.0,
        -1.0,
        0.0,
        103.0
      ],
      [
        1.0,
        0.0,
        0.0,
        0.0
      ],
      [
        0.0,
        0.0,
        1.0,
        0.0
      ],
      [
        0.0,
        0.0,
        0.0,
        1.0
      ]
    ],
    "dcmmeta_shape": [
      104,
      104,
      60,
      405
    ],
    "dcmmeta_slice_dim": 2,
    "dcmmeta_version": 0.6,
    "global": {
      "const": {
        "AcquisitionMatrix": [
          104,
          0,
          0,
          104
        ],
        "AngioFlag": "N",
        "BitsAllocated": 16,
        "BitsStored": 16,
        "BodyPartExamined": "BRAIN",
        "Columns": 832,
        "EchoNumbers": 1,
        "EchoTime": 37.0,
        "EchoTrainLength": 104,
        "FlipAngle": 52.0,
        "HighBit": 15,
        "ImageOrientationPatient": [
          0.99946560573854,
          -0.0307567302161,
          0.01106916853747,
          0.03263184242124,
          0.91896711904958,
          -0.3929816751019
        ],
        "ImagePositionPatient": [
          -856.65280025761,
          -763.37710040948,
          283.06992341817
        ],
        "ImageType": [
          "ORIGINAL",
          "PRIMARY",
          "M",
          "MB",
          "ND",
          "MOSAIC"
        ],
        "ImagedNucleus": "1H",
        "ImagingFrequency": 123.259197,
        "InPlanePhaseEncodingDirection": "COL",
        "MRAcquisitionType": "2D",
        "MagneticFieldStrength": 3.0,
        "Manufacturer": "SIEMENS",
        "ManufacturerModelName": "Prisma_fit",
        "Modality": "MR",
        "NumberOfAverages": 1.0,
        "NumberOfPhaseEncodingSteps": 104,
        "PercentPhaseFieldOfView": 100.0,
        "PercentSampling": 100.0,
        "PerformedProcedureStepStartTime": "140000.916000",
        "PhotometricInterpretation": "MONOCHROME2",
        "PixelBandwidth": 2290.0,
        "PixelRepresentation": 0,
        "PixelSpacing": [
          2.0,
          2.0
        ],
        "ProtocolName": "func_task-bourne4",
        "RepetitionTime": 1490.0,
        "Rows": 832,
        "SAR": 0.02908244221931,
        "SamplesPerPixel": 1,
        "ScanOptions": "FS",
        "ScanningSequence": "EP",
        "SequenceName": "epfid2d1_104",
        "SequenceVariant": [
          "SK",
          "SS"
        ],
        "SeriesDescription": "func_task-bourne4",
        "SeriesNumber": 31,
        "SeriesTime": "154825.655000",
        "SliceLocation": -41.471765331082,
        "SliceThickness": 2.0,
        "SmallestImagePixelValue": 0,
        "SoftwareVersions": "syngo MR E11",
        "SpacingBetweenSlices": 2.0000000278271,
        "SpecificCharacterSet": "ISO_IR 100",
        "StudyID": "1",
        "StudyTime": "140000.843000",
        "TransmitCoilName": "Body",
        "VariableFlipAngleFlag": "N",
        "WindowCenterWidthExplanation": "Algo1",
        "dBdt": 0.0
      },
      "slices": {}
    },
    "modality": "bold",
    "session_id": "005",
    "subject_id": "06",
    "task_id": "bourne04",
    "time": {
      "samples": {
        "AcquisitionNumber": [
          1,
          2,
          3,
          4,
          5,
          6,
          7,
          8,
          9,
          10,
          11,
          12,
          13,
          14,
          15,
          16,
          17,
          18,
          19,
          20,
          21,
          22,
          23,
          24,
          25,
          26,
          27,
          28,
          29,
          30,
          31,
          32,
          33,
          34,
          35,
          36,
          37,
          38,
          39,
          40,
          41,
          42,
          43,
          44,
          45,
          46,
          47,
          48,
          49,
          50,
          51,
          52,
          53,
          54,
          55,
          56,
          57,
          58,
          59,
          60,
          61,
          62,
          63,
          64,
          65,
          66,
          67,
          68,
          69,
          70,
          71,
          72,
          73,
          74,
          75,
          76,
          77,
          78,
          79,
          80,
          81,
          82,
          83,
          84,
          85,
          86,
          87,
          88,
          89,
          90,
          91,
          92,
          93,
          94,
          95,
          96,
          97,
          98,
          99,
          100,
          101,
          102,
          103,
          104,
          105,
          106,
          107,
          108,
          109,
          110,
          111,
          112,
          113,
          114,
          115,
          116,
          117,
          118,
          119,
          120,
          121,
          122,
          123,
          124,
          125,
          126,
          127,
          128,
          129,
          130,
          131,
          132,
          133,
          134,
          135,
          136,
          137,
          138,
          139,
          140,
          141,
          142,
          143,
          144,
          145,
          146,
          147,
          148,
          149,
          150,
          151,
          152,
          153,
          154,
          155,
          156,
          157,
          158,
          159,
          160,
          161,
          162,
          163,
          164,
          165,
          166,
          167,
          168,
          169,
          170,
          171,
          172,
          173,
          174,
          175,
          176,
          177,
          178,
          179,
          180,
          181,
          182,
          183,
          184,
          185,
          186,
          187,
          188,
          189,
          190,
          191,
          192,
          193,
          194,
          195,
          196,
          197,
          198,
          199,
          200,
          201,
          202,
          203,
          204,
          205,
          206,
          207,
          208,
          209,
          210,
          211,
          212,
          213,
          214,
          215,
          216,
          217,
          218,
          219,
          220,
          221,
          222,
          223,
          224,
          225,
          226,
          227,
          228,
          229,
          230,
          231,
          232,
          233,
          234,
          235,
          236,
          237,
          238,
          239,
          240,
          241,
          242,
          243,
          244,
          245,
          246,
          247,
          248,
          249,
          250,
          251,
          252,
          253,
          254,
          255,
          256,
          257,
          258,
          259,
          260,
          261,
          262,
          263,
          264,
          265,
          266,
          267,
          268,
          269,
          270,
          271,
          272,
          273,
          274,
          275,
          276,
          277,
          278,
          279,
          280,
          281,
          282,
          283,
          284,
          285,
          286,
          287,
          288,
          289,
          290,
          291,
          292,
          293,
          294,
          295,
          296,
          297,
          298,
          299,
          300,
          301,
          302,
          303,
          304,
          305,
          306,
          307,
          308,
          309,
          310,
          311,
          312,
          313,
          314,
          315,
          316,
          317,
          318,
          319,
          320,
          321,
          322,
          323,
          324,
          325,
          326,
          327,
          328,
          329,
          330,
          331,
          332,
          333,
          334,
          335,
          336,
          337,
          338,
          339,
          340,
          341,
          342,
          343,
          344,
          345,
          346,
          347,
          348,
          349,
          350,
          351,
          352,
          353,
          354,
          355,
          356,
          357,
          358,
          359,
          360,
          361,
          362,
          363,
          364,
          365,
          366,
          367,
          368,
          369,
          370,
          371,
          372,
          373,
          374,
          375,
          376,
          377,
          378,
          379,
          380,
          381,
          382,
          383,
          384,
          385,
          386,
          387,
          388,
          389,
          390,
          391,
          392,
          393,
          394,
          395,
          396,
          397,
          398,
          399,
          400,
          401,
          402,
          403,
          404,
          405
        ],
        "AcquisitionTime": [
          "154656.825000",
          "154658.315000",
          "154659.805000",
          "154701.295000",
          "154702.785000",
          "154704.275000",
          "154705.765000",
          "154707.255000",
          "154708.745000",
          "154710.235000",
          "154711.725000",
          "154713.215000",
          "154714.705000",
          "154716.195000",
          "154717.685000",
          "154719.175000",
          "154720.665000",
          "154722.155000",
          "154723.645000",
          "154725.135000",
          "154726.625000",
          "154728.115000",
          "154729.605000",
          "154731.095000",
          "154732.585000",
          "154734.075000",
          "154735.565000",
          "154737.055000",
          "154738.545000",
          "154740.035000",
          "154741.525000",
          "154743.015000",
          "154744.505000",
          "154745.995000",
          "154747.485000",
          "154748.975000",
          "154750.465000",
          "154751.955000",
          "154753.445000",
          "154754.935000",
          "154756.425000",
          "154757.915000",
          "154759.405000",
          "154800.895000",
          "154802.385000",
          "154803.875000",
          "154805.365000",
          "154806.855000",
          "154808.345000",
          "154809.835000",
          "154811.325000",
          "154812.815000",
          "154814.305000",
          "154815.795000",
          "154817.285000",
          "154818.775000",
          "154820.265000",
          "154821.755000",
          "154823.245000",
          "154824.735000",
          "154826.225000",
          "154827.715000",
          "154829.205000",
          "154830.695000",
          "154832.185000",
          "154833.675000",
          "154835.165000",
          "154836.655000",
          "154838.145000",
          "154839.635000",
          "154841.125000",
          "154842.615000",
          "154844.105000",
          "154845.595000",
          "154847.085000",
          "154848.575000",
          "154850.065000",
          "154851.555000",
          "154853.045000",
          "154854.535000",
          "154856.025000",
          "154857.515000",
          "154859.005000",
          "154900.495000",
          "154901.985000",
          "154903.475000",
          "154904.965000",
          "154906.455000",
          "154907.945000",
          "154909.435000",
          "154910.925000",
          "154912.415000",
          "154913.905000",
          "154915.395000",
          "154916.885000",
          "154918.375000",
          "154919.865000",
          "154921.355000",
          "154922.845000",
          "154924.335000",
          "154925.825000",
          "154927.315000",
          "154928.805000",
          "154930.295000",
          "154931.785000",
          "154933.275000",
          "154934.765000",
          "154936.255000",
          "154937.745000",
          "154939.235000",
          "154940.725000",
          "154942.215000",
          "154943.705000",
          "154945.195000",
          "154946.685000",
          "154948.175000",
          "154949.665000",
          "154951.155000",
          "154952.645000",
          "154954.135000",
          "154955.625000",
          "154957.115000",
          "154958.605000",
          "155000.095000",
          "155001.585000",
          "155003.075000",
          "155004.565000",
          "155006.055000",
          "155007.545000",
          "155009.035000",
          "155010.525000",
          "155012.015000",
          "155013.505000",
          "155014.995000",
          "155016.485000",
          "155017.975000",
          "155019.465000",
          "155020.955000",
          "155022.445000",
          "155023.935000",
          "155025.425000",
          "155026.915000",
          "155028.405000",
          "155029.895000",
          "155031.385000",
          "155032.875000",
          "155034.365000",
          "155035.855000",
          "155037.345000",
          "155038.835000",
          "155040.325000",
          "155041.815000",
          "155043.305000",
          "155044.795000",
          "155046.285000",
          "155047.775000",
          "155049.265000",
          "155050.755000",
          "155052.245000",
          "155053.735000",
          "155055.225000",
          "155056.715000",
          "155058.205000",
          "155059.695000",
          "155101.185000",
          "155102.675000",
          "155104.165000",
          "155105.655000",
          "155107.145000",
          "155108.635000",
          "155110.125000",
          "155111.615000",
          "155113.105000",
          "155114.595000",
          "155116.085000",
          "155117.575000",
          "155119.065000",
          "155120.555000",
          "155122.045000",
          "155123.535000",
          "155125.025000",
          "155126.515000",
          "155128.005000",
          "155129.495000",
          "155130.985000",
          "155132.475000",
          "155133.965000",
          "155135.455000",
          "155136.945000",
          "155138.435000",
          "155139.925000",
          "155141.415000",
          "155142.905000",
          "155144.395000",
          "155145.885000",
          "155147.375000",
          "155148.865000",
          "155150.355000",
          "155151.845000",
          "155153.335000",
          "155154.825000",
          "155156.315000",
          "155157.805000",
          "155159.295000",
          "155200.785000",
          "155202.275000",
          "155203.765000",
          "155205.255000",
          "155206.745000",
          "155208.235000",
          "155209.725000",
          "155211.215000",
          "155212.705000",
          "155214.195000",
          "155215.685000",
          "155217.175000",
          "155218.665000",
          "155220.155000",
          "155221.645000",
          "155223.135000",
          "155224.625000",
          "155226.115000",
          "155227.605000",
          "155229.095000",
          "155230.585000",
          "155232.075000",
          "155233.565000",
          "155235.055000",
          "155236.545000",
          "155238.035000",
          "155239.525000",
          "155241.015000",
          "155242.505000",
          "155243.995000",
          "155245.485000",
          "155246.975000",
          "155248.465000",
          "155249.955000",
          "155251.445000",
          "155252.935000",
          "155254.425000",
          "155255.915000",
          "155257.405000",
          "155258.895000",
          "155300.385000",
          "155301.875000",
          "155303.365000",
          "155304.855000",
          "155306.345000",
          "155307.835000",
          "155309.325000",
          "155310.815000",
          "155312.305000",
          "155313.795000",
          "155315.285000",
          "155316.775000",
          "155318.265000",
          "155319.755000",
          "155321.245000",
          "155322.735000",
          "155324.225000",
          "155325.715000",
          "155327.205000",
          "155328.695000",
          "155330.185000",
          "155331.675000",
          "155333.165000",
          "155334.655000",
          "155336.145000",
          "155337.635000",
          "155339.125000",
          "155340.615000",
          "155342.105000",
          "155343.595000",
          "155345.085000",
          "155346.575000",
          "155348.065000",
          "155349.555000",
          "155351.045000",
          "155352.535000",
          "155354.025000",
          "155355.515000",
          "155357.005000",
          "155358.495000",
          "155359.985000",
          "155401.475000",
          "155402.965000",
          "155404.455000",
          "155405.945000",
          "155407.435000",
          "155408.925000",
          "155410.415000",
          "155411.905000",
          "155413.395000",
          "155414.885000",
          "155416.375000",
          "155417.865000",
          "155419.355000",
          "155420.845000",
          "155422.335000",
          "155423.825000",
          "155425.315000",
          "155426.805000",
          "155428.295000",
          "155429.785000",
          "155431.275000",
          "155432.765000",
          "155434.255000",
          "155435.745000",
          "155437.235000",
          "155438.725000",
          "155440.215000",
          "155441.705000",
          "155443.195000",
          "155444.685000",
          "155446.175000",
          "155447.665000",
          "155449.155000",
          "155450.645000",
          "155452.135000",
          "155453.625000",
          "155455.115000",
          "155456.605000",
          "155458.095000",
          "155459.585000",
          "155501.075000",
          "155502.565000",
          "155504.055000",
          "155505.545000",
          "155507.035000",
          "155508.525000",
          "155510.015000",
          "155511.505000",
          "155512.995000",
          "155514.485000",
          "155515.975000",
          "155517.465000",
          "155518.955000",
          "155520.445000",
          "155521.935000",
          "155523.425000",
          "155524.915000",
          "155526.405000",
          "155527.895000",
          "155529.385000",
          "155530.875000",
          "155532.365000",
          "155533.855000",
          "155535.345000",
          "155536.835000",
          "155538.325000",
          "155539.815000",
          "155541.305000",
          "155542.795000",
          "155544.285000",
          "155545.775000",
          "155547.265000",
          "155548.755000",
          "155550.245000",
          "155551.735000",
          "155553.225000",
          "155554.715000",
          "155556.205000",
          "155557.695000",
          "155559.185000",
          "155600.675000",
          "155602.165000",
          "155603.655000",
          "155605.145000",
          "155606.635000",
          "155608.125000",
          "155609.615000",
          "155611.105000",
          "155612.595000",
          "155614.085000",
          "155615.575000",
          "155617.065000",
          "155618.555000",
          "155620.045000",
          "155621.535000",
          "155623.025000",
          "155624.515000",
          "155626.005000",
          "155627.495000",
          "155628.985000",
          "155630.475000",
          "155631.965000",
          "155633.455000",
          "155634.945000",
          "155636.435000",
          "155637.925000",
          "155639.415000",
          "155640.905000",
          "155642.395000",
          "155643.885000",
          "155645.375000",
          "155646.865000",
          "155648.355000",
          "155649.845000",
          "155651.335000",
          "155652.825000",
          "155654.315000",
          "155655.805000",
          "155657.295000",
          "155658.785000"
        ],
        "ContentTime": [
          "154825.657000",
          "154825.660000",
          "154825.672000",
          "154825.675000",
          "154825.677000",
          "154825.680000",
          "154825.683000",
          "154825.686000",
          "154825.689000",
          "154825.691000",
          "154825.694000",
          "154825.697000",
          "154825.700000",
          "154825.703000",
          "154825.706000",
          "154825.708000",
          "154825.711000",
          "154825.714000",
          "154825.717000",
          "154825.720000",
          "154825.722000",
          "154825.725000",
          "154825.728000",
          "154825.731000",
          "154825.734000",
          "154825.736000",
          "154825.739000",
          "154825.742000",
          "154825.745000",
          "154825.748000",
          "154825.750000",
          "154825.753000",
          "154825.756000",
          "154825.759000",
          "154825.762000",
          "154825.764000",
          "154845.623000",
          "154845.626000",
          "154845.629000",
          "154845.631000",
          "154845.634000",
          "154845.637000",
          "154845.640000",
          "154845.642000",
          "154845.645000",
          "154845.648000",
          "154845.651000",
          "154845.654000",
          "154845.657000",
          "154845.660000",
          "154845.663000",
          "154845.666000",
          "154845.668000",
          "154845.671000",
          "154845.674000",
          "154845.677000",
          "154905.623000",
          "154905.626000",
          "154905.628000",
          "154905.631000",
          "154905.634000",
          "154905.637000",
          "154905.640000",
          "154905.643000",
          "154905.645000",
          "154905.648000",
          "154905.651000",
          "154905.654000",
          "154905.657000",
          "154905.659000",
          "154905.662000",
          "154905.665000",
          "154905.668000",
          "154905.671000",
          "154905.673000",
          "154905.676000",
          "154925.622000",
          "154925.625000",
          "154925.628000",
          "154925.631000",
          "154925.633000",
          "154925.636000",
          "154925.639000",
          "154925.642000",
          "154925.645000",
          "154925.647000",
          "154925.650000",
          "154925.653000",
          "154925.656000",
          "154925.659000",
          "154925.661000",
          "154925.664000",
          "154925.667000",
          "154925.670000",
          "154925.673000",
          "154925.676000",
          "155005.623000",
          "155005.626000",
          "155005.629000",
          "155005.631000",
          "155005.634000",
          "155005.637000",
          "155005.640000",
          "155005.643000",
          "155005.646000",
          "155005.648000",
          "155005.651000",
          "155005.654000",
          "155005.657000",
          "155005.660000",
          "155005.663000",
          "155005.665000",
          "155005.668000",
          "155005.671000",
          "155005.674000",
          "155005.677000",
          "155005.680000",
          "155005.682000",
          "155005.685000",
          "155005.688000",
          "155005.691000",
          "155005.694000",
          "155005.696000",
          "155005.699000",
          "155005.702000",
          "155005.705000",
          "155045.623000",
          "155045.626000",
          "155045.628000",
          "155045.631000",
          "155045.634000",
          "155045.637000",
          "155045.640000",
          "155045.643000",
          "155045.645000",
          "155045.648000",
          "155045.651000",
          "155045.654000",
          "155045.657000",
          "155045.659000",
          "155045.662000",
          "155045.665000",
          "155045.668000",
          "155045.671000",
          "155045.674000",
          "155045.676000",
          "155045.679000",
          "155045.682000",
          "155045.685000",
          "155045.688000",
          "155045.690000",
          "155045.693000",
          "155045.696000",
          "155125.623000",
          "155125.626000",
          "155125.629000",
          "155125.632000",
          "155125.634000",
          "155125.637000",
          "155125.640000",
          "155125.643000",
          "155125.646000",
          "155125.649000",
          "155125.651000",
          "155125.654000",
          "155125.657000",
          "155125.660000",
          "155125.663000",
          "155125.665000",
          "155125.668000",
          "155125.671000",
          "155125.674000",
          "155125.677000",
          "155125.680000",
          "155125.683000",
          "155125.685000",
          "155125.688000",
          "155125.691000",
          "155125.694000",
          "155125.696000",
          "155205.623000",
          "155205.626000",
          "155205.629000",
          "155205.632000",
          "155205.634000",
          "155205.637000",
          "155205.640000",
          "155205.643000",
          "155205.646000",
          "155205.649000",
          "155205.651000",
          "155205.654000",
          "155205.657000",
          "155205.660000",
          "155205.663000",
          "155205.684000",
          "155205.687000",
          "155205.690000",
          "155205.693000",
          "155205.696000",
          "155205.699000",
          "155205.701000",
          "155205.704000",
          "155205.707000",
          "155205.710000",
          "155205.713000",
          "155205.716000",
          "155245.623000",
          "155245.626000",
          "155245.629000",
          "155245.632000",
          "155245.634000",
          "155245.637000",
          "155245.640000",
          "155245.643000",
          "155245.646000",
          "155245.649000",
          "155245.651000",
          "155245.654000",
          "155245.657000",
          "155245.660000",
          "155245.663000",
          "155245.666000",
          "155245.669000",
          "155245.671000",
