{
  "aor": 0.00043482843137254907,
  "aqi": 0.007830425882352941,
  "bids_meta": {
    "AcquisitionMatrixPE": 104,
    "AcquisitionNumber": 1,
    "AcquisitionTime": "14:49:53.832500",
    "BandwidthPerPixelPhaseEncode": 17.17,
    "BaseResolution": 104,
    "BodyPartExamined": "BRAIN",
    "CogAtlasID": "trm_4c898da401420",
    "ConsistencyInfo": "N4_VE11C_LATEST_20160120",
    "ConversionSoftware": "dcm2niix",
    "ConversionSoftwareVersion": "v1.0.20171215 (OpenJPEG build) GCC7.3.0",
    "DerivedVendorReportedEchoSpacing": 0.000560011,
    "DeviceSerialNumber": "167006",
    "DwellTime": 2.1e-06,
    "EchoTime": 0.037,
    "EchoTrainLength": 104,
    "EffectiveEchoSpacing": 0.000560011,
    "FlipAngle": 52,
    "ImageComments": "Unaliased_MB4_PE3_LB",
    "ImageOrientationPatientDICOM": [
      0.999998,
      -0.00078449,
      -0.00191285,
      2.79624e-08,
      0.925219,
      -0.379433
    ],
    "ImageType": [
      "ORIGINAL",
      "PRIMARY",
      "M",
      "MB",
      "ND",
      "MOSAIC"
    ],
    "InPlanePhaseEncodingDirectionDICOM": "COL",
    "InstitutionAddress": "Chemin_Queen-Mary_4565_Montreal_District_CA_H3W_1W5",
    "InstitutionName": "IUGM",
    "InstitutionalDepartmentName": "Department",
    "MRAcquisitionType": "2D",
    "MagneticFieldStrength": 3,
    "Manufacturer": "Siemens",
    "ManufacturersModelName": "Prisma_fit",
    "Modality": "MR",
    "MultibandAccelerationFactor": 4,
    "PartialFourier": 1,
    "PatientPosition": "HFS",
    "PercentPhaseFOV": 100,
    "PhaseEncodingDirection": "j-",
    "PhaseEncodingSteps": 104,
    "PhaseResolution": 1,
    "PixelBandwidth": 2290,
    "ProcedureStepDescription": "video5_generic",
    "ProtocolName": "func_task-life_24",
    "PulseSequenceDetails": "%CustomerSeq%_cmrr_mbep2d_bold",
    "ReceiveCoilActiveElements": "HC1-7;NC1,2",
    "ReceiveCoilName": "HeadNeck_64",
    "ReconMatrixPE": 104,
    "RepetitionTime": 1.49,
    "SAR": 0.0290838,
    "ScanOptions": "FS",
    "ScanningSequence": "EP",
    "SequenceName": "epfid2d1_104",
    "SequenceVariant": "SK_SS",
    "SeriesDescription": "func_task-life_24",
    "SeriesNumber": 12,
    "ShimSetting": [
      635,
      -7245,
      -8852,
      520,
      39,
      -250,
      -192,
      -10
    ],
    "SliceThickness": 2,
    "SliceTiming": [
      0,
      0.785,
      0.0975,
      0.8825,
      0.195,
      0.98,
      0.295,
      1.0775,
      0.3925,
      1.175,
      0.49,
      1.275,
      0.5875,
      1.3725,
      0.685,
      0,
      0.785,
      0.0975,
      0.8825,
      0.195,
      0.98,
      0.295,
      1.0775,
      0.3925,
      1.175,
      0.49,
      1.275,
      0.5875,
      1.3725,
      0.685,
      0,
      0.785,
      0.0975,
      0.8825,
      0.195,
      0.98,
      0.295,
      1.0775,
      0.3925,
      1.175,
      0.49,
      1.275,
      0.5875,
      1.3725,
      0.685,
      0,
      0.785,
      0.0975,
      0.8825,
      0.195,
      0.98,
      0.295,
      1.0775,
      0.3925,
      1.175,
      0.49,
      1.275,
      0.5875,
      1.3725,
      0.685
    ],
    "SoftwareVersions": "syngo_MR_E11",
    "SpacingBetweenSlices": 2,
    "StationName": "MRC35049",
    "TaskName": "life04",
    "TotalReadoutTime": 0.0576811,
    "TxRefAmp": 219.238,
    "dataset": "<unset>",
    "dcmmeta_affine": [
      [
        -1.9999957084655762,
        5.592484697558575e-08,
        -0.004134935326874256,
        104.94476318359375
      ],
      [
        0.001568980747833848,
        1.8504388332366943,
        -0.7588635087013245,
        -63.34248352050781
      ],
      [
        -0.0038257010746747255,
        0.7588650584220886,
        1.8504348993301392,
        -78.03445434570312
      ],
      [
        0.0,
        0.0,
        0.0,
        1.0
      ]
    ],
    "dcmmeta_reorient_transform": [
      [
        0.0,
        -1.0,
        0.0,
        103.0
      ],
      [
        1.0,
        0.0,
        0.0,
        0.0
      ],
      [
        0.0,
        0.0,
        1.0,
        0.0
      ],
      [
        0.0,
        0.0,
        0.0,
        1.0
      ]
    ],
    "dcmmeta_shape": [
      104,
      104,
      60,
      409
    ],
    "dcmmeta_slice_dim": 2,
    "dcmmeta_version": 0.6,
    "global": {
      "const": {
        "AcquisitionMatrix": [
          104,
          0,
          0,
          104
        ],
        "AngioFlag": "N",
        "BitsAllocated": 16,
        "BitsStored": 16,
        "BodyPartExamined": "BRAIN",
        "Columns": 832,
        "EchoNumbers": 1,
        "EchoTime": 37.0,
        "EchoTrainLength": 104,
        "FlipAngle": 52.0,
        "HighBit": 15,
        "ImageOrientationPatient": [
          0.99999786278649,
          -0.0007844903755,
          -0.0019128505705,
          2.7962424e-08,
          0.92521940407737,
          -0.3794325425141
        ],
        "ImagePositionPatient": [
          -832.94323025439,
          -800.24133272751,
          277.74809415818
        ],
        "ImageType": [
          "ORIGINAL",
          "PRIMARY",
          "M",
          "MB",
          "ND",
          "MOSAIC"
        ],
        "ImagedNucleus": "1H",
        "ImagingFrequency": 123.259182,
        "InPlanePhaseEncodingDirection": "COL",
        "MRAcquisitionType": "2D",
        "MagneticFieldStrength": 3.0,
        "Manufacturer": "SIEMENS",
        "ManufacturerModelName": "Prisma_fit",
        "Modality": "MR",
        "NumberOfAverages": 1.0,
        "NumberOfPhaseEncodingSteps": 104,
        "PercentPhaseFieldOfView": 100.0,
        "PercentSampling": 100.0,
        "PerformedProcedureStepStartTime": "140000.916000",
        "PhotometricInterpretation": "MONOCHROME2",
        "PixelBandwidth": 2290.0,
        "PixelRepresentation": 0,
        "PixelSpacing": [
          2.0,
          2.0
        ],
        "ProtocolName": "func_task-life_24",
        "RepetitionTime": 1490.0,
        "Rows": 832,
        "SAR": 0.0290838268963,
        "SamplesPerPixel": 1,
        "ScanOptions": "FS",
        "ScanningSequence": "EP",
        "SequenceName": "epfid2d1_104",
        "SequenceVariant": [
          "SK",
          "SS"
        ],
        "SeriesDescription": "func_task-life_24",
        "SeriesNumber": 12,
        "SeriesTime": "145125.651000",
        "SliceLocation": -48.381660747158,
        "SliceThickness": 2.0,
        "SmallestImagePixelValue": 0,
        "SoftwareVersions": "syngo MR E11",
        "SpacingBetweenSlices": 2.0000000451491,
        "SpecificCharacterSet": "ISO_IR 100",
        "StudyID": "1",
        "StudyTime": "140000.843000",
        "TransmitCoilName": "Body",
        "VariableFlipAngleFlag": "N",
        "WindowCenterWidthExplanation": "Algo1",
        "dBdt": 0.0
      },
      "slices": {}
    },
    "modality": "bold",
    "run_id": 2,
    "session_id": "005",
    "subject_id": "06",
    "task_id": "life04",
    "time": {
      "samples": {
        "AcquisitionNumber": [
          1,
          2,
          3,
          4,
          5,
          6,
          7,
          8,
          9,
          10,
          11,
          12,
          13,
          14,
          15,
          16,
          17,
          18,
          19,
          20,
          21,
          22,
          23,
          24,
          25,
          26,
          27,
          28,
          29,
          30,
          31,
          32,
          33,
          34,
          35,
          36,
          37,
          38,
          39,
          40,
          41,
          42,
          43,
          44,
          45,
          46,
          47,
          48,
          49,
          50,
          51,
          52,
          53,
          54,
          55,
          56,
          57,
          58,
          59,
          60,
          61,
          62,
          63,
          64,
          65,
          66,
          67,
          68,
          69,
          70,
          71,
          72,
          73,
          74,
          75,
          76,
          77,
          78,
          79,
          80,
          81,
          82,
          83,
          84,
          85,
          86,
          87,
          88,
          89,
          90,
          91,
          92,
          93,
          94,
          95,
          96,
          97,
          98,
          99,
          100,
          101,
          102,
          103,
          104,
          105,
          106,
          107,
          108,
          109,
          110,
          111,
          112,
          113,
          114,
          115,
          116,
          117,
          118,
          119,
          120,
          121,
          122,
          123,
          124,
          125,
          126,
          127,
          128,
          129,
          130,
          131,
          132,
          133,
          134,
          135,
          136,
          137,
          138,
          139,
          140,
          141,
          142,
          143,
          144,
          145,
          146,
          147,
          148,
          149,
          150,
          151,
          152,
          153,
          154,
          155,
          156,
          157,
          158,
          159,
          160,
          161,
          162,
          163,
          164,
          165,
          166,
          167,
          168,
          169,
          170,
          171,
          172,
          173,
          174,
          175,
          176,
          177,
          178,
          179,
          180,
          181,
          182,
          183,
          184,
          185,
          186,
          187,
          188,
          189,
          190,
          191,
          192,
          193,
          194,
          195,
          196,
          197,
          198,
          199,
          200,
          201,
          202,
          203,
          204,
          205,
          206,
          207,
          208,
          209,
          210,
          211,
          212,
          213,
          214,
          215,
          216,
          217,
          218,
          219,
          220,
          221,
          222,
          223,
          224,
          225,
          226,
          227,
          228,
          229,
          230,
          231,
          232,
          233,
          234,
          235,
          236,
          237,
          238,
          239,
          240,
          241,
          242,
          243,
          244,
          245,
          246,
          247,
          248,
          249,
          250,
          251,
          252,
          253,
          254,
          255,
          256,
          257,
          258,
          259,
          260,
          261,
          262,
          263,
          264,
          265,
          266,
          267,
          268,
          269,
          270,
          271,
          272,
          273,
          274,
          275,
          276,
          277,
          278,
          279,
          280,
          281,
          282,
          283,
          284,
          285,
          286,
          287,
          288,
          289,
          290,
          291,
          292,
          293,
          294,
          295,
          296,
          297,
          298,
          299,
          300,
          301,
          302,
          303,
          304,
          305,
          306,
          307,
          308,
          309,
          310,
          311,
          312,
          313,
          314,
          315,
          316,
          317,
          318,
          319,
          320,
          321,
          322,
          323,
          324,
          325,
          326,
          327,
          328,
          329,
          330,
          331,
          332,
          333,
          334,
          335,
          336,
          337,
          338,
          339,
          340,
          341,
          342,
          343,
          344,
          345,
          346,
          347,
          348,
          349,
          350,
          351,
          352,
          353,
          354,
          355,
          356,
          357,
          358,
          359,
          360,
          361,
          362,
          363,
          364,
          365,
          366,
          367,
          368,
          369,
          370,
          371,
          372,
          373,
          374,
          375,
          376,
          377,
          378,
          379,
          380,
          381,
          382,
          383,
          384,
          385,
          386,
          387,
          388,
          389,
          390,
          391,
          392,
          393,
          394,
          395,
          396,
          397,
          398,
          399,
          400,
          401,
          402,
          403,
          404,
          405,
          406,
          407,
          408,
          409
        ],
        "AcquisitionTime": [
          "144953.832500",
          "144955.322500",
          "144956.812500",
          "144958.302500",
          "144959.792500",
          "145001.282500",
          "145002.772500",
          "145004.262500",
          "145005.752500",
          "145007.242500",
          "145008.732500",
          "145010.222500",
          "145011.712500",
          "145013.202500",
          "145014.692500",
          "145016.182500",
          "145017.672500",
          "145019.162500",
          "145020.652500",
          "145022.142500",
          "145023.632500",
          "145025.122500",
          "145026.612500",
          "145028.102500",
          "145029.592500",
          "145031.082500",
          "145032.572500",
          "145034.062500",
          "145035.552500",
          "145037.042500",
          "145038.532500",
          "145040.022500",
          "145041.512500",
          "145043.002500",
          "145044.492500",
          "145045.982500",
          "145047.472500",
          "145048.962500",
          "145050.452500",
          "145051.942500",
          "145053.432500",
          "145054.922500",
          "145056.412500",
          "145057.902500",
          "145059.392500",
          "145100.882500",
          "145102.372500",
          "145103.862500",
          "145105.352500",
          "145106.842500",
          "145108.332500",
          "145109.822500",
          "145111.312500",
          "145112.802500",
          "145114.292500",
          "145115.782500",
          "145117.272500",
          "145118.762500",
          "145120.252500",
          "145121.742500",
          "145123.232500",
          "145124.722500",
          "145126.212500",
          "145127.702500",
          "145129.192500",
          "145130.682500",
          "145132.172500",
          "145133.662500",
          "145135.152500",
          "145136.642500",
          "145138.132500",
          "145139.622500",
          "145141.112500",
          "145142.602500",
          "145144.092500",
          "145145.582500",
          "145147.072500",
          "145148.562500",
          "145150.052500",
          "145151.542500",
          "145153.032500",
          "145154.522500",
          "145156.012500",
          "145157.502500",
          "145158.992500",
          "145200.482500",
          "145201.972500",
          "145203.462500",
          "145204.952500",
          "145206.442500",
          "145207.932500",
          "145209.422500",
          "145210.912500",
          "145212.402500",
          "145213.892500",
          "145215.382500",
          "145216.872500",
          "145218.362500",
          "145219.852500",
          "145221.342500",
          "145222.832500",
          "145224.322500",
          "145225.812500",
          "145227.302500",
          "145228.792500",
          "145230.282500",
          "145231.772500",
          "145233.262500",
          "145234.752500",
          "145236.242500",
          "145237.732500",
          "145239.222500",
          "145240.712500",
          "145242.202500",
          "145243.692500",
          "145245.182500",
          "145246.672500",
          "145248.162500",
          "145249.652500",
          "145251.142500",
          "145252.632500",
          "145254.122500",
          "145255.612500",
          "145257.102500",
          "145258.592500",
          "145300.082500",
          "145301.572500",
          "145303.062500",
          "145304.552500",
          "145306.042500",
          "145307.532500",
          "145309.022500",
          "145310.512500",
          "145312.002500",
          "145313.492500",
          "145314.982500",
          "145316.472500",
          "145317.962500",
          "145319.452500",
          "145320.942500",
          "145322.432500",
          "145323.922500",
          "145325.412500",
          "145326.902500",
          "145328.392500",
          "145329.882500",
          "145331.372500",
          "145332.862500",
          "145334.352500",
          "145335.842500",
          "145337.332500",
          "145338.822500",
          "145340.312500",
          "145341.802500",
          "145343.292500",
          "145344.782500",
          "145346.272500",
          "145347.762500",
          "145349.252500",
          "145350.742500",
          "145352.232500",
          "145353.722500",
          "145355.212500",
          "145356.702500",
          "145358.192500",
          "145359.682500",
          "145401.172500",
          "145402.662500",
          "145404.152500",
          "145405.642500",
          "145407.132500",
          "145408.622500",
          "145410.112500",
          "145411.602500",
          "145413.092500",
          "145414.582500",
          "145416.072500",
          "145417.562500",
          "145419.052500",
          "145420.542500",
          "145422.032500",
          "145423.522500",
          "145425.012500",
          "145426.502500",
          "145427.992500",
          "145429.482500",
          "145430.972500",
          "145432.462500",
          "145433.952500",
          "145435.442500",
          "145436.932500",
          "145438.422500",
          "145439.912500",
          "145441.402500",
          "145442.892500",
          "145444.382500",
          "145445.872500",
          "145447.362500",
          "145448.852500",
          "145450.342500",
          "145451.832500",
          "145453.322500",
          "145454.812500",
          "145456.302500",
          "145457.792500",
          "145459.282500",
          "145500.772500",
          "145502.262500",
          "145503.752500",
          "145505.242500",
          "145506.732500",
          "145508.222500",
          "145509.712500",
          "145511.202500",
          "145512.692500",
          "145514.182500",
          "145515.672500",
          "145517.162500",
          "145518.652500",
          "145520.142500",
          "145521.632500",
          "145523.122500",
          "145524.612500",
          "145526.102500",
          "145527.592500",
          "145529.082500",
          "145530.572500",
          "145532.062500",
          "145533.552500",
          "145535.042500",
          "145536.532500",
          "145538.022500",
          "145539.512500",
          "145541.002500",
          "145542.492500",
          "145543.982500",
          "145545.472500",
          "145546.962500",
          "145548.452500",
          "145549.942500",
          "145551.432500",
          "145552.922500",
          "145554.412500",
          "145555.902500",
          "145557.392500",
          "145558.882500",
          "145600.372500",
          "145601.862500",
          "145603.352500",
          "145604.842500",
          "145606.332500",
          "145607.822500",
          "145609.312500",
          "145610.802500",
          "145612.292500",
          "145613.782500",
          "145615.272500",
          "145616.762500",
          "145618.252500",
          "145619.742500",
          "145621.232500",
          "145622.722500",
          "145624.212500",
          "145625.702500",
          "145627.192500",
          "145628.682500",
          "145630.172500",
          "145631.662500",
          "145633.152500",
          "145634.642500",
          "145636.132500",
          "145637.622500",
          "145639.112500",
          "145640.602500",
          "145642.092500",
          "145643.582500",
          "145645.072500",
          "145646.562500",
          "145648.052500",
          "145649.542500",
          "145651.032500",
          "145652.522500",
          "145654.012500",
          "145655.502500",
          "145656.992500",
          "145658.482500",
          "145659.972500",
          "145701.462500",
          "145702.952500",
          "145704.442500",
          "145705.932500",
          "145707.422500",
          "145708.912500",
          "145710.402500",
          "145711.892500",
          "145713.382500",
          "145714.872500",
          "145716.362500",
          "145717.852500",
          "145719.342500",
          "145720.832500",
          "145722.322500",
          "145723.812500",
          "145725.302500",
          "145726.792500",
          "145728.282500",
          "145729.772500",
          "145731.262500",
          "145732.752500",
          "145734.242500",
          "145735.732500",
          "145737.222500",
          "145738.712500",
          "145740.202500",
          "145741.692500",
          "145743.182500",
          "145744.672500",
          "145746.162500",
          "145747.652500",
          "145749.142500",
          "145750.632500",
          "145752.122500",
          "145753.612500",
          "145755.102500",
          "145756.592500",
          "145758.082500",
          "145759.572500",
          "145801.062500",
          "145802.552500",
          "145804.042500",
          "145805.532500",
          "145807.022500",
          "145808.512500",
          "145810.002500",
          "145811.492500",
          "145812.982500",
          "145814.472500",
          "145815.962500",
          "145817.452500",
          "145818.942500",
          "145820.432500",
          "145821.922500",
          "145823.412500",
          "145824.902500",
          "145826.392500",
          "145827.882500",
          "145829.372500",
          "145830.862500",
          "145832.352500",
          "145833.842500",
          "145835.332500",
          "145836.822500",
          "145838.312500",
          "145839.802500",
          "145841.292500",
          "145842.782500",
          "145844.272500",
          "145845.762500",
          "145847.252500",
          "145848.742500",
          "145850.232500",
          "145851.722500",
          "145853.212500",
          "145854.702500",
          "145856.192500",
          "145857.682500",
          "145859.172500",
          "145900.662500",
          "145902.152500",
          "145903.642500",
          "145905.132500",
          "145906.622500",
          "145908.112500",
          "145909.602500",
          "145911.092500",
          "145912.582500",
          "145914.072500",
          "145915.562500",
          "145917.052500",
          "145918.542500",
          "145920.032500",
          "145921.522500",
          "145923.012500",
          "145924.502500",
          "145925.992500",
          "145927.482500",
          "145928.972500",
          "145930.462500",
          "145931.952500",
          "145933.442500",
          "145934.932500",
          "145936.422500",
          "145937.912500",
          "145939.402500",
          "145940.892500",
          "145942.382500",
          "145943.872500",
          "145945.362500",
          "145946.852500",
          "145948.342500",
          "145949.832500",
          "145951.322500",
          "145952.812500",
          "145954.302500",
          "145955.792500",
          "145957.282500",
          "145958.772500",
          "150000.262500",
          "150001.752500"
        ],
        "ContentTime": [
          "145125.653000",
          "145125.657000",
          "145125.660000",
          "145125.662000",
          "145125.665000",
          "145125.668000",
          "145125.671000",
          "145125.674000",
          "145125.677000",
          "145125.680000",
          "145125.683000",
          "145125.686000",
          "145125.689000",
          "145125.691000",
          "145125.694000",
          "145125.697000",
          "145125.700000",
          "145125.703000",
          "145125.705000",
          "145125.708000",
          "145125.717000",
          "145125.719000",
          "145125.722000",
          "145125.725000",
          "145125.728000",
          "145125.731000",
          "145125.734000",
          "145125.736000",
          "145125.739000",
          "145125.742000",
          "145125.745000",
          "145125.748000",
          "145125.751000",
          "145125.753000",
          "145125.756000",
          "145125.759000",
          "145125.762000",
          "145125.765000",
          "145145.623000",
          "145145.626000",
          "145145.629000",
          "145145.631000",
          "145145.634000",
          "145145.637000",
          "145145.640000",
          "145145.642000",
          "145145.645000",
          "145145.648000",
          "145145.651000",
          "145145.654000",
          "145145.656000",
          "145145.660000",
          "145145.662000",
          "145145.665000",
          "145145.668000",
          "145145.671000",
          "145145.674000",
          "145145.679000",
          "145205.623000",
          "145205.626000",
          "145205.629000",
          "145205.631000",
          "145205.634000",
          "145205.637000",
          "145205.640000",
          "145205.643000",
          "145205.645000",
          "145205.648000",
          "145205.651000",
          "145205.654000",
          "145205.657000",
          "145205.659000",
          "145205.662000",
          "145205.665000",
          "145205.668000",
          "145205.671000",
          "145205.673000",
          "145205.676000",
          "145225.623000",
          "145225.626000",
          "145225.629000",
          "145225.631000",
          "145225.634000",
          "145225.637000",
          "145225.656000",
          "145225.659000",
          "145225.662000",
          "145225.664000",
          "145225.667000",
          "145225.670000",
          "145225.673000",
          "145225.676000",
          "145225.679000",
          "145225.682000",
          "145225.685000",
          "145225.687000",
          "145225.690000",
          "145225.693000",
          "145305.623000",
          "145305.626000",
          "145305.629000",
          "145305.632000",
          "145305.635000",
          "145305.653000",
          "145305.655000",
          "145305.658000",
          "145305.661000",
          "145305.664000",
          "145305.673000",
          "145305.676000",
          "145305.678000",
          "145305.681000",
          "145305.684000",
          "145305.687000",
          "145305.690000",
          "145305.692000",
          "145305.695000",
          "145305.698000",
          "145305.701000",
          "145305.704000",
          "145305.707000",
          "145305.709000",
          "145305.712000",
          "145305.715000",
          "145305.718000",
          "145305.721000",
          "145305.723000",
          "145305.726000",
          "145345.622000",
          "145345.625000",
          "145345.628000",
          "145345.631000",
          "145345.634000",
          "145345.637000",
          "145345.640000",
          "145345.642000",
          "145345.645000",
          "145345.648000",
          "145345.651000",
          "145345.654000",
          "145345.657000",
          "145345.660000",
          "145345.663000",
          "145345.665000",
          "145345.668000",
          "145345.671000",
          "145345.674000",
          "145345.677000",
          "145345.680000",
          "145345.683000",
          "145345.686000",
          "145345.688000",
          "145345.691000",
          "145345.694000",
          "145345.697000",
          "145425.624000",
          "145425.627000",
          "145425.631000",
          "145425.634000",
          "145425.638000",
          "145425.642000",
          "145425.645000",
          "145425.648000",
          "145425.651000",
          "145425.654000",
          "145425.656000",
          "145425.661000",
          "145425.664000",
          "145425.667000",
          "145425.671000",
          "145425.674000",
          "145425.677000",
          "145425.680000",
          "145425.684000",
          "145425.687000",
          "145425.690000",
          "145425.693000",
          "145425.696000",
          "145425.699000",
          "145425.702000",
          "145425.705000",
          "145425.708000",
          "145505.623000",
          "145505.626000",
          "145505.628000",
          "145505.631000",
          "145505.634000",
          "145505.637000",
          "145505.640000",
          "145505.643000",
          "145505.646000",
          "145505.648000",
          "145505.651000",
          "145505.654000",
          "145505.657000",
          "145505.660000",
          "145505.663000",
          "145505.668000",
          "145505.671000",
          "145505.674000",
          "145505.677000",
          "145505.680000",
          "145505.683000",
          "145505.686000",
          "145505.688000",
          "145505.691000",
          "145505.694000",
          "145505.697000",
          "145505.700000",
          "145545.623000",
          "145545.626000",
          "145545.629000",
          "145545.632000",
          "145545.635000",
          "145545.637000",
          "145545.640000",
          "145545.643000",
          "145545.646000",
