{
  "aor": 0.00044917705735660854,
  "aqi": 0.010381374987531172,
  "bids_meta": {
    "AcquisitionMatrixPE": 104,
    "AcquisitionNumber": 1,
    "AcquisitionTime": "15:14:26.467500",
    "BandwidthPerPixelPhaseEncode": 17.17,
    "BaseResolution": 104,
    "BodyPartExamined": "BRAIN",
    "CogAtlasID": "trm_4c898da401420",
    "ConsistencyInfo": "N4_VE11C_LATEST_20160120",
    "ConversionSoftware": "dcm2niix",
    "ConversionSoftwareVersion": "v1.0.20171215 (OpenJPEG build) GCC7.3.0",
    "DerivedVendorReportedEchoSpacing": 0.000560011,
    "DeviceSerialNumber": "167006",
    "DwellTime": 2.1e-06,
    "EchoTime": 0.037,
    "EchoTrainLength": 104,
    "EffectiveEchoSpacing": 0.000560011,
    "FlipAngle": 52,
    "ImageComments": "Unaliased_MB4_PE3_LB",
    "ImageOrientationPatientDICOM": [
      0.999466,
      -0.0307567,
      0.0110692,
      0.0326318,
      0.918967,
      -0.392982
    ],
    "ImageType": [
      "ORIGINAL",
      "PRIMARY",
      "M",
      "MB",
      "ND",
      "MOSAIC"
    ],
    "InPlanePhaseEncodingDirectionDICOM": "COL",
    "InstitutionAddress": "Chemin_Queen-Mary_4565_Montreal_District_CA_H3W_1W5",
    "InstitutionName": "IUGM",
    "InstitutionalDepartmentName": "Department",
    "MRAcquisitionType": "2D",
    "MagneticFieldStrength": 3,
    "Manufacturer": "Siemens",
    "ManufacturersModelName": "Prisma_fit",
    "Modality": "MR",
    "MultibandAccelerationFactor": 4,
    "PartialFourier": 1,
    "PatientPosition": "HFS",
    "PercentPhaseFOV": 100,
    "PhaseEncodingDirection": "j",
    "PhaseEncodingSteps": 104,
    "PhaseResolution": 1,
    "PixelBandwidth": 2290,
    "ProcedureStepDescription": "video5_generic",
    "ProtocolName": "func_task-bourne1",
    "PulseSequenceDetails": "%CustomerSeq%_cmrr_mbep2d_bold",
    "ReceiveCoilActiveElements": "HC1-7;NC1,2",
    "ReceiveCoilName": "HeadNeck_64",
    "ReconMatrixPE": 104,
    "RepetitionTime": 1.49,
    "SAR": 0.0290817,
    "ScanOptions": "FS",
    "ScanningSequence": "EP",
    "SequenceName": "epfid2d1_104",
    "SequenceVariant": "SK_SS",
    "SeriesDescription": "func_task-bourne1",
    "SeriesNumber": 25,
    "ShimSetting": [
      636,
      -7245,
      -8838,
      575,
      45,
      -230,
      -152,
      -5
    ],
    "SliceThickness": 2,
    "SliceTiming": [
      0,
      0.7825,
      0.0975,
      0.8825,
      0.195,
      0.98,
      0.2925,
      1.0775,
      0.3925,
      1.175,
      0.49,
      1.2725,
      0.5875,
      1.3725,
      0.685,
      0,
      0.7825,
      0.0975,
      0.8825,
      0.195,
      0.98,
      0.2925,
      1.0775,
      0.3925,
      1.175,
      0.49,
      1.2725,
      0.5875,
      1.3725,
      0.685,
      0,
      0.7825,
      0.0975,
      0.8825,
      0.195,
      0.98,
      0.2925,
      1.0775,
      0.3925,
      1.175,
      0.49,
      1.2725,
      0.5875,
      1.3725,
      0.685,
      0,
      0.7825,
      0.0975,
      0.8825,
      0.195,
      0.98,
      0.2925,
      1.0775,
      0.3925,
      1.175,
      0.49,
      1.2725,
      0.5875,
      1.3725,
      0.685
    ],
    "SoftwareVersions": "syngo_MR_E11",
    "SpacingBetweenSlices": 2,
    "StationName": "MRC35049",
    "TaskName": "bourne01",
    "TotalReadoutTime": 0.0576811,
    "TxRefAmp": 219.238,
    "dataset": "<unset>",
    "dcmmeta_affine": [
      [
        -1.9989311695098877,
        0.06526368856430054,
        -0.0038292589597404003,
        98.5636978149414
      ],
      [
        0.06151346117258072,
        1.8379342555999756,
        -0.7862657904624939,
        -72.54728698730469
      ],
      [
        0.022138336673378944,
        0.7859633564949036,
        1.8389593362808228,
        -75.9166030883789
      ],
      [
        0.0,
        0.0,
        0.0,
        1.0
      ]
    ],
    "dcmmeta_reorient_transform": [
      [
        0.0,
        -1.0,
        0.0,
        103.0
      ],
      [
        1.0,
        0.0,
        0.0,
        0.0
      ],
      [
        0.0,
        0.0,
        1.0,
        0.0
      ],
      [
        0.0,
        0.0,
        0.0,
        1.0
      ]
    ],
    "dcmmeta_shape": [
      104,
      104,
      60,
      403
    ],
    "dcmmeta_slice_dim": 2,
    "dcmmeta_version": 0.6,
    "global": {
      "const": {
        "AcquisitionMatrix": [
          104,
          0,
          0,
          104
        ],
        "AngioFlag": "N",
        "BitsAllocated": 16,
        "BitsStored": 16,
        "BodyPartExamined": "BRAIN",
        "Columns": 832,
        "EchoNumbers": 1,
        "EchoTime": 37.0,
        "EchoTrainLength": 104,
        "FlipAngle": 52.0,
        "HighBit": 15,
        "ImageOrientationPatient": [
          0.99946560573854,
          -0.0307567302161,
          0.01106916853747,
          0.03263184242124,
          0.91896711904958,
          -0.3929816751019
        ],
        "ImagePositionPatient": [
          -856.65280025761,
          -763.37710040948,
          283.06992341817
        ],
        "ImageType": [
          "ORIGINAL",
          "PRIMARY",
          "M",
          "MB",
          "ND",
          "MOSAIC"
        ],
        "ImagedNucleus": "1H",
        "ImagingFrequency": 123.259184,
        "InPlanePhaseEncodingDirection": "COL",
        "MRAcquisitionType": "2D",
        "MagneticFieldStrength": 3.0,
        "Manufacturer": "SIEMENS",
        "ManufacturerModelName": "Prisma_fit",
        "Modality": "MR",
        "NumberOfAverages": 1.0,
        "NumberOfPhaseEncodingSteps": 104,
        "PercentPhaseFieldOfView": 100.0,
        "PercentSampling": 100.0,
        "PerformedProcedureStepStartTime": "140000.916000",
        "PhotometricInterpretation": "MONOCHROME2",
        "PixelBandwidth": 2290.0,
        "PixelRepresentation": 0,
        "PixelSpacing": [
          2.0,
          2.0
        ],
        "ProtocolName": "func_task-bourne1",
        "RepetitionTime": 1490.0,
        "Rows": 832,
        "SAR": 0.02908174388938,
        "SamplesPerPixel": 1,
        "ScanOptions": "FS",
        "ScanningSequence": "EP",
        "SequenceName": "epfid2d1_104",
        "SequenceVariant": [
          "SK",
          "SS"
        ],
        "SeriesDescription": "func_task-bourne1",
        "SeriesNumber": 25,
        "SeriesTime": "151545.651000",
        "SliceLocation": -41.471765331082,
        "SliceThickness": 2.0,
        "SmallestImagePixelValue": 0,
        "SoftwareVersions": "syngo MR E11",
        "SpacingBetweenSlices": 2.0000000278271,
        "SpecificCharacterSet": "ISO_IR 100",
        "StudyID": "1",
        "StudyTime": "140000.843000",
        "TransmitCoilName": "Body",
        "VariableFlipAngleFlag": "N",
        "WindowCenterWidthExplanation": "Algo1",
        "dBdt": 0.0
      },
      "slices": {}
    },
    "modality": "bold",
    "session_id": "005",
    "subject_id": "06",
    "task_id": "bourne01",
    "time": {
      "samples": {
        "AcquisitionNumber": [
          1,
          2,
          3,
          4,
          5,
          6,
          7,
          8,
          9,
          10,
          11,
          12,
          13,
          14,
          15,
          16,
          17,
          18,
          19,
          20,
          21,
          22,
          23,
          24,
          25,
          26,
          27,
          28,
          29,
          30,
          31,
          32,
          33,
          34,
          35,
          36,
          37,
          38,
          39,
          40,
          41,
          42,
          43,
          44,
          45,
          46,
          47,
          48,
          49,
          50,
          51,
          52,
          53,
          54,
          55,
          56,
          57,
          58,
          59,
          60,
          61,
          62,
          63,
          64,
          65,
          66,
          67,
          68,
          69,
          70,
          71,
          72,
          73,
          74,
          75,
          76,
          77,
          78,
          79,
          80,
          81,
          82,
          83,
          84,
          85,
          86,
          87,
          88,
          89,
          90,
          91,
          92,
          93,
          94,
          95,
          96,
          97,
          98,
          99,
          100,
          101,
          102,
          103,
          104,
          105,
          106,
          107,
          108,
          109,
          110,
          111,
          112,
          113,
          114,
          115,
          116,
          117,
          118,
          119,
          120,
          121,
          122,
          123,
          124,
          125,
          126,
          127,
          128,
          129,
          130,
          131,
          132,
          133,
          134,
          135,
          136,
          137,
          138,
          139,
          140,
          141,
          142,
          143,
          144,
          145,
          146,
          147,
          148,
          149,
          150,
          151,
          152,
          153,
          154,
          155,
          156,
          157,
          158,
          159,
          160,
          161,
          162,
          163,
          164,
          165,
          166,
          167,
          168,
          169,
          170,
          171,
          172,
          173,
          174,
          175,
          176,
          177,
          178,
          179,
          180,
          181,
          182,
          183,
          184,
          185,
          186,
          187,
          188,
          189,
          190,
          191,
          192,
          193,
          194,
          195,
          196,
          197,
          198,
          199,
          200,
          201,
          202,
          203,
          204,
          205,
          206,
          207,
          208,
          209,
          210,
          211,
          212,
          213,
          214,
          215,
          216,
          217,
          218,
          219,
          220,
          221,
          222,
          223,
          224,
          225,
          226,
          227,
          228,
          229,
          230,
          231,
          232,
          233,
          234,
          235,
          236,
          237,
          238,
          239,
          240,
          241,
          242,
          243,
          244,
          245,
          246,
          247,
          248,
          249,
          250,
          251,
          252,
          253,
          254,
          255,
          256,
          257,
          258,
          259,
          260,
          261,
          262,
          263,
          264,
          265,
          266,
          267,
          268,
          269,
          270,
          271,
          272,
          273,
          274,
          275,
          276,
          277,
          278,
          279,
          280,
          281,
          282,
          283,
          284,
          285,
          286,
          287,
          288,
          289,
          290,
          291,
          292,
          293,
          294,
          295,
          296,
          297,
          298,
          299,
          300,
          301,
          302,
          303,
          304,
          305,
          306,
          307,
          308,
          309,
          310,
          311,
          312,
          313,
          314,
          315,
          316,
          317,
          318,
          319,
          320,
          321,
          322,
          323,
          324,
          325,
          326,
          327,
          328,
          329,
          330,
          331,
          332,
          333,
          334,
          335,
          336,
          337,
          338,
          339,
          340,
          341,
          342,
          343,
          344,
          345,
          346,
          347,
          348,
          349,
          350,
          351,
          352,
          353,
          354,
          355,
          356,
          357,
          358,
          359,
          360,
          361,
          362,
          363,
          364,
          365,
          366,
          367,
          368,
          369,
          370,
          371,
          372,
          373,
          374,
          375,
          376,
          377,
          378,
          379,
          380,
          381,
          382,
          383,
          384,
          385,
          386,
          387,
          388,
          389,
          390,
          391,
          392,
          393,
          394,
          395,
          396,
          397,
          398,
          399,
          400,
          401,
          402,
          403
        ],
        "AcquisitionTime": [
          "151426.467500",
          "151427.957500",
          "151429.447500",
          "151430.937500",
          "151432.427500",
          "151433.917500",
          "151435.407500",
          "151436.897500",
          "151438.387500",
          "151439.877500",
          "151441.367500",
          "151442.857500",
          "151444.347500",
          "151445.837500",
          "151447.327500",
          "151448.817500",
          "151450.307500",
          "151451.797500",
          "151453.287500",
          "151454.777500",
          "151456.267500",
          "151457.757500",
          "151459.247500",
          "151500.737500",
          "151502.227500",
          "151503.717500",
          "151505.207500",
          "151506.697500",
          "151508.187500",
          "151509.677500",
          "151511.167500",
          "151512.657500",
          "151514.147500",
          "151515.637500",
          "151517.127500",
          "151518.617500",
          "151520.107500",
          "151521.597500",
          "151523.087500",
          "151524.577500",
          "151526.067500",
          "151527.557500",
          "151529.047500",
          "151530.537500",
          "151532.027500",
          "151533.517500",
          "151535.007500",
          "151536.497500",
          "151537.987500",
          "151539.477500",
          "151540.967500",
          "151542.457500",
          "151543.947500",
          "151545.437500",
          "151546.927500",
          "151548.417500",
          "151549.907500",
          "151551.397500",
          "151552.887500",
          "151554.377500",
          "151555.867500",
          "151557.357500",
          "151558.847500",
          "151600.337500",
          "151601.827500",
          "151603.317500",
          "151604.807500",
          "151606.297500",
          "151607.787500",
          "151609.277500",
          "151610.767500",
          "151612.257500",
          "151613.747500",
          "151615.237500",
          "151616.727500",
          "151618.217500",
          "151619.707500",
          "151621.197500",
          "151622.687500",
          "151624.177500",
          "151625.667500",
          "151627.157500",
          "151628.647500",
          "151630.137500",
          "151631.627500",
          "151633.117500",
          "151634.607500",
          "151636.097500",
          "151637.587500",
          "151639.077500",
          "151640.567500",
          "151642.057500",
          "151643.547500",
          "151645.037500",
          "151646.527500",
          "151648.017500",
          "151649.507500",
          "151650.997500",
          "151652.487500",
          "151653.977500",
          "151655.467500",
          "151656.957500",
          "151658.447500",
          "151659.937500",
          "151701.427500",
          "151702.917500",
          "151704.407500",
          "151705.897500",
          "151707.387500",
          "151708.877500",
          "151710.367500",
          "151711.857500",
          "151713.347500",
          "151714.837500",
          "151716.327500",
          "151717.817500",
          "151719.307500",
          "151720.797500",
          "151722.287500",
          "151723.777500",
          "151725.267500",
          "151726.757500",
          "151728.247500",
          "151729.737500",
          "151731.227500",
          "151732.717500",
          "151734.207500",
          "151735.697500",
          "151737.187500",
          "151738.677500",
          "151740.167500",
          "151741.657500",
          "151743.147500",
          "151744.637500",
          "151746.127500",
          "151747.617500",
          "151749.107500",
          "151750.597500",
          "151752.087500",
          "151753.577500",
          "151755.067500",
          "151756.557500",
          "151758.047500",
          "151759.537500",
          "151801.027500",
          "151802.517500",
          "151804.007500",
          "151805.497500",
          "151806.987500",
          "151808.477500",
          "151809.967500",
          "151811.457500",
          "151812.947500",
          "151814.437500",
          "151815.927500",
          "151817.417500",
          "151818.907500",
          "151820.397500",
          "151821.887500",
          "151823.377500",
          "151824.867500",
          "151826.357500",
          "151827.847500",
          "151829.337500",
          "151830.827500",
          "151832.317500",
          "151833.807500",
          "151835.297500",
          "151836.787500",
          "151838.277500",
          "151839.767500",
          "151841.257500",
          "151842.747500",
          "151844.237500",
          "151845.727500",
          "151847.217500",
          "151848.707500",
          "151850.197500",
          "151851.687500",
          "151853.177500",
          "151854.667500",
          "151856.157500",
          "151857.647500",
          "151859.137500",
          "151900.627500",
          "151902.117500",
          "151903.607500",
          "151905.097500",
          "151906.587500",
          "151908.077500",
          "151909.567500",
          "151911.057500",
          "151912.547500",
          "151914.037500",
          "151915.527500",
          "151917.017500",
          "151918.507500",
          "151919.997500",
          "151921.487500",
          "151922.977500",
          "151924.467500",
          "151925.957500",
          "151927.447500",
          "151928.937500",
          "151930.427500",
          "151931.917500",
          "151933.407500",
          "151934.897500",
          "151936.387500",
          "151937.877500",
          "151939.367500",
          "151940.857500",
          "151942.347500",
          "151943.837500",
          "151945.327500",
          "151946.817500",
          "151948.307500",
          "151949.797500",
          "151951.287500",
          "151952.777500",
          "151954.267500",
          "151955.757500",
          "151957.247500",
          "151958.737500",
          "152000.227500",
          "152001.717500",
          "152003.207500",
          "152004.697500",
          "152006.187500",
          "152007.677500",
          "152009.167500",
          "152010.657500",
          "152012.147500",
          "152013.637500",
          "152015.127500",
          "152016.617500",
          "152018.107500",
          "152019.597500",
          "152021.087500",
          "152022.577500",
          "152024.067500",
          "152025.557500",
          "152027.047500",
          "152028.537500",
          "152030.027500",
          "152031.517500",
          "152033.007500",
          "152034.497500",
          "152035.987500",
          "152037.477500",
          "152038.967500",
          "152040.457500",
          "152041.947500",
          "152043.437500",
          "152044.927500",
          "152046.417500",
          "152047.907500",
          "152049.397500",
          "152050.887500",
          "152052.377500",
          "152053.867500",
          "152055.357500",
          "152056.847500",
          "152058.337500",
          "152059.827500",
          "152101.317500",
          "152102.807500",
          "152104.297500",
          "152105.787500",
          "152107.277500",
          "152108.767500",
          "152110.257500",
          "152111.747500",
          "152113.237500",
          "152114.727500",
          "152116.217500",
          "152117.707500",
          "152119.197500",
          "152120.687500",
          "152122.177500",
          "152123.667500",
          "152125.157500",
          "152126.647500",
          "152128.137500",
          "152129.627500",
          "152131.117500",
          "152132.607500",
          "152134.097500",
          "152135.587500",
          "152137.077500",
          "152138.567500",
          "152140.057500",
          "152141.547500",
          "152143.037500",
          "152144.527500",
          "152146.017500",
          "152147.507500",
          "152148.997500",
          "152150.487500",
          "152151.977500",
          "152153.467500",
          "152154.957500",
          "152156.447500",
          "152157.937500",
          "152159.427500",
          "152200.917500",
          "152202.407500",
          "152203.897500",
          "152205.387500",
          "152206.877500",
          "152208.367500",
          "152209.857500",
          "152211.347500",
          "152212.837500",
          "152214.327500",
          "152215.817500",
          "152217.307500",
          "152218.797500",
          "152220.287500",
          "152221.777500",
          "152223.267500",
          "152224.757500",
          "152226.247500",
          "152227.737500",
          "152229.227500",
          "152230.717500",
          "152232.207500",
          "152233.697500",
          "152235.187500",
          "152236.677500",
          "152238.167500",
          "152239.657500",
          "152241.147500",
          "152242.637500",
          "152244.127500",
          "152245.617500",
          "152247.107500",
          "152248.597500",
          "152250.087500",
          "152251.577500",
          "152253.067500",
          "152254.557500",
          "152256.047500",
          "152257.537500",
          "152259.027500",
          "152300.517500",
          "152302.007500",
          "152303.497500",
          "152304.987500",
          "152306.477500",
          "152307.967500",
          "152309.457500",
          "152310.947500",
          "152312.437500",
          "152313.927500",
          "152315.417500",
          "152316.907500",
          "152318.397500",
          "152319.887500",
          "152321.377500",
          "152322.867500",
          "152324.357500",
          "152325.847500",
          "152327.337500",
          "152328.827500",
          "152330.317500",
          "152331.807500",
          "152333.297500",
          "152334.787500",
          "152336.277500",
          "152337.767500",
          "152339.257500",
          "152340.747500",
          "152342.237500",
          "152343.727500",
          "152345.217500",
          "152346.707500",
          "152348.197500",
          "152349.687500",
          "152351.177500",
          "152352.667500",
          "152354.157500",
          "152355.647500",
          "152357.137500",
          "152358.627500",
          "152400.117500",
          "152401.607500",
          "152403.097500",
          "152404.587500",
          "152406.077500",
          "152407.567500",
          "152409.057500",
          "152410.547500",
          "152412.037500",
          "152413.527500",
          "152415.017500",
          "152416.507500",
          "152417.997500",
          "152419.487500",
          "152420.977500",
          "152422.467500",
          "152423.957500",
          "152425.447500"
        ],
        "ContentTime": [
          "151545.653000",
          "151545.657000",
          "151545.660000",
          "151545.668000",
          "151545.671000",
          "151545.674000",
          "151545.677000",
          "151545.680000",
          "151545.682000",
          "151545.685000",
          "151545.697000",
          "151545.699000",
          "151545.702000",
          "151545.705000",
          "151545.708000",
          "151545.711000",
          "151545.714000",
          "151545.716000",
          "151545.719000",
          "151545.722000",
          "151545.725000",
          "151545.728000",
          "151545.731000",
          "151545.734000",
          "151605.623000",
          "151605.626000",
          "151605.629000",
          "151605.631000",
          "151605.634000",
          "151605.637000",
          "151605.640000",
          "151605.643000",
          "151605.645000",
          "151605.648000",
          "151605.651000",
          "151605.654000",
          "151605.657000",
          "151605.659000",
          "151605.662000",
          "151605.665000",
          "151605.668000",
          "151605.672000",
          "151605.675000",
          "151605.678000",
          "151625.623000",
          "151625.644000",
          "151625.647000",
          "151625.649000",
          "151625.652000",
          "151625.655000",
          "151625.658000",
          "151625.661000",
          "151625.664000",
          "151625.666000",
          "151625.669000",
          "151625.679000",
          "151625.682000",
          "151625.685000",
          "151625.688000",
          "151625.691000",
          "151625.693000",
          "151625.696000",
          "151625.699000",
          "151625.702000",
          "151625.705000",
          "151645.623000",
          "151645.626000",
          "151645.629000",
          "151645.632000",
          "151645.634000",
          "151645.637000",
          "151645.640000",
          "151645.643000",
          "151645.646000",
          "151645.649000",
          "151645.651000",
          "151645.654000",
          "151645.657000",
          "151645.660000",
          "151645.663000",
          "151645.665000",
          "151645.668000",
          "151645.671000",
          "151645.674000",
          "151645.677000",
          "151705.622000",
          "151705.625000",
          "151705.628000",
          "151705.631000",
          "151705.634000",
          "151705.637000",
          "151705.639000",
          "151705.642000",
          "151705.645000",
          "151705.648000",
          "151705.659000",
          "151705.662000",
          "151705.664000",
          "151705.667000",
          "151705.670000",
          "151705.673000",
          "151705.676000",
          "151705.679000",
          "151705.681000",
          "151705.684000",
          "151745.623000",
          "151745.626000",
          "151745.629000",
          "151745.632000",
          "151745.634000",
          "151745.637000",
          "151745.640000",
          "151745.643000",
          "151745.646000",
          "151745.648000",
          "151745.651000",
          "151745.654000",
          "151745.657000",
          "151745.660000",
          "151745.663000",
          "151745.666000",
          "151745.668000",
          "151745.671000",
          "151745.674000",
          "151745.677000",
          "151745.680000",
          "151745.683000",
          "151745.690000",
          "151745.693000",
          "151745.696000",
          "151745.699000",
          "151745.702000",
          "151745.705000",
          "151825.623000",
          "151825.626000",
          "151825.629000",
          "151825.632000",
          "151825.635000",
          "151825.638000",
          "151825.640000",
          "151825.643000",
          "151825.646000",
          "151825.649000",
          "151825.652000",
          "151825.655000",
          "151825.658000",
          "151825.661000",
          "151825.663000",
          "151825.666000",
          "151825.669000",
          "151825.672000",
          "151825.675000",
          "151825.678000",
          "151825.680000",
          "151825.683000",
          "151825.686000",
          "151825.696000",
          "151825.699000",
          "151825.702000",
          "151825.705000",
          "151905.623000",
          "151905.626000",
          "151905.630000",
          "151905.632000",
          "151905.636000",
          "151905.639000",
          "151905.648000",
          "151905.651000",
          "151905.654000",
          "151905.656000",
          "151905.659000",
          "151905.662000",
          "151905.665000",
          "151905.668000",
          "151905.671000",
          "151905.673000",
          "151905.676000",
          "151905.679000",
          "151905.682000",
          "151905.685000",
          "151905.687000",
          "151905.690000",
          "151905.693000",
          "151905.696000",
          "151905.699000",
          "151905.701000",
          "151945.623000",
          "151945.626000",
          "151945.629000",
          "151945.631000",
          "151945.634000",
          "151945.637000",
          "151945.640000",
          "151945.643000",
          "151945.646000",
          "151945.649000",
          "151945.651000",
          "151945.654000",
          "151945.657000",
          "151945.660000",
          "151945.663000",
          "151945.665000",
          "151945.668000",
          "151945.671000",
          "151945.674000",
          "151945.677000",
          "151945.680000",
          "151945.682000",
          "151945.685000",
          "151945.688000",
          "151945.691000",
          "151945.694000",
          "151945.697000",
          "152025.623000",
          "152025.626000",
          "152025.629000",
          "152025.632000",
          "152025.635000",
          "152025.637000",
          "152025.640000",
          "152025.643000",
          "152025.646000",
          "152025.649000",
          "152025.652000",
          "152025.655000",
          "152025.657000",
          "152025.660000",
          "152025.663000",
