{
  "aor": 0.0011991304347826086,
  "aqi": 0.01030618662404092,
  "bids_meta": {
    "AcquisitionMatrixPE": 104,
    "AcquisitionNumber": 1,
    "AcquisitionTime": "15:00:39.100000",
    "BandwidthPerPixelPhaseEncode": 17.17,
    "BaseResolution": 104,
    "BodyPartExamined": "BRAIN",
    "CogAtlasID": "trm_4c898da401420",
    "ConsistencyInfo": "N4_VE11C_LATEST_20160120",
    "ConversionSoftware": "dcm2niix",
    "ConversionSoftwareVersion": "v1.0.20171215 (OpenJPEG build) GCC7.3.0",
    "DerivedVendorReportedEchoSpacing": 0.000560011,
    "DeviceSerialNumber": "167006",
    "DwellTime": 2.1e-06,
    "EchoTime": 0.037,
    "EchoTrainLength": 104,
    "EffectiveEchoSpacing": 0.000560011,
    "FlipAngle": 52,
    "ImageComments": "Unaliased_MB4_PE3_LB",
    "ImageOrientationPatientDICOM": [
      0.999998,
      -0.00078449,
      -0.00191285,
      2.79624e-08,
      0.925219,
      -0.379433
    ],
    "ImageType": [
      "ORIGINAL",
      "PRIMARY",
      "M",
      "MB",
      "ND",
      "MOSAIC"
    ],
    "InPlanePhaseEncodingDirectionDICOM": "COL",
    "InstitutionAddress": "Chemin_Queen-Mary_4565_Montreal_District_CA_H3W_1W5",
    "InstitutionName": "IUGM",
    "InstitutionalDepartmentName": "Department",
    "MRAcquisitionType": "2D",
    "MagneticFieldStrength": 3,
    "Manufacturer": "Siemens",
    "ManufacturersModelName": "Prisma_fit",
    "Modality": "MR",
    "MultibandAccelerationFactor": 4,
    "PartialFourier": 1,
    "PatientPosition": "HFS",
    "PercentPhaseFOV": 100,
    "PhaseEncodingDirection": "j-",
    "PhaseEncodingSteps": 104,
    "PhaseResolution": 1,
    "PixelBandwidth": 2290,
    "ProcedureStepDescription": "video5_generic",
    "ProtocolName": "func_task-life_25",
    "PulseSequenceDetails": "%CustomerSeq%_cmrr_mbep2d_bold",
    "ReceiveCoilActiveElements": "HC1-7;NC1,2",
    "ReceiveCoilName": "HeadNeck_64",
    "ReconMatrixPE": 104,
    "RepetitionTime": 1.49,
    "SAR": 0.0290774,
    "ScanOptions": "FS",
    "ScanningSequence": "EP",
    "SequenceName": "epfid2d1_104",
    "SequenceVariant": "SK_SS",
    "SeriesDescription": "func_task-life_25",
    "SeriesNumber": 14,
    "ShimSetting": [
      635,
      -7245,
      -8852,
      520,
      39,
      -250,
      -192,
      -10
    ],
    "SliceThickness": 2,
    "SliceTiming": [
      0,
      0.785,
      0.0975,
      0.8825,
      0.1975,
      0.98,
      0.295,
      1.0775,
      0.3925,
      1.1775,
      0.49,
      1.275,
      0.5875,
      1.3725,
      0.6875,
      0,
      0.785,
      0.0975,
      0.8825,
      0.1975,
      0.98,
      0.295,
      1.0775,
      0.3925,
      1.1775,
      0.49,
      1.275,
      0.5875,
      1.3725,
      0.6875,
      0,
      0.785,
      0.0975,
      0.8825,
      0.1975,
      0.98,
      0.295,
      1.0775,
      0.3925,
      1.1775,
      0.49,
      1.275,
      0.5875,
      1.3725,
      0.6875,
      0,
      0.785,
      0.0975,
      0.8825,
      0.1975,
      0.98,
      0.295,
      1.0775,
      0.3925,
      1.1775,
      0.49,
      1.275,
      0.5875,
      1.3725,
      0.6875
    ],
    "SoftwareVersions": "syngo_MR_E11",
    "SpacingBetweenSlices": 2,
    "StationName": "MRC35049",
    "TaskName": "life05",
    "TotalReadoutTime": 0.0576811,
    "TxRefAmp": 219.238,
    "dataset": "<unset>",
    "dcmmeta_affine": [
      [
        -1.9999957084655762,
        5.592484697558575e-08,
        -0.004134935326874256,
        104.94476318359375
      ],
      [
        0.001568980747833848,
        1.8504388332366943,
        -0.7588635087013245,
        -63.34248352050781
      ],
      [
        -0.0038257010746747255,
        0.7588650584220886,
        1.8504348993301392,
        -78.03445434570312
      ],
      [
        0.0,
        0.0,
        0.0,
        1.0
      ]
    ],
    "dcmmeta_reorient_transform": [
      [
        0.0,
        -1.0,
        0.0,
        103.0
      ],
      [
        1.0,
        0.0,
        0.0,
        0.0
      ],
      [
        0.0,
        0.0,
        1.0,
        0.0
      ],
      [
        0.0,
        0.0,
        0.0,
        1.0
      ]
    ],
    "dcmmeta_shape": [
      104,
      104,
      60,
      391
    ],
    "dcmmeta_slice_dim": 2,
    "dcmmeta_version": 0.6,
    "global": {
      "const": {
        "AcquisitionMatrix": [
          104,
          0,
          0,
          104
        ],
        "AngioFlag": "N",
        "BitsAllocated": 16,
        "BitsStored": 16,
        "BodyPartExamined": "BRAIN",
        "Columns": 832,
        "EchoNumbers": 1,
        "EchoTime": 37.0,
        "EchoTrainLength": 104,
        "FlipAngle": 52.0,
        "HighBit": 15,
        "ImageOrientationPatient": [
          0.99999786278649,
          -0.0007844903755,
          -0.0019128505705,
          2.7962424e-08,
          0.92521940407737,
          -0.3794325425141
        ],
        "ImagePositionPatient": [
          -832.94323025439,
          -800.24133272751,
          277.74809415818
        ],
        "ImageType": [
          "ORIGINAL",
          "PRIMARY",
          "M",
          "MB",
          "ND",
          "MOSAIC"
        ],
        "ImagedNucleus": "1H",
        "ImagingFrequency": 123.259188,
        "InPlanePhaseEncodingDirection": "COL",
        "MRAcquisitionType": "2D",
        "MagneticFieldStrength": 3.0,
        "Manufacturer": "SIEMENS",
        "ManufacturerModelName": "Prisma_fit",
        "Modality": "MR",
        "NumberOfAverages": 1.0,
        "NumberOfPhaseEncodingSteps": 104,
        "PercentPhaseFieldOfView": 100.0,
        "PercentSampling": 100.0,
        "PerformedProcedureStepStartTime": "140000.916000",
        "PhotometricInterpretation": "MONOCHROME2",
        "PixelBandwidth": 2290.0,
        "PixelRepresentation": 0,
        "PixelSpacing": [
          2.0,
          2.0
        ],
        "ProtocolName": "func_task-life_25",
        "RepetitionTime": 1490.0,
        "Rows": 832,
        "SAR": 0.02907738946598,
        "SamplesPerPixel": 1,
        "ScanOptions": "FS",
        "ScanningSequence": "EP",
        "SequenceName": "epfid2d1_104",
        "SequenceVariant": [
          "SK",
          "SS"
        ],
        "SeriesDescription": "func_task-life_25",
        "SeriesNumber": 14,
        "SeriesTime": "150158.132000",
        "SliceLocation": -48.381660747158,
        "SliceThickness": 2.0,
        "SmallestImagePixelValue": 0,
        "SoftwareVersions": "syngo MR E11",
        "SpacingBetweenSlices": 2.0000000451491,
        "SpecificCharacterSet": "ISO_IR 100",
        "StudyID": "1",
        "StudyTime": "140000.843000",
        "TransmitCoilName": "Body",
        "VariableFlipAngleFlag": "N",
        "WindowCenterWidthExplanation": "Algo1",
        "dBdt": 0.0
      },
      "slices": {}
    },
    "modality": "bold",
    "run_id": 2,
    "session_id": "005",
    "subject_id": "06",
    "task_id": "life05",
    "time": {
      "samples": {
        "AcquisitionNumber": [
          1,
          2,
          3,
          4,
          5,
          6,
          7,
          8,
          9,
          10,
          11,
          12,
          13,
          14,
          15,
          16,
          17,
          18,
          19,
          20,
          21,
          22,
          23,
          24,
          25,
          26,
          27,
          28,
          29,
          30,
          31,
          32,
          33,
          34,
          35,
          36,
          37,
          38,
          39,
          40,
          41,
          42,
          43,
          44,
          45,
          46,
          47,
          48,
          49,
          50,
          51,
          52,
          53,
          54,
          55,
          56,
          57,
          58,
          59,
          60,
          61,
          62,
          63,
          64,
          65,
          66,
          67,
          68,
          69,
          70,
          71,
          72,
          73,
          74,
          75,
          76,
          77,
          78,
          79,
          80,
          81,
          82,
          83,
          84,
          85,
          86,
          87,
          88,
          89,
          90,
          91,
          92,
          93,
          94,
          95,
          96,
          97,
          98,
          99,
          100,
          101,
          102,
          103,
          104,
          105,
          106,
          107,
          108,
          109,
          110,
          111,
          112,
          113,
          114,
          115,
          116,
          117,
          118,
          119,
          120,
          121,
          122,
          123,
          124,
          125,
          126,
          127,
          128,
          129,
          130,
          131,
          132,
          133,
          134,
          135,
          136,
          137,
          138,
          139,
          140,
          141,
          142,
          143,
          144,
          145,
          146,
          147,
          148,
          149,
          150,
          151,
          152,
          153,
          154,
          155,
          156,
          157,
          158,
          159,
          160,
          161,
          162,
          163,
          164,
          165,
          166,
          167,
          168,
          169,
          170,
          171,
          172,
          173,
          174,
          175,
          176,
          177,
          178,
          179,
          180,
          181,
          182,
          183,
          184,
          185,
          186,
          187,
          188,
          189,
          190,
          191,
          192,
          193,
          194,
          195,
          196,
          197,
          198,
          199,
          200,
          201,
          202,
          203,
          204,
          205,
          206,
          207,
          208,
          209,
          210,
          211,
          212,
          213,
          214,
          215,
          216,
          217,
          218,
          219,
          220,
          221,
          222,
          223,
          224,
          225,
          226,
          227,
          228,
          229,
          230,
          231,
          232,
          233,
          234,
          235,
          236,
          237,
          238,
          239,
          240,
          241,
          242,
          243,
          244,
          245,
          246,
          247,
          248,
          249,
          250,
          251,
          252,
          253,
          254,
          255,
          256,
          257,
          258,
          259,
          260,
          261,
          262,
          263,
          264,
          265,
          266,
          267,
          268,
          269,
          270,
          271,
          272,
          273,
          274,
          275,
          276,
          277,
          278,
          279,
          280,
          281,
          282,
          283,
          284,
          285,
          286,
          287,
          288,
          289,
          290,
          291,
          292,
          293,
          294,
          295,
          296,
          297,
          298,
          299,
          300,
          301,
          302,
          303,
          304,
          305,
          306,
          307,
          308,
          309,
          310,
          311,
          312,
          313,
          314,
          315,
          316,
          317,
          318,
          319,
          320,
          321,
          322,
          323,
          324,
          325,
          326,
          327,
          328,
          329,
          330,
          331,
          332,
          333,
          334,
          335,
          336,
          337,
          338,
          339,
          340,
          341,
          342,
          343,
          344,
          345,
          346,
          347,
          348,
          349,
          350,
          351,
          352,
          353,
          354,
          355,
          356,
          357,
          358,
          359,
          360,
          361,
          362,
          363,
          364,
          365,
          366,
          367,
          368,
          369,
          370,
          371,
          372,
          373,
          374,
          375,
          376,
          377,
          378,
          379,
          380,
          381,
          382,
          383,
          384,
          385,
          386,
          387,
          388,
          389,
          390,
          391
        ],
        "AcquisitionTime": [
          "150039.100000",
          "150040.590000",
          "150042.080000",
          "150043.570000",
          "150045.060000",
          "150046.550000",
          "150048.040000",
          "150049.530000",
          "150051.020000",
          "150052.510000",
          "150054.000000",
          "150055.490000",
          "150056.980000",
          "150058.470000",
          "150059.960000",
          "150101.450000",
          "150102.940000",
          "150104.430000",
          "150105.920000",
          "150107.410000",
          "150108.900000",
          "150110.390000",
          "150111.880000",
          "150113.370000",
          "150114.860000",
          "150116.350000",
          "150117.840000",
          "150119.330000",
          "150120.820000",
          "150122.310000",
          "150123.800000",
          "150125.290000",
          "150126.780000",
          "150128.270000",
          "150129.760000",
          "150131.250000",
          "150132.740000",
          "150134.230000",
          "150135.720000",
          "150137.210000",
          "150138.700000",
          "150140.190000",
          "150141.680000",
          "150143.170000",
          "150144.660000",
          "150146.150000",
          "150147.640000",
          "150149.130000",
          "150150.620000",
          "150152.110000",
          "150153.600000",
          "150155.090000",
          "150156.580000",
          "150158.070000",
          "150159.560000",
          "150201.050000",
          "150202.540000",
          "150204.030000",
          "150205.520000",
          "150207.010000",
          "150208.500000",
          "150209.990000",
          "150211.480000",
          "150212.970000",
          "150214.460000",
          "150215.950000",
          "150217.440000",
          "150218.930000",
          "150220.420000",
          "150221.910000",
          "150223.400000",
          "150224.890000",
          "150226.380000",
          "150227.870000",
          "150229.360000",
          "150230.850000",
          "150232.340000",
          "150233.830000",
          "150235.320000",
          "150236.810000",
          "150238.300000",
          "150239.790000",
          "150241.280000",
          "150242.770000",
          "150244.260000",
          "150245.750000",
          "150247.240000",
          "150248.730000",
          "150250.220000",
          "150251.710000",
          "150253.200000",
          "150254.690000",
          "150256.180000",
          "150257.670000",
          "150259.160000",
          "150300.650000",
          "150302.140000",
          "150303.630000",
          "150305.120000",
          "150306.610000",
          "150308.100000",
          "150309.590000",
          "150311.080000",
          "150312.570000",
          "150314.060000",
          "150315.550000",
          "150317.040000",
          "150318.530000",
          "150320.020000",
          "150321.510000",
          "150323.000000",
          "150324.490000",
          "150325.980000",
          "150327.470000",
          "150328.960000",
          "150330.450000",
          "150331.940000",
          "150333.430000",
          "150334.920000",
          "150336.410000",
          "150337.900000",
          "150339.390000",
          "150340.880000",
          "150342.370000",
          "150343.860000",
          "150345.350000",
          "150346.840000",
          "150348.330000",
          "150349.820000",
          "150351.310000",
          "150352.800000",
          "150354.290000",
          "150355.780000",
          "150357.270000",
          "150358.760000",
          "150400.250000",
          "150401.740000",
          "150403.230000",
          "150404.720000",
          "150406.210000",
          "150407.700000",
          "150409.190000",
          "150410.680000",
          "150412.170000",
          "150413.660000",
          "150415.150000",
          "150416.640000",
          "150418.130000",
          "150419.620000",
          "150421.110000",
          "150422.600000",
          "150424.090000",
          "150425.580000",
          "150427.070000",
          "150428.560000",
          "150430.050000",
          "150431.540000",
          "150433.030000",
          "150434.520000",
          "150436.010000",
          "150437.500000",
          "150438.990000",
          "150440.480000",
          "150441.970000",
          "150443.460000",
          "150444.950000",
          "150446.440000",
          "150447.930000",
          "150449.420000",
          "150450.910000",
          "150452.400000",
          "150453.890000",
          "150455.380000",
          "150456.870000",
          "150458.360000",
          "150459.850000",
          "150501.340000",
          "150502.830000",
          "150504.320000",
          "150505.810000",
          "150507.300000",
          "150508.790000",
          "150510.280000",
          "150511.770000",
          "150513.260000",
          "150514.750000",
          "150516.240000",
          "150517.730000",
          "150519.220000",
          "150520.710000",
          "150522.200000",
          "150523.690000",
          "150525.180000",
          "150526.670000",
          "150528.160000",
          "150529.650000",
          "150531.140000",
          "150532.630000",
          "150534.120000",
          "150535.610000",
          "150537.100000",
          "150538.590000",
          "150540.080000",
          "150541.570000",
          "150543.060000",
          "150544.550000",
          "150546.040000",
          "150547.530000",
          "150549.020000",
          "150550.510000",
          "150552.000000",
          "150553.490000",
          "150554.980000",
          "150556.470000",
          "150557.960000",
          "150559.450000",
          "150600.940000",
          "150602.430000",
          "150603.920000",
          "150605.410000",
          "150606.900000",
          "150608.390000",
          "150609.880000",
          "150611.370000",
          "150612.860000",
          "150614.350000",
          "150615.840000",
          "150617.330000",
          "150618.820000",
          "150620.310000",
          "150621.800000",
          "150623.290000",
          "150624.780000",
          "150626.270000",
          "150627.760000",
          "150629.250000",
          "150630.740000",
          "150632.230000",
          "150633.720000",
          "150635.210000",
          "150636.700000",
          "150638.190000",
          "150639.680000",
          "150641.170000",
          "150642.660000",
          "150644.150000",
          "150645.640000",
          "150647.130000",
          "150648.620000",
          "150650.110000",
          "150651.600000",
          "150653.090000",
          "150654.580000",
          "150656.070000",
          "150657.560000",
          "150659.050000",
          "150700.540000",
          "150702.030000",
          "150703.520000",
          "150705.010000",
          "150706.500000",
          "150707.990000",
          "150709.480000",
          "150710.970000",
          "150712.460000",
          "150713.950000",
          "150715.440000",
          "150716.930000",
          "150718.420000",
          "150719.910000",
          "150721.400000",
          "150722.890000",
          "150724.380000",
          "150725.870000",
          "150727.360000",
          "150728.850000",
          "150730.340000",
          "150731.830000",
          "150733.320000",
          "150734.810000",
          "150736.300000",
          "150737.790000",
          "150739.280000",
          "150740.770000",
          "150742.260000",
          "150743.750000",
          "150745.240000",
          "150746.730000",
          "150748.220000",
          "150749.710000",
          "150751.200000",
          "150752.690000",
          "150754.180000",
          "150755.670000",
          "150757.160000",
          "150758.650000",
          "150800.140000",
          "150801.630000",
          "150803.120000",
          "150804.610000",
          "150806.100000",
          "150807.590000",
          "150809.080000",
          "150810.570000",
          "150812.060000",
          "150813.550000",
          "150815.040000",
          "150816.530000",
          "150818.020000",
          "150819.510000",
          "150821.000000",
          "150822.490000",
          "150823.980000",
          "150825.470000",
          "150826.960000",
          "150828.450000",
          "150829.940000",
          "150831.430000",
          "150832.920000",
          "150834.410000",
          "150835.900000",
          "150837.390000",
          "150838.880000",
          "150840.370000",
          "150841.860000",
          "150843.350000",
          "150844.840000",
          "150846.330000",
          "150847.820000",
          "150849.310000",
          "150850.800000",
          "150852.290000",
          "150853.780000",
          "150855.270000",
          "150856.760000",
          "150858.250000",
          "150859.740000",
          "150901.230000",
          "150902.720000",
          "150904.210000",
          "150905.700000",
          "150907.190000",
          "150908.680000",
          "150910.170000",
          "150911.660000",
          "150913.150000",
          "150914.640000",
          "150916.130000",
          "150917.620000",
          "150919.110000",
          "150920.600000",
          "150922.090000",
          "150923.580000",
          "150925.070000",
          "150926.560000",
          "150928.050000",
          "150929.540000",
          "150931.030000",
          "150932.520000",
          "150934.010000",
          "150935.500000",
          "150936.990000",
          "150938.480000",
          "150939.970000",
          "150941.460000",
          "150942.950000",
          "150944.440000",
          "150945.930000",
          "150947.420000",
          "150948.910000",
          "150950.400000",
          "150951.890000",
          "150953.380000",
          "150954.870000",
          "150956.360000",
          "150957.850000",
          "150959.340000",
          "151000.830000",
          "151002.320000",
          "151003.810000",
          "151005.300000",
          "151006.790000",
          "151008.280000",
          "151009.770000",
          "151011.260000",
          "151012.750000",
          "151014.240000",
          "151015.730000",
          "151017.220000",
          "151018.710000",
          "151020.200000"
        ],
        "ContentTime": [
          "150158.134000",
          "150158.137000",
          "150158.144000",
          "150158.149000",
          "150158.152000",
          "150158.155000",
          "150158.157000",
          "150158.160000",
          "150158.163000",
          "150158.166000",
          "150158.169000",
          "150158.172000",
          "150158.180000",
          "150158.183000",
          "150158.186000",
          "150158.188000",
          "150158.191000",
          "150158.194000",
          "150158.197000",
          "150158.200000",
          "150158.202000",
          "150158.205000",
          "150158.208000",
          "150218.099000",
          "150218.102000",
          "150218.105000",
          "150218.107000",
          "150218.110000",
          "150218.113000",
          "150218.116000",
          "150218.119000",
          "150218.121000",
          "150218.124000",
          "150218.127000",
          "150218.130000",
          "150218.133000",
          "150218.140000",
          "150218.143000",
          "150218.146000",
          "150218.149000",
          "150218.151000",
          "150218.154000",
          "150218.157000",
          "150238.099000",
          "150238.102000",
          "150238.104000",
          "150238.118000",
          "150238.121000",
          "150238.124000",
          "150238.127000",
          "150238.129000",
          "150238.142000",
          "150238.144000",
          "150238.147000",
          "150238.150000",
          "150238.153000",
          "150238.156000",
          "150238.159000",
          "150238.161000",
          "150238.164000",
          "150238.167000",
          "150238.170000",
          "150238.173000",
          "150258.099000",
          "150258.102000",
          "150258.105000",
          "150258.107000",
          "150258.110000",
          "150258.113000",
          "150258.117000",
          "150258.120000",
          "150258.122000",
          "150258.125000",
          "150258.128000",
          "150258.131000",
          "150258.134000",
          "150258.137000",
          "150258.139000",
          "150258.142000",
          "150258.145000",
          "150258.148000",
          "150258.150000",
          "150258.153000",
          "150258.156000",
          "150318.098000",
          "150318.101000",
          "150318.104000",
          "150318.106000",
          "150318.109000",
          "150318.112000",
          "150318.115000",
          "150318.118000",
          "150318.121000",
          "150318.123000",
          "150318.126000",
          "150318.129000",
          "150318.132000",
          "150318.135000",
          "150318.138000",
          "150318.140000",
          "150318.143000",
          "150318.146000",
          "150318.149000",
          "150318.152000",
          "150358.098000",
          "150358.101000",
          "150358.104000",
          "150358.107000",
          "150358.109000",
          "150358.112000",
          "150358.115000",
          "150358.118000",
          "150358.121000",
          "150358.124000",
          "150358.127000",
          "150358.129000",
          "150358.132000",
          "150358.135000",
          "150358.138000",
          "150358.141000",
          "150358.144000",
          "150358.146000",
          "150358.149000",
          "150358.152000",
          "150358.158000",
          "150358.160000",
          "150358.163000",
          "150358.166000",
          "150358.169000",
          "150358.172000",
          "150358.175000",
          "150358.177000",
          "150358.180000",
          "150438.099000",
          "150438.102000",
          "150438.105000",
          "150438.107000",
          "150438.110000",
          "150438.113000",
          "150438.116000",
          "150438.119000",
          "150438.122000",
          "150438.125000",
          "150438.128000",
          "150438.130000",
          "150438.133000",
          "150438.136000",
          "150438.139000",
          "150438.142000",
          "150438.145000",
          "150438.147000",
          "150438.150000",
          "150438.153000",
          "150438.156000",
          "150438.159000",
          "150438.161000",
          "150438.164000",
          "150438.167000",
          "150438.170000",
          "150438.173000",
          "150518.099000",
          "150518.102000",
          "150518.105000",
          "150518.108000",
          "150518.110000",
          "150518.113000",
          "150518.116000",
          "150518.119000",
          "150518.122000",
          "150518.125000",
          "150518.128000",
          "150518.130000",
          "150518.133000",
          "150518.136000",
          "150518.139000",
          "150518.142000",
          "150518.145000",
          "150518.147000",
          "150518.150000",
          "150518.153000",
          "150518.156000",
          "150518.159000",
          "150518.162000",
          "150518.164000",
          "150518.167000",
          "150518.170000",
          "150558.098000",
          "150558.101000",
          "150558.104000",
          "150558.107000",
          "150558.109000",
          "150558.112000",
          "150558.115000",
          "150558.118000",
          "150558.121000",
          "150558.124000",
          "150558.127000",
          "150558.130000",
          "150558.132000",
          "150558.135000",
          "150558.138000",
          "150558.141000",
          "150558.144000",
          "150558.147000",
          "150558.149000",
          "150558.152000",
          "150558.155000",
          "150558.158000",
          "150558.161000",
          "150558.164000",
          "150558.167000",
          "150558.169000",
          "150558.172000",
          "150638.099000",
          "150638.106000",
          "150638.108000",
          "150638.111000",
          "150638.114000",
          "150638.117000",
          "150638.120000",
          "150638.123000",
          "150638.126000",
          "150638.129000",
          "150638.132000",
          "150638.134000",
          "150638.137000",
          "150638.140000",
          "150638.143000",
          "150638.146000",
          "150638.149000",
          "150638.152000",
          "150638.155000",
          "150638.158000",
          "150638.161000",
          "150638.164000",
          "150638.166000",
          "150638.169000",
          "150638.172000",
          "150638.175000",
          "150638.178000",
          "150718.099000",
          "150718.102000",
          "150718.105000",
          "150718.108000",
          "150718.111000",
