{
  "aor": 0.0018652227722772276,
  "aqi": 0.010409675841584158,
  "bids_meta": {
    "AcquisitionMatrixPE": 104,
    "AcquisitionNumber": 1,
    "AcquisitionTime": "15:25:11.157500",
    "BandwidthPerPixelPhaseEncode": 17.17,
    "BaseResolution": 104,
    "BodyPartExamined": "BRAIN",
    "CogAtlasID": "trm_4c898da401420",
    "ConsistencyInfo": "N4_VE11C_LATEST_20160120",
    "ConversionSoftware": "dcm2niix",
    "ConversionSoftwareVersion": "v1.0.20171215 (OpenJPEG build) GCC7.3.0",
    "DerivedVendorReportedEchoSpacing": 0.000560011,
    "DeviceSerialNumber": "167006",
    "DwellTime": 2.1e-06,
    "EchoTime": 0.037,
    "EchoTrainLength": 104,
    "EffectiveEchoSpacing": 0.000560011,
    "FlipAngle": 52,
    "ImageComments": "Unaliased_MB4_PE3_LB",
    "ImageOrientationPatientDICOM": [
      0.999466,
      -0.0307567,
      0.0110692,
      0.0326318,
      0.918967,
      -0.392982
    ],
    "ImageType": [
      "ORIGINAL",
      "PRIMARY",
      "M",
      "MB",
      "ND",
      "MOSAIC"
    ],
    "InPlanePhaseEncodingDirectionDICOM": "COL",
    "InstitutionAddress": "Chemin_Queen-Mary_4565_Montreal_District_CA_H3W_1W5",
    "InstitutionName": "IUGM",
    "InstitutionalDepartmentName": "Department",
    "MRAcquisitionType": "2D",
    "MagneticFieldStrength": 3,
    "Manufacturer": "Siemens",
    "ManufacturersModelName": "Prisma_fit",
    "Modality": "MR",
    "MultibandAccelerationFactor": 4,
    "PartialFourier": 1,
    "PatientPosition": "HFS",
    "PercentPhaseFOV": 100,
    "PhaseEncodingDirection": "j",
    "PhaseEncodingSteps": 104,
    "PhaseResolution": 1,
    "PixelBandwidth": 2290,
    "ProcedureStepDescription": "video5_generic",
    "ProtocolName": "func_task-bourne2",
    "PulseSequenceDetails": "%CustomerSeq%_cmrr_mbep2d_bold",
    "ReceiveCoilActiveElements": "HC1-7;NC1,2",
    "ReceiveCoilName": "HeadNeck_64",
    "ReconMatrixPE": 104,
    "RepetitionTime": 1.49,
    "SAR": 0.0290824,
    "ScanOptions": "FS",
    "ScanningSequence": "EP",
    "SequenceName": "epfid2d1_104",
    "SequenceVariant": "SK_SS",
    "SeriesDescription": "func_task-bourne2",
    "SeriesNumber": 27,
    "ShimSetting": [
      636,
      -7245,
      -8838,
      575,
      45,
      -230,
      -152,
      -5
    ],
    "SliceThickness": 2,
    "SliceTiming": [
      0,
      0.7825,
      0.0975,
      0.8825,
      0.195,
      0.98,
      0.2925,
      1.0775,
      0.3925,
      1.175,
      0.49,
      1.2725,
      0.5875,
      1.3725,
      0.685,
      0,
      0.7825,
      0.0975,
      0.8825,
      0.195,
      0.98,
      0.2925,
      1.0775,
      0.3925,
      1.175,
      0.49,
      1.2725,
      0.5875,
      1.3725,
      0.685,
      0,
      0.7825,
      0.0975,
      0.8825,
      0.195,
      0.98,
      0.2925,
      1.0775,
      0.3925,
      1.175,
      0.49,
      1.2725,
      0.5875,
      1.3725,
      0.685,
      0,
      0.7825,
      0.0975,
      0.8825,
      0.195,
      0.98,
      0.2925,
      1.0775,
      0.3925,
      1.175,
      0.49,
      1.2725,
      0.5875,
      1.3725,
      0.685
    ],
    "SoftwareVersions": "syngo_MR_E11",
    "SpacingBetweenSlices": 2,
    "StationName": "MRC35049",
    "TaskName": "bourne02",
    "TotalReadoutTime": 0.0576811,
    "TxRefAmp": 219.238,
    "dataset": "<unset>",
    "dcmmeta_affine": [
      [
        -1.9989311695098877,
        0.06526368856430054,
        -0.0038292589597404003,
        98.5636978149414
      ],
      [
        0.06151346117258072,
        1.8379342555999756,
        -0.7862657904624939,
        -72.54728698730469
      ],
      [
        0.022138336673378944,
        0.7859633564949036,
        1.8389593362808228,
        -75.9166030883789
      ],
      [
        0.0,
        0.0,
        0.0,
        1.0
      ]
    ],
    "dcmmeta_reorient_transform": [
      [
        0.0,
        -1.0,
        0.0,
        103.0
      ],
      [
        1.0,
        0.0,
        0.0,
        0.0
      ],
      [
        0.0,
        0.0,
        1.0,
        0.0
      ],
      [
        0.0,
        0.0,
        0.0,
        1.0
      ]
    ],
    "dcmmeta_shape": [
      104,
      104,
      60,
      405
    ],
    "dcmmeta_slice_dim": 2,
    "dcmmeta_version": 0.6,
    "global": {
      "const": {
        "AcquisitionMatrix": [
          104,
          0,
          0,
          104
        ],
        "AngioFlag": "N",
        "BitsAllocated": 16,
        "BitsStored": 16,
        "BodyPartExamined": "BRAIN",
        "Columns": 832,
        "EchoNumbers": 1,
        "EchoTime": 37.0,
        "EchoTrainLength": 104,
        "FlipAngle": 52.0,
        "HighBit": 15,
        "ImageOrientationPatient": [
          0.99946560573854,
          -0.0307567302161,
          0.01106916853747,
          0.03263184242124,
          0.91896711904958,
          -0.3929816751019
        ],
        "ImagePositionPatient": [
          -856.65280025761,
          -763.37710040948,
          283.06992341817
        ],
        "ImageType": [
          "ORIGINAL",
          "PRIMARY",
          "M",
          "MB",
          "ND",
          "MOSAIC"
        ],
        "ImagedNucleus": "1H",
        "ImagingFrequency": 123.259189,
        "InPlanePhaseEncodingDirection": "COL",
        "MRAcquisitionType": "2D",
        "MagneticFieldStrength": 3.0,
        "Manufacturer": "SIEMENS",
        "ManufacturerModelName": "Prisma_fit",
        "Modality": "MR",
        "NumberOfAverages": 1.0,
        "NumberOfPhaseEncodingSteps": 104,
        "PercentPhaseFieldOfView": 100.0,
        "PercentSampling": 100.0,
        "PerformedProcedureStepStartTime": "140000.916000",
        "PhotometricInterpretation": "MONOCHROME2",
        "PixelBandwidth": 2290.0,
        "PixelRepresentation": 0,
        "PixelSpacing": [
          2.0,
          2.0
        ],
        "ProtocolName": "func_task-bourne2",
        "RepetitionTime": 1490.0,
        "Rows": 832,
        "SAR": 0.02908244221931,
        "SamplesPerPixel": 1,
        "ScanOptions": "FS",
        "ScanningSequence": "EP",
        "SequenceName": "epfid2d1_104",
        "SequenceVariant": [
          "SK",
          "SS"
        ],
        "SeriesDescription": "func_task-bourne2",
        "SeriesNumber": 27,
        "SeriesTime": "152624.523000",
        "SliceLocation": -41.471765331082,
        "SliceThickness": 2.0,
        "SmallestImagePixelValue": 0,
        "SoftwareVersions": "syngo MR E11",
        "SpacingBetweenSlices": 2.0000000278271,
        "SpecificCharacterSet": "ISO_IR 100",
        "StudyID": "1",
        "StudyTime": "140000.843000",
        "TransmitCoilName": "Body",
        "VariableFlipAngleFlag": "N",
        "WindowCenterWidthExplanation": "Algo1",
        "dBdt": 0.0
      },
      "slices": {}
    },
    "modality": "bold",
    "session_id": "005",
    "subject_id": "06",
    "task_id": "bourne02",
    "time": {
      "samples": {
        "AcquisitionNumber": [
          1,
          2,
          3,
          4,
          5,
          6,
          7,
          8,
          9,
          10,
          11,
          12,
          13,
          14,
          15,
          16,
          17,
          18,
          19,
          20,
          21,
          22,
          23,
          24,
          25,
          26,
          27,
          28,
          29,
          30,
          31,
          32,
          33,
          34,
          35,
          36,
          37,
          38,
          39,
          40,
          41,
          42,
          43,
          44,
          45,
          46,
          47,
          48,
          49,
          50,
          51,
          52,
          53,
          54,
          55,
          56,
          57,
          58,
          59,
          60,
          61,
          62,
          63,
          64,
          65,
          66,
          67,
          68,
          69,
          70,
          71,
          72,
          73,
          74,
          75,
          76,
          77,
          78,
          79,
          80,
          81,
          82,
          83,
          84,
          85,
          86,
          87,
          88,
          89,
          90,
          91,
          92,
          93,
          94,
          95,
          96,
          97,
          98,
          99,
          100,
          101,
          102,
          103,
          104,
          105,
          106,
          107,
          108,
          109,
          110,
          111,
          112,
          113,
          114,
          115,
          116,
          117,
          118,
          119,
          120,
          121,
          122,
          123,
          124,
          125,
          126,
          127,
          128,
          129,
          130,
          131,
          132,
          133,
          134,
          135,
          136,
          137,
          138,
          139,
          140,
          141,
          142,
          143,
          144,
          145,
          146,
          147,
          148,
          149,
          150,
          151,
          152,
          153,
          154,
          155,
          156,
          157,
          158,
          159,
          160,
          161,
          162,
          163,
          164,
          165,
          166,
          167,
          168,
          169,
          170,
          171,
          172,
          173,
          174,
          175,
          176,
          177,
          178,
          179,
          180,
          181,
          182,
          183,
          184,
          185,
          186,
          187,
          188,
          189,
          190,
          191,
          192,
          193,
          194,
          195,
          196,
          197,
          198,
          199,
          200,
          201,
          202,
          203,
          204,
          205,
          206,
          207,
          208,
          209,
          210,
          211,
          212,
          213,
          214,
          215,
          216,
          217,
          218,
          219,
          220,
          221,
          222,
          223,
          224,
          225,
          226,
          227,
          228,
          229,
          230,
          231,
          232,
          233,
          234,
          235,
          236,
          237,
          238,
          239,
          240,
          241,
          242,
          243,
          244,
          245,
          246,
          247,
          248,
          249,
          250,
          251,
          252,
          253,
          254,
          255,
          256,
          257,
          258,
          259,
          260,
          261,
          262,
          263,
          264,
          265,
          266,
          267,
          268,
          269,
          270,
          271,
          272,
          273,
          274,
          275,
          276,
          277,
          278,
          279,
          280,
          281,
          282,
          283,
          284,
          285,
          286,
          287,
          288,
          289,
          290,
          291,
          292,
          293,
          294,
          295,
          296,
          297,
          298,
          299,
          300,
          301,
          302,
          303,
          304,
          305,
          306,
          307,
          308,
          309,
          310,
          311,
          312,
          313,
          314,
          315,
          316,
          317,
          318,
          319,
          320,
          321,
          322,
          323,
          324,
          325,
          326,
          327,
          328,
          329,
          330,
          331,
          332,
          333,
          334,
          335,
          336,
          337,
          338,
          339,
          340,
          341,
          342,
          343,
          344,
          345,
          346,
          347,
          348,
          349,
          350,
          351,
          352,
          353,
          354,
          355,
          356,
          357,
          358,
          359,
          360,
          361,
          362,
          363,
          364,
          365,
          366,
          367,
          368,
          369,
          370,
          371,
          372,
          373,
          374,
          375,
          376,
          377,
          378,
          379,
          380,
          381,
          382,
          383,
          384,
          385,
          386,
          387,
          388,
          389,
          390,
          391,
          392,
          393,
          394,
          395,
          396,
          397,
          398,
          399,
          400,
          401,
          402,
          403,
          404,
          405
        ],
        "AcquisitionTime": [
          "152511.157500",
          "152512.647500",
          "152514.137500",
          "152515.627500",
          "152517.117500",
          "152518.607500",
          "152520.097500",
          "152521.587500",
          "152523.077500",
          "152524.567500",
          "152526.057500",
          "152527.547500",
          "152529.037500",
          "152530.527500",
          "152532.017500",
          "152533.507500",
          "152534.997500",
          "152536.487500",
          "152537.977500",
          "152539.467500",
          "152540.957500",
          "152542.447500",
          "152543.937500",
          "152545.427500",
          "152546.917500",
          "152548.407500",
          "152549.897500",
          "152551.387500",
          "152552.877500",
          "152554.367500",
          "152555.857500",
          "152557.347500",
          "152558.837500",
          "152600.327500",
          "152601.817500",
          "152603.307500",
          "152604.797500",
          "152606.287500",
          "152607.777500",
          "152609.267500",
          "152610.757500",
          "152612.247500",
          "152613.737500",
          "152615.227500",
          "152616.717500",
          "152618.207500",
          "152619.697500",
          "152621.187500",
          "152622.677500",
          "152624.167500",
          "152625.657500",
          "152627.147500",
          "152628.637500",
          "152630.127500",
          "152631.617500",
          "152633.107500",
          "152634.597500",
          "152636.087500",
          "152637.577500",
          "152639.067500",
          "152640.557500",
          "152642.047500",
          "152643.537500",
          "152645.027500",
          "152646.517500",
          "152648.007500",
          "152649.497500",
          "152650.987500",
          "152652.477500",
          "152653.967500",
          "152655.457500",
          "152656.947500",
          "152658.437500",
          "152659.927500",
          "152701.417500",
          "152702.907500",
          "152704.397500",
          "152705.887500",
          "152707.377500",
          "152708.867500",
          "152710.357500",
          "152711.847500",
          "152713.337500",
          "152714.827500",
          "152716.317500",
          "152717.807500",
          "152719.297500",
          "152720.787500",
          "152722.277500",
          "152723.767500",
          "152725.257500",
          "152726.747500",
          "152728.237500",
          "152729.727500",
          "152731.217500",
          "152732.707500",
          "152734.197500",
          "152735.687500",
          "152737.177500",
          "152738.667500",
          "152740.157500",
          "152741.647500",
          "152743.137500",
          "152744.627500",
          "152746.117500",
          "152747.607500",
          "152749.097500",
          "152750.587500",
          "152752.077500",
          "152753.567500",
          "152755.057500",
          "152756.547500",
          "152758.037500",
          "152759.527500",
          "152801.017500",
          "152802.507500",
          "152803.997500",
          "152805.487500",
          "152806.977500",
          "152808.467500",
          "152809.957500",
          "152811.447500",
          "152812.937500",
          "152814.427500",
          "152815.917500",
          "152817.407500",
          "152818.897500",
          "152820.387500",
          "152821.877500",
          "152823.367500",
          "152824.857500",
          "152826.347500",
          "152827.837500",
          "152829.327500",
          "152830.817500",
          "152832.307500",
          "152833.797500",
          "152835.287500",
          "152836.777500",
          "152838.267500",
          "152839.757500",
          "152841.247500",
          "152842.737500",
          "152844.227500",
          "152845.717500",
          "152847.207500",
          "152848.697500",
          "152850.187500",
          "152851.677500",
          "152853.167500",
          "152854.657500",
          "152856.147500",
          "152857.637500",
          "152859.127500",
          "152900.617500",
          "152902.107500",
          "152903.597500",
          "152905.087500",
          "152906.577500",
          "152908.067500",
          "152909.557500",
          "152911.047500",
          "152912.537500",
          "152914.027500",
          "152915.517500",
          "152917.007500",
          "152918.497500",
          "152919.987500",
          "152921.477500",
          "152922.967500",
          "152924.457500",
          "152925.947500",
          "152927.437500",
          "152928.927500",
          "152930.417500",
          "152931.907500",
          "152933.397500",
          "152934.887500",
          "152936.377500",
          "152937.867500",
          "152939.357500",
          "152940.847500",
          "152942.337500",
          "152943.827500",
          "152945.317500",
          "152946.807500",
          "152948.297500",
          "152949.787500",
          "152951.277500",
          "152952.767500",
          "152954.257500",
          "152955.747500",
          "152957.237500",
          "152958.727500",
          "153000.217500",
          "153001.707500",
          "153003.197500",
          "153004.687500",
          "153006.177500",
          "153007.667500",
          "153009.157500",
          "153010.647500",
          "153012.137500",
          "153013.627500",
          "153015.117500",
          "153016.607500",
          "153018.097500",
          "153019.587500",
          "153021.077500",
          "153022.567500",
          "153024.057500",
          "153025.547500",
          "153027.037500",
          "153028.527500",
          "153030.017500",
          "153031.507500",
          "153032.997500",
          "153034.487500",
          "153035.977500",
          "153037.467500",
          "153038.957500",
          "153040.447500",
          "153041.937500",
          "153043.427500",
          "153044.917500",
          "153046.407500",
          "153047.897500",
          "153049.387500",
          "153050.877500",
          "153052.367500",
          "153053.857500",
          "153055.347500",
          "153056.837500",
          "153058.327500",
          "153059.817500",
          "153101.307500",
          "153102.797500",
          "153104.287500",
          "153105.777500",
          "153107.267500",
          "153108.757500",
          "153110.247500",
          "153111.737500",
          "153113.227500",
          "153114.717500",
          "153116.207500",
          "153117.697500",
          "153119.187500",
          "153120.677500",
          "153122.167500",
          "153123.657500",
          "153125.147500",
          "153126.637500",
          "153128.127500",
          "153129.617500",
          "153131.107500",
          "153132.597500",
          "153134.087500",
          "153135.577500",
          "153137.067500",
          "153138.557500",
          "153140.047500",
          "153141.537500",
          "153143.027500",
          "153144.517500",
          "153146.007500",
          "153147.497500",
          "153148.987500",
          "153150.477500",
          "153151.967500",
          "153153.457500",
          "153154.947500",
          "153156.437500",
          "153157.927500",
          "153159.417500",
          "153200.907500",
          "153202.397500",
          "153203.887500",
          "153205.377500",
          "153206.867500",
          "153208.357500",
          "153209.847500",
          "153211.337500",
          "153212.827500",
          "153214.317500",
          "153215.807500",
          "153217.297500",
          "153218.787500",
          "153220.277500",
          "153221.767500",
          "153223.257500",
          "153224.747500",
          "153226.237500",
          "153227.727500",
          "153229.217500",
          "153230.707500",
          "153232.197500",
          "153233.687500",
          "153235.177500",
          "153236.667500",
          "153238.157500",
          "153239.647500",
          "153241.137500",
          "153242.627500",
          "153244.117500",
          "153245.607500",
          "153247.097500",
          "153248.587500",
          "153250.077500",
          "153251.567500",
          "153253.057500",
          "153254.547500",
          "153256.037500",
          "153257.527500",
          "153259.017500",
          "153300.507500",
          "153301.997500",
          "153303.487500",
          "153304.977500",
          "153306.467500",
          "153307.957500",
          "153309.447500",
          "153310.937500",
          "153312.427500",
          "153313.917500",
          "153315.407500",
          "153316.897500",
          "153318.387500",
          "153319.877500",
          "153321.367500",
          "153322.857500",
          "153324.347500",
          "153325.837500",
          "153327.327500",
          "153328.817500",
          "153330.307500",
          "153331.797500",
          "153333.287500",
          "153334.777500",
          "153336.267500",
          "153337.757500",
          "153339.247500",
          "153340.737500",
          "153342.227500",
          "153343.717500",
          "153345.207500",
          "153346.697500",
          "153348.187500",
          "153349.677500",
          "153351.167500",
          "153352.657500",
          "153354.147500",
          "153355.637500",
          "153357.127500",
          "153358.617500",
          "153400.107500",
          "153401.597500",
          "153403.087500",
          "153404.577500",
          "153406.067500",
          "153407.557500",
          "153409.047500",
          "153410.537500",
          "153412.027500",
          "153413.517500",
          "153415.007500",
          "153416.497500",
          "153417.987500",
          "153419.477500",
          "153420.967500",
          "153422.457500",
          "153423.947500",
          "153425.437500",
          "153426.927500",
          "153428.417500",
          "153429.907500",
          "153431.397500",
          "153432.887500",
          "153434.377500",
          "153435.867500",
          "153437.357500",
          "153438.847500",
          "153440.337500",
          "153441.827500",
          "153443.317500",
          "153444.807500",
          "153446.297500",
          "153447.787500",
          "153449.277500",
          "153450.767500",
          "153452.257500",
          "153453.747500",
          "153455.237500",
          "153456.727500",
          "153458.217500",
          "153459.707500",
          "153501.197500",
          "153502.687500",
          "153504.177500",
          "153505.667500",
          "153507.157500",
          "153508.647500",
          "153510.137500",
          "153511.627500",
          "153513.117500"
        ],
        "ContentTime": [
          "152624.526000",
          "152624.529000",
          "152624.532000",
          "152624.535000",
          "152624.538000",
          "152624.541000",
          "152624.543000",
          "152624.546000",
          "152624.549000",
          "152624.552000",
          "152624.555000",
          "152624.558000",
          "152624.560000",
          "152624.563000",
          "152624.576000",
          "152624.581000",
          "152624.584000",
          "152624.587000",
          "152624.590000",
          "152624.593000",
          "152644.501000",
          "152644.504000",
          "152644.507000",
          "152644.509000",
          "152644.512000",
          "152644.515000",
          "152644.518000",
          "152644.521000",
          "152644.523000",
          "152644.526000",
          "152644.529000",
          "152644.532000",
          "152644.535000",
          "152644.537000",
          "152644.540000",
          "152644.543000",
          "152644.546000",
          "152644.548000",
          "152644.551000",
          "152644.554000",
          "152704.500000",
          "152704.503000",
          "152704.506000",
          "152704.508000",
          "152704.511000",
          "152704.514000",
          "152704.523000",
          "152704.526000",
          "152704.528000",
          "152704.531000",
          "152704.534000",
          "152704.537000",
          "152704.540000",
          "152704.543000",
          "152704.545000",
          "152704.548000",
          "152704.551000",
          "152704.554000",
          "152704.556000",
          "152704.559000",
          "152724.500000",
          "152724.503000",
          "152724.505000",
          "152724.508000",
          "152724.511000",
          "152724.514000",
          "152724.517000",
          "152724.519000",
          "152724.522000",
          "152724.525000",
          "152724.528000",
          "152724.531000",
          "152724.533000",
          "152724.536000",
          "152724.539000",
          "152724.542000",
          "152724.545000",
          "152724.547000",
          "152724.550000",
          "152724.553000",
          "152724.556000",
          "152744.500000",
          "152744.503000",
          "152744.506000",
          "152744.509000",
          "152744.513000",
          "152744.515000",
          "152744.518000",
          "152744.521000",
          "152744.524000",
          "152744.534000",
          "152744.537000",
          "152744.540000",
          "152744.542000",
          "152744.545000",
          "152744.548000",
          "152744.551000",
          "152744.554000",
          "152744.557000",
          "152744.559000",
          "152744.562000",
          "152824.500000",
          "152824.503000",
          "152824.506000",
          "152824.509000",
          "152824.512000",
          "152824.515000",
          "152824.517000",
          "152824.521000",
          "152824.524000",
          "152824.527000",
          "152824.530000",
          "152824.533000",
          "152824.536000",
          "152824.538000",
          "152824.541000",
          "152824.544000",
          "152824.547000",
          "152824.550000",
          "152824.553000",
          "152824.556000",
          "152824.558000",
          "152824.561000",
          "152824.564000",
          "152824.567000",
          "152824.570000",
          "152824.573000",
          "152824.576000",
          "152824.588000",
          "152904.501000",
          "152904.504000",
          "152904.507000",
          "152904.510000",
          "152904.512000",
          "152904.515000",
          "152904.518000",
          "152904.521000",
          "152904.524000",
          "152904.526000",
          "152904.529000",
          "152904.532000",
          "152904.535000",
          "152904.538000",
          "152904.540000",
          "152904.543000",
          "152904.546000",
          "152904.549000",
          "152904.552000",
          "152904.555000",
          "152904.557000",
          "152904.560000",
          "152904.563000",
          "152904.566000",
          "152904.569000",
          "152904.571000",
          "152904.574000",
          "152944.500000",
          "152944.503000",
          "152944.507000",
          "152944.510000",
          "152944.512000",
          "152944.515000",
          "152944.518000",
          "152944.521000",
          "152944.524000",
          "152944.532000",
          "152944.534000",
          "152944.537000",
          "152944.540000",
          "152944.543000",
          "152944.546000",
          "152944.549000",
          "152944.552000",
          "152944.555000",
          "152944.557000",
          "152944.560000",
          "152944.563000",
          "152944.566000",
          "152944.569000",
          "152944.572000",
          "152944.575000",
          "152944.579000",
          "153024.500000",
          "153024.503000",
          "153024.506000",
          "153024.508000",
          "153024.511000",
          "153024.514000",
          "153024.517000",
          "153024.520000",
          "153024.523000",
          "153024.525000",
          "153024.528000",
          "153024.531000",
          "153024.534000",
          "153024.537000",
          "153024.540000",
          "153024.542000",
          "153024.545000",
          "153024.548000",
          "153024.551000",
          "153024.554000",
          "153024.556000",
          "153024.559000",
          "153024.562000",
          "153024.565000",
          "153024.568000",
          "153024.570000",
          "153024.573000",
          "153104.500000",
          "153104.503000",
          "153104.506000",
          "153104.509000",
          "153104.512000",
          "153104.514000",
          "153104.517000",
          "153104.520000",
          "153104.523000",
          "153104.526000",
          "153104.528000",
          "153104.531000",
          "153104.534000",
          "153104.537000",
          "153104.540000",
