{
  "aor": 0.001375394088669951,
  "aqi": 0.008543881527093596,
  "bids_meta": {
    "AcquisitionMatrixPE": 104,
    "AcquisitionNumber": 1,
    "AcquisitionTime": "13:40:31.507500",
    "BandwidthPerPixelPhaseEncode": 17.17,
    "BaseResolution": 104,
    "BodyPartExamined": "BRAIN",
    "CogAtlasID": "trm_4c898da401420",
    "ConsistencyInfo": "N4_VE11C_LATEST_20160120",
    "ConversionSoftware": "dcm2niix",
    "ConversionSoftwareVersion": "v1.0.20171215 (OpenJPEG build) GCC7.3.0",
    "DerivedVendorReportedEchoSpacing": 0.000560011,
    "DeviceSerialNumber": "167006",
    "DwellTime": 2.1e-06,
    "EchoTime": 0.037,
    "EchoTrainLength": 104,
    "EffectiveEchoSpacing": 0.000560011,
    "FlipAngle": 52,
    "ImageComments": "Unaliased_MB4_PE3_LB",
    "ImageOrientationPatientDICOM": [
      0.99966,
      0.0210823,
      -0.0153277,
      -0.0251295,
      0.935681,
      -0.351952
    ],
    "ImageType": [
      "ORIGINAL",
      "PRIMARY",
      "M",
      "MB",
      "ND",
      "MOSAIC"
    ],
    "InPlanePhaseEncodingDirectionDICOM": "COL",
    "InstitutionAddress": "Chemin_Queen-Mary_4565_Montreal_District_CA_H3W_1W5",
    "InstitutionName": "IUGM",
    "InstitutionalDepartmentName": "Department",
    "MRAcquisitionType": "2D",
    "MagneticFieldStrength": 3,
    "Manufacturer": "Siemens",
    "ManufacturersModelName": "Prisma_fit",
    "Modality": "MR",
    "MultibandAccelerationFactor": 4,
    "PartialFourier": 1,
    "PatientPosition": "HFS",
    "PercentPhaseFOV": 100,
    "PhaseEncodingDirection": "j-",
    "PhaseEncodingSteps": 104,
    "PhaseResolution": 1,
    "PixelBandwidth": 2290,
    "ProcedureStepDescription": "video5_generic",
    "ProtocolName": "func_task-figures5",
    "PulseSequenceDetails": "%CustomerSeq%_cmrr_mbep2d_bold",
    "ReceiveCoilActiveElements": "HC1-7;NC1,2",
    "ReceiveCoilName": "HeadNeck_64",
    "ReconMatrixPE": 104,
    "RepetitionTime": 1.49,
    "SAR": 0.0300712,
    "ScanOptions": "FS",
    "ScanningSequence": "EP",
    "SequenceName": "epfid2d1_104",
    "SequenceVariant": "SK_SS",
    "SeriesDescription": "func_task-figures5",
    "SeriesNumber": 9,
    "ShimSetting": [
      627,
      -7211,
      -8929,
      592,
      52,
      -254,
      -153,
      5
    ],
    "SliceThickness": 2,
    "SliceTiming": [
      0,
      0.7825,
      0.0975,
      0.8825,
      0.195,
      0.98,
      0.2925,
      1.0775,
      0.3925,
      1.175,
      0.49,
      1.2725,
      0.5875,
      1.3725,
      0.685,
      0,
      0.7825,
      0.0975,
      0.8825,
      0.195,
      0.98,
      0.2925,
      1.0775,
      0.3925,
      1.175,
      0.49,
      1.2725,
      0.5875,
      1.3725,
      0.685,
      0,
      0.7825,
      0.0975,
      0.8825,
      0.195,
      0.98,
      0.2925,
      1.0775,
      0.3925,
      1.175,
      0.49,
      1.2725,
      0.5875,
      1.3725,
      0.685,
      0,
      0.7825,
      0.0975,
      0.8825,
      0.195,
      0.98,
      0.2925,
      1.0775,
      0.3925,
      1.175,
      0.49,
      1.2725,
      0.5875,
      1.3725,
      0.685
    ],
    "SoftwareVersions": "syngo_MR_E11",
    "SpacingBetweenSlices": 2,
    "StationName": "MRC35049",
    "TaskName": "figures05",
    "TotalReadoutTime": 0.0576811,
    "TxRefAmp": 229.486,
    "dataset": "<unset>",
    "dcmmeta_affine": [
      [
        -1.9993205070495605,
        -0.05025891214609146,
        -0.013843866065144539,
        107.97441101074219
      ],
      [
        -0.04216457158327103,
        1.871361494064331,
        -0.7044346928596497,
        -66.79904174804688
      ],
      [
        -0.030655499547719955,
        0.7039034962654114,
        1.871785283088684,
        -97.45822143554688
      ],
      [
        0.0,
        0.0,
        0.0,
        1.0
      ]
    ],
    "dcmmeta_reorient_transform": [
      [
        0.0,
        -1.0,
        0.0,
        103.0
      ],
      [
        1.0,
        0.0,
        0.0,
        0.0
      ],
      [
        0.0,
        0.0,
        1.0,
        0.0
      ],
      [
        0.0,
        0.0,
        0.0,
        1.0
      ]
    ],
    "dcmmeta_shape": [
      104,
      104,
      60,
      408
    ],
    "dcmmeta_slice_dim": 2,
    "dcmmeta_version": 0.6,
    "global": {
      "const": {
        "AcquisitionMatrix": [
          104,
          0,
          0,
          104
        ],
        "AngioFlag": "N",
        "BitsAllocated": 16,
        "BitsStored": 16,
        "BodyPartExamined": "BRAIN",
        "Columns": 832,
        "EchoNumbers": 1,
        "EchoTime": 37.0,
        "EchoTrainLength": 104,
        "FlipAngle": 52.0,
        "HighBit": 15,
        "ImageOrientationPatient": [
          0.99966024093901,
          0.02108228602519,
          -0.0153277494013,
          -0.0251294554288,
          0.93568075910648,
          -0.3519517403108
        ],
        "ImagePositionPatient": [
          -812.25615688045,
          -822.47469328649,
          242.42330286594
        ],
        "ImageType": [
          "ORIGINAL",
          "PRIMARY",
          "M",
          "MB",
          "ND",
          "MOSAIC"
        ],
        "ImagedNucleus": "1H",
        "ImagingFrequency": 123.259532,
        "InPlanePhaseEncodingDirection": "COL",
        "MRAcquisitionType": "2D",
        "MagneticFieldStrength": 3.0,
        "Manufacturer": "SIEMENS",
        "ManufacturerModelName": "Prisma_fit",
        "Modality": "MR",
        "NumberOfAverages": 1.0,
        "NumberOfPhaseEncodingSteps": 104,
        "PercentPhaseFieldOfView": 100.0,
        "PercentSampling": 100.0,
        "PerformedProcedureStepStartTime": "132031.333000",
        "PhotometricInterpretation": "MONOCHROME2",
        "PixelBandwidth": 2290.0,
        "PixelRepresentation": 0,
        "PixelSpacing": [
          2.0,
          2.0
        ],
        "ProtocolName": "func_task-figures5",
        "RepetitionTime": 1490.0,
        "Rows": 832,
        "SAR": 0.0300712255497,
        "SamplesPerPixel": 1,
        "ScanOptions": "FS",
        "ScanningSequence": "EP",
        "SequenceName": "epfid2d1_104",
        "SequenceVariant": [
          "SK",
          "SS"
        ],
        "SeriesDescription": "func_task-figures5",
        "SeriesNumber": 9,
        "SeriesTime": "134151.767000",
        "SliceLocation": -68.430046148365,
        "SliceThickness": 2.0,
        "SmallestImagePixelValue": 0,
        "SoftwareVersions": "syngo MR E11",
        "SpacingBetweenSlices": 1.9999999760515,
        "SpecificCharacterSet": "ISO_IR 100",
        "StudyID": "1",
        "StudyTime": "132031.249000",
        "TransmitCoilName": "Body",
        "VariableFlipAngleFlag": "N",
        "WindowCenterWidthExplanation": "Algo1",
        "dBdt": 0.0
      },
      "slices": {}
    },
    "modality": "bold",
    "run_id": 2,
    "session_id": "007",
    "subject_id": "06",
    "task_id": "figures05",
    "time": {
      "samples": {
        "AcquisitionNumber": [
          1,
          2,
          3,
          4,
          5,
          6,
          7,
          8,
          9,
          10,
          11,
          12,
          13,
          14,
          15,
          16,
          17,
          18,
          19,
          20,
          21,
          22,
          23,
          24,
          25,
          26,
          27,
          28,
          29,
          30,
          31,
          32,
          33,
          34,
          35,
          36,
          37,
          38,
          39,
          40,
          41,
          42,
          43,
          44,
          45,
          46,
          47,
          48,
          49,
          50,
          51,
          52,
          53,
          54,
          55,
          56,
          57,
          58,
          59,
          60,
          61,
          62,
          63,
          64,
          65,
          66,
          67,
          68,
          69,
          70,
          71,
          72,
          73,
          74,
          75,
          76,
          77,
          78,
          79,
          80,
          81,
          82,
          83,
          84,
          85,
          86,
          87,
          88,
          89,
          90,
          91,
          92,
          93,
          94,
          95,
          96,
          97,
          98,
          99,
          100,
          101,
          102,
          103,
          104,
          105,
          106,
          107,
          108,
          109,
          110,
          111,
          112,
          113,
          114,
          115,
          116,
          117,
          118,
          119,
          120,
          121,
          122,
          123,
          124,
          125,
          126,
          127,
          128,
          129,
          130,
          131,
          132,
          133,
          134,
          135,
          136,
          137,
          138,
          139,
          140,
          141,
          142,
          143,
          144,
          145,
          146,
          147,
          148,
          149,
          150,
          151,
          152,
          153,
          154,
          155,
          156,
          157,
          158,
          159,
          160,
          161,
          162,
          163,
          164,
          165,
          166,
          167,
          168,
          169,
          170,
          171,
          172,
          173,
          174,
          175,
          176,
          177,
          178,
          179,
          180,
          181,
          182,
          183,
          184,
          185,
          186,
          187,
          188,
          189,
          190,
          191,
          192,
          193,
          194,
          195,
          196,
          197,
          198,
          199,
          200,
          201,
          202,
          203,
          204,
          205,
          206,
          207,
          208,
          209,
          210,
          211,
          212,
          213,
          214,
          215,
          216,
          217,
          218,
          219,
          220,
          221,
          222,
          223,
          224,
          225,
          226,
          227,
          228,
          229,
          230,
          231,
          232,
          233,
          234,
          235,
          236,
          237,
          238,
          239,
          240,
          241,
          242,
          243,
          244,
          245,
          246,
          247,
          248,
          249,
          250,
          251,
          252,
          253,
          254,
          255,
          256,
          257,
          258,
          259,
          260,
          261,
          262,
          263,
          264,
          265,
          266,
          267,
          268,
          269,
          270,
          271,
          272,
          273,
          274,
          275,
          276,
          277,
          278,
          279,
          280,
          281,
          282,
          283,
          284,
          285,
          286,
          287,
          288,
          289,
          290,
          291,
          292,
          293,
          294,
          295,
          296,
          297,
          298,
          299,
          300,
          301,
          302,
          303,
          304,
          305,
          306,
          307,
          308,
          309,
          310,
          311,
          312,
          313,
          314,
          315,
          316,
          317,
          318,
          319,
          320,
          321,
          322,
          323,
          324,
          325,
          326,
          327,
          328,
          329,
          330,
          331,
          332,
          333,
          334,
          335,
          336,
          337,
          338,
          339,
          340,
          341,
          342,
          343,
          344,
          345,
          346,
          347,
          348,
          349,
          350,
          351,
          352,
          353,
          354,
          355,
          356,
          357,
          358,
          359,
          360,
          361,
          362,
          363,
          364,
          365,
          366,
          367,
          368,
          369,
          370,
          371,
          372,
          373,
          374,
          375,
          376,
          377,
          378,
          379,
          380,
          381,
          382,
          383,
          384,
          385,
          386,
          387,
          388,
          389,
          390,
          391,
          392,
          393,
          394,
          395,
          396,
          397,
          398,
          399,
          400,
          401,
          402,
          403,
          404,
          405,
          406,
          407,
          408
        ],
        "AcquisitionTime": [
          "134031.507500",
          "134032.997500",
          "134034.487500",
          "134035.977500",
          "134037.467500",
          "134038.957500",
          "134040.447500",
          "134041.937500",
          "134043.427500",
          "134044.917500",
          "134046.407500",
          "134047.897500",
          "134049.387500",
          "134050.877500",
          "134052.367500",
          "134053.857500",
          "134055.347500",
          "134056.837500",
          "134058.327500",
          "134059.817500",
          "134101.307500",
          "134102.797500",
          "134104.287500",
          "134105.777500",
          "134107.267500",
          "134108.757500",
          "134110.247500",
          "134111.737500",
          "134113.227500",
          "134114.717500",
          "134116.207500",
          "134117.697500",
          "134119.187500",
          "134120.677500",
          "134122.167500",
          "134123.657500",
          "134125.147500",
          "134126.637500",
          "134128.127500",
          "134129.617500",
          "134131.107500",
          "134132.597500",
          "134134.087500",
          "134135.577500",
          "134137.067500",
          "134138.557500",
          "134140.047500",
          "134141.537500",
          "134143.027500",
          "134144.517500",
          "134146.007500",
          "134147.497500",
          "134148.987500",
          "134150.477500",
          "134151.967500",
          "134153.457500",
          "134154.947500",
          "134156.437500",
          "134157.927500",
          "134159.417500",
          "134200.907500",
          "134202.397500",
          "134203.887500",
          "134205.377500",
          "134206.867500",
          "134208.357500",
          "134209.847500",
          "134211.337500",
          "134212.827500",
          "134214.317500",
          "134215.807500",
          "134217.297500",
          "134218.787500",
          "134220.277500",
          "134221.767500",
          "134223.257500",
          "134224.747500",
          "134226.237500",
          "134227.727500",
          "134229.217500",
          "134230.707500",
          "134232.197500",
          "134233.687500",
          "134235.177500",
          "134236.667500",
          "134238.157500",
          "134239.647500",
          "134241.137500",
          "134242.627500",
          "134244.117500",
          "134245.607500",
          "134247.097500",
          "134248.587500",
          "134250.077500",
          "134251.567500",
          "134253.057500",
          "134254.547500",
          "134256.037500",
          "134257.527500",
          "134259.017500",
          "134300.507500",
          "134301.997500",
          "134303.487500",
          "134304.977500",
          "134306.467500",
          "134307.957500",
          "134309.447500",
          "134310.937500",
          "134312.427500",
          "134313.917500",
          "134315.407500",
          "134316.897500",
          "134318.387500",
          "134319.877500",
          "134321.367500",
          "134322.857500",
          "134324.347500",
          "134325.837500",
          "134327.327500",
          "134328.817500",
          "134330.307500",
          "134331.797500",
          "134333.287500",
          "134334.777500",
          "134336.267500",
          "134337.757500",
          "134339.247500",
          "134340.737500",
          "134342.227500",
          "134343.717500",
          "134345.207500",
          "134346.697500",
          "134348.187500",
          "134349.677500",
          "134351.167500",
          "134352.657500",
          "134354.147500",
          "134355.637500",
          "134357.127500",
          "134358.617500",
          "134400.107500",
          "134401.597500",
          "134403.087500",
          "134404.577500",
          "134406.067500",
          "134407.557500",
          "134409.047500",
          "134410.537500",
          "134412.027500",
          "134413.517500",
          "134415.007500",
          "134416.497500",
          "134417.987500",
          "134419.477500",
          "134420.967500",
          "134422.457500",
          "134423.947500",
          "134425.437500",
          "134426.927500",
          "134428.417500",
          "134429.907500",
          "134431.397500",
          "134432.887500",
          "134434.377500",
          "134435.867500",
          "134437.357500",
          "134438.847500",
          "134440.337500",
          "134441.827500",
          "134443.317500",
          "134444.807500",
          "134446.297500",
          "134447.787500",
          "134449.277500",
          "134450.767500",
          "134452.257500",
          "134453.747500",
          "134455.237500",
          "134456.727500",
          "134458.217500",
          "134459.707500",
          "134501.197500",
          "134502.687500",
          "134504.177500",
          "134505.667500",
          "134507.157500",
          "134508.647500",
          "134510.137500",
          "134511.627500",
          "134513.117500",
          "134514.607500",
          "134516.097500",
          "134517.587500",
          "134519.077500",
          "134520.567500",
          "134522.057500",
          "134523.547500",
          "134525.037500",
          "134526.527500",
          "134528.017500",
          "134529.507500",
          "134530.997500",
          "134532.487500",
          "134533.977500",
          "134535.467500",
          "134536.957500",
          "134538.447500",
          "134539.937500",
          "134541.427500",
          "134542.917500",
          "134544.407500",
          "134545.897500",
          "134547.387500",
          "134548.877500",
          "134550.367500",
          "134551.857500",
          "134553.347500",
          "134554.837500",
          "134556.327500",
          "134557.817500",
          "134559.307500",
          "134600.797500",
          "134602.287500",
          "134603.777500",
          "134605.267500",
          "134606.757500",
          "134608.247500",
          "134609.737500",
          "134611.227500",
          "134612.717500",
          "134614.207500",
          "134615.697500",
          "134617.187500",
          "134618.677500",
          "134620.167500",
          "134621.657500",
          "134623.147500",
          "134624.637500",
          "134626.127500",
          "134627.617500",
          "134629.107500",
          "134630.597500",
          "134632.087500",
          "134633.577500",
          "134635.067500",
          "134636.557500",
          "134638.047500",
          "134639.537500",
          "134641.027500",
          "134642.517500",
          "134644.007500",
          "134645.497500",
          "134646.987500",
          "134648.477500",
          "134649.967500",
          "134651.457500",
          "134652.947500",
          "134654.437500",
          "134655.927500",
          "134657.417500",
          "134658.907500",
          "134700.397500",
          "134701.887500",
          "134703.377500",
          "134704.867500",
          "134706.357500",
          "134707.847500",
          "134709.337500",
          "134710.827500",
          "134712.317500",
          "134713.807500",
          "134715.297500",
          "134716.787500",
          "134718.277500",
          "134719.767500",
          "134721.257500",
          "134722.747500",
          "134724.237500",
          "134725.727500",
          "134727.217500",
          "134728.707500",
          "134730.197500",
          "134731.687500",
          "134733.177500",
          "134734.667500",
          "134736.157500",
          "134737.647500",
          "134739.137500",
          "134740.627500",
          "134742.117500",
          "134743.607500",
          "134745.097500",
          "134746.587500",
          "134748.077500",
          "134749.567500",
          "134751.057500",
          "134752.547500",
          "134754.037500",
          "134755.527500",
          "134757.017500",
          "134758.507500",
          "134759.997500",
          "134801.487500",
          "134802.977500",
          "134804.467500",
          "134805.957500",
          "134807.447500",
          "134808.937500",
          "134810.427500",
          "134811.917500",
          "134813.407500",
          "134814.897500",
          "134816.387500",
          "134817.877500",
          "134819.367500",
          "134820.857500",
          "134822.347500",
          "134823.837500",
          "134825.327500",
          "134826.817500",
          "134828.307500",
          "134829.797500",
          "134831.287500",
          "134832.777500",
          "134834.267500",
          "134835.757500",
          "134837.247500",
          "134838.737500",
          "134840.227500",
          "134841.717500",
          "134843.207500",
          "134844.697500",
          "134846.187500",
          "134847.677500",
          "134849.167500",
          "134850.657500",
          "134852.147500",
          "134853.637500",
          "134855.127500",
          "134856.617500",
          "134858.107500",
          "134859.597500",
          "134901.087500",
          "134902.577500",
          "134904.067500",
          "134905.557500",
          "134907.047500",
          "134908.537500",
          "134910.027500",
          "134911.517500",
          "134913.007500",
          "134914.497500",
          "134915.987500",
          "134917.477500",
          "134918.967500",
          "134920.457500",
          "134921.947500",
          "134923.437500",
          "134924.927500",
          "134926.417500",
          "134927.907500",
          "134929.397500",
          "134930.887500",
          "134932.377500",
          "134933.867500",
          "134935.357500",
          "134936.847500",
          "134938.337500",
          "134939.827500",
          "134941.317500",
          "134942.807500",
          "134944.297500",
          "134945.787500",
          "134947.277500",
          "134948.767500",
          "134950.257500",
          "134951.747500",
          "134953.237500",
          "134954.727500",
          "134956.217500",
          "134957.707500",
          "134959.197500",
          "135000.687500",
          "135002.177500",
          "135003.667500",
          "135005.157500",
          "135006.647500",
          "135008.137500",
          "135009.627500",
          "135011.117500",
          "135012.607500",
          "135014.097500",
          "135015.587500",
          "135017.077500",
          "135018.567500",
          "135020.057500",
          "135021.547500",
          "135023.037500",
          "135024.527500",
          "135026.017500",
          "135027.507500",
          "135028.997500",
          "135030.487500",
          "135031.977500",
          "135033.467500",
          "135034.957500",
          "135036.447500",
          "135037.937500"
        ],
        "ContentTime": [
          "134151.770000",
          "134151.773000",
          "134151.776000",
          "134151.779000",
          "134151.782000",
          "134151.785000",
          "134151.788000",
          "134151.791000",
          "134151.804000",
          "134151.807000",
          "134151.815000",
          "134151.818000",
          "134151.821000",
          "134151.824000",
          "134151.827000",
          "134151.830000",
          "134151.833000",
          "134151.836000",
          "134151.839000",
          "134151.842000",
          "134151.845000",
          "134151.848000",
          "134151.851000",
          "134151.853000",
          "134211.728000",
          "134211.735000",
          "134211.738000",
          "134211.741000",
          "134211.744000",
          "134211.747000",
          "134211.750000",
          "134211.753000",
          "134211.756000",
          "134211.759000",
          "134211.764000",
          "134211.767000",
          "134211.770000",
          "134211.774000",
          "134211.777000",
          "134211.780000",
          "134211.783000",
          "134211.786000",
          "134211.794000",
          "134211.797000",
          "134231.728000",
          "134231.731000",
          "134231.734000",
          "134231.737000",
          "134231.740000",
          "134231.743000",
          "134231.746000",
          "134231.749000",
          "134231.752000",
          "134231.755000",
          "134231.762000",
          "134231.765000",
          "134231.768000",
          "134231.771000",
          "134231.774000",
          "134231.777000",
          "134231.780000",
          "134231.783000",
          "134231.786000",
          "134231.789000",
          "134251.728000",
          "134251.731000",
          "134251.734000",
          "134251.737000",
          "134251.740000",
          "134251.743000",
          "134251.746000",
          "134251.749000",
          "134251.751000",
          "134251.755000",
          "134251.758000",
          "134251.760000",
          "134251.763000",
          "134251.766000",
          "134251.770000",
          "134251.773000",
          "134251.776000",
          "134251.779000",
          "134251.782000",
          "134251.785000",
          "134311.728000",
          "134311.731000",
          "134311.734000",
          "134311.737000",
          "134311.740000",
          "134311.743000",
          "134311.746000",
          "134311.749000",
          "134311.751000",
          "134311.754000",
          "134311.757000",
          "134311.760000",
          "134311.763000",
          "134311.766000",
          "134311.769000",
          "134311.772000",
          "134311.775000",
          "134311.778000",
          "134311.781000",
          "134311.784000",
          "134311.787000",
          "134351.728000",
          "134351.731000",
          "134351.734000",
          "134351.737000",
          "134351.740000",
          "134351.743000",
          "134351.746000",
          "134351.749000",
          "134351.752000",
          "134351.755000",
          "134351.758000",
          "134351.761000",
          "134351.764000",
          "134351.767000",
          "134351.769000",
          "134351.772000",
          "134351.775000",
          "134351.778000",
          "134351.781000",
          "134351.784000",
          "134351.787000",
          "134351.790000",
          "134351.793000",
          "134351.796000",
          "134351.799000",
          "134351.802000",
          "134351.805000",
          "134351.808000",
          "134351.811000",
          "134411.728000",
          "134411.731000",
          "134411.734000",
          "134411.737000",
          "134411.740000",
          "134411.743000",
          "134411.746000",
          "134411.749000",
          "134411.752000",
          "134411.755000",
          "134411.758000",
          "134411.761000",
          "134411.764000",
          "134451.728000",
          "134451.731000",
          "134451.734000",
          "134451.737000",
          "134451.740000",
          "134451.743000",
          "134451.746000",
          "134451.749000",
          "134451.752000",
          "134451.755000",
          "134451.762000",
          "134451.765000",
          "134451.768000",
          "134451.771000",
          "134451.774000",
          "134451.777000",
          "134451.780000",
          "134451.783000",
          "134451.786000",
          "134451.789000",
          "134451.792000",
          "134451.795000",
          "134451.798000",
          "134451.800000",
          "134451.803000",
          "134451.806000",
          "134451.809000",
          "134531.728000",
          "134531.731000",
          "134531.734000",
          "134531.737000",
          "134531.740000",
          "134531.743000",
          "134531.746000",
          "134531.749000",
          "134531.752000",
          "134531.755000",
          "134531.758000",
          "134531.761000",
          "134531.764000",
          "134531.767000",
          "134531.770000",
          "134531.773000",
          "134531.776000",
          "134531.779000",
          "134531.782000",
          "134531.785000",
          "134531.788000",
          "134531.791000",
          "134531.794000",
          "134531.797000",
          "134531.802000",
          "134531.805000",
          "134531.808000",
          "134611.728000",
          "134611.732000",
          "134611.735000",
          "134611.738000",
          "134611.741000",
          "134611.744000",
          "134611.747000",
          "134611.750000",
          "134611.753000",
          "134611.756000",
          "134611.759000",
          "134611.762000",
          "134611.765000",
          "134611.768000",
          "134611.771000",
          "134611.774000",
          "134611.777000",
          "134611.780000",
