{
  "aor": 0.0004433658536585366,
  "aqi": 0.008545998731707317,
  "bids_meta": {
    "AcquisitionMatrixPE": 104,
    "AcquisitionNumber": 1,
    "AcquisitionTime": "11:52:36.352500",
    "BandwidthPerPixelPhaseEncode": 17.17,
    "BaseResolution": 104,
    "BodyPartExamined": "BRAIN",
    "CogAtlasID": "trm_4c898da401420",
    "ConsistencyInfo": "N4_VE11C_LATEST_20160120",
    "ConversionSoftware": "dcm2niix",
    "ConversionSoftwareVersion": "v1.0.20171215 (OpenJPEG build) GCC7.3.0",
    "DerivedVendorReportedEchoSpacing": 0.000560011,
    "DeviceSerialNumber": "167006",
    "DwellTime": 2.1e-06,
    "EchoTime": 0.037,
    "EchoTrainLength": 104,
    "EffectiveEchoSpacing": 0.000560011,
    "FlipAngle": 52,
    "ImageComments": "Unaliased_MB4_PE3_LB",
    "ImageOrientationPatientDICOM": [
      0.996248,
      0.0817842,
      0.028297,
      -0.0736843,
      0.973102,
      -0.218273
    ],
    "ImageType": [
      "ORIGINAL",
      "PRIMARY",
      "M",
      "MB",
      "ND",
      "MOSAIC"
    ],
    "InPlanePhaseEncodingDirectionDICOM": "COL",
    "InstitutionAddress": "Chemin_Queen-Mary_4565_Montreal_District_CA_H3W_1W5",
    "InstitutionName": "IUGM",
    "InstitutionalDepartmentName": "Department",
    "MRAcquisitionType": "2D",
    "MagneticFieldStrength": 3,
    "Manufacturer": "Siemens",
    "ManufacturersModelName": "Prisma_fit",
    "Modality": "MR",
    "MultibandAccelerationFactor": 4,
    "PartialFourier": 1,
    "PatientPosition": "HFS",
    "PercentPhaseFOV": 100,
    "PhaseEncodingDirection": "j-",
    "PhaseEncodingSteps": 104,
    "PhaseResolution": 1,
    "PixelBandwidth": 2290,
    "ProcedureStepDescription": "video5_generic",
    "ProtocolName": "func_task-figures3",
    "PulseSequenceDetails": "%CustomerSeq%_cmrr_mbep2d_bold",
    "ReceiveCoilActiveElements": "HC1-7;NC1,2",
    "ReceiveCoilName": "HeadNeck_64",
    "ReconMatrixPE": 104,
    "RepetitionTime": 1.49,
    "SAR": 0.0416987,
    "ScanOptions": "FS",
    "ScanningSequence": "EP",
    "SequenceName": "epfid2d1_104",
    "SequenceVariant": "SK_SS",
    "SeriesDescription": "func_task-figures3",
    "SeriesNumber": 22,
    "ShimSetting": [
      640,
      -7208,
      -8824,
      698,
      117,
      -20,
      1,
      -34
    ],
    "SliceThickness": 2,
    "SliceTiming": [
      0,
      0.785,
      0.0975,
      0.8825,
      0.195,
      0.98,
      0.295,
      1.0775,
      0.3925,
      1.175,
      0.49,
      1.275,
      0.5875,
      1.3725,
      0.685,
      0,
      0.785,
      0.0975,
      0.8825,
      0.195,
      0.98,
      0.295,
      1.0775,
      0.3925,
      1.175,
      0.49,
      1.275,
      0.5875,
      1.3725,
      0.685,
      0,
      0.785,
      0.0975,
      0.8825,
      0.195,
      0.98,
      0.295,
      1.0775,
      0.3925,
      1.175,
      0.49,
      1.275,
      0.5875,
      1.3725,
      0.685,
      0,
      0.785,
      0.0975,
      0.8825,
      0.195,
      0.98,
      0.295,
      1.0775,
      0.3925,
      1.175,
      0.49,
      1.275,
      0.5875,
      1.3725,
      0.685
    ],
    "SoftwareVersions": "syngo_MR_E11",
    "SpacingBetweenSlices": 2,
    "StationName": "MRC35049",
    "TaskName": "figures03",
    "TotalReadoutTime": 0.0576811,
    "TxRefAmp": 258.327,
    "dataset": "<unset>",
    "dcmmeta_affine": [
      [
        -1.9924964904785156,
        -0.1473686695098877,
        0.09077431261539459,
        110.90245056152344
      ],
      [
        -0.163568377494812,
        1.9462041854858398,
        -0.4307374358177185,
        -64.69929504394531
      ],
      [
        0.05659406632184982,
        0.43654534220695496,
        1.9509549140930176,
        -54.89883041381836
      ],
      [
        0.0,
        0.0,
        0.0,
        1.0
      ]
    ],
    "dcmmeta_reorient_transform": [
      [
        0.0,
        -1.0,
        0.0,
        103.0
      ],
      [
        1.0,
        0.0,
        0.0,
        0.0
      ],
      [
        0.0,
        0.0,
        1.0,
        0.0
      ],
      [
        0.0,
        0.0,
        0.0,
        1.0
      ]
    ],
    "dcmmeta_shape": [
      104,
      104,
      60,
      410
    ],
    "dcmmeta_slice_dim": 2,
    "dcmmeta_version": 0.6,
    "global": {
      "const": {
        "AcquisitionMatrix": [
          104,
          0,
          0,
          104
        ],
        "AngioFlag": "N",
        "BitsAllocated": 16,
        "BitsStored": 16,
        "BodyPartExamined": "BRAIN",
        "Columns": 832,
        "EchoNumbers": 1,
        "EchoTime": 37.0,
        "EchoTrainLength": 104,
        "FlipAngle": 52.0,
        "HighBit": 15,
        "ImageOrientationPatient": [
          0.99624827459776,
          0.08178418708503,
          0.02829703348092,
          -0.0736843371465,
          0.97310208171682,
          -0.2182726666756
        ],
        "ImagePositionPatient": [
          -767.35002359283,
          -903.71693699873,
          128.36759959018
        ],
        "ImageType": [
          "ORIGINAL",
          "PRIMARY",
          "M",
          "MB",
          "ND",
          "MOSAIC"
        ],
        "ImagedNucleus": "1H",
        "ImagingFrequency": 123.259409,
        "InPlanePhaseEncodingDirection": "COL",
        "MRAcquisitionType": "2D",
        "MagneticFieldStrength": 3.0,
        "Manufacturer": "SIEMENS",
        "ManufacturerModelName": "Prisma_fit",
        "Modality": "MR",
        "NumberOfAverages": 1.0,
        "NumberOfPhaseEncodingSteps": 104,
        "PercentPhaseFieldOfView": 100.0,
        "PercentSampling": 100.0,
        "PerformedProcedureStepStartTime": "110807.800000",
        "PhotometricInterpretation": "MONOCHROME2",
        "PixelBandwidth": 2290.0,
        "PixelRepresentation": 0,
        "PixelSpacing": [
          2.0,
          2.0
        ],
        "ProtocolName": "func_task-figures3",
        "RepetitionTime": 1490.0,
        "Rows": 832,
        "SAR": 0.04169870556398,
        "SamplesPerPixel": 1,
        "ScanOptions": "FS",
        "ScanningSequence": "EP",
        "SequenceName": "epfid2d1_104",
        "SequenceVariant": [
          "SK",
          "SS"
        ],
        "SeriesDescription": "func_task-figures3",
        "SeriesNumber": 22,
        "SeriesTime": "115357.703000",
        "SliceLocation": -34.584822115469,
        "SliceThickness": 2.0,
        "SmallestImagePixelValue": 0,
        "SoftwareVersions": "syngo MR E11",
        "SpacingBetweenSlices": 1.9999999878322,
        "SpecificCharacterSet": "ISO_IR 100",
        "StudyID": "1",
        "StudyTime": "110807.696000",
        "TransmitCoilName": "Body",
        "VariableFlipAngleFlag": "N",
        "WindowCenterWidthExplanation": "Algo1",
        "dBdt": 0.0
      },
      "slices": {}
    },
    "modality": "bold",
    "run_id": 2,
    "session_id": "011",
    "subject_id": "01",
    "task_id": "figures03",
    "time": {
      "samples": {
        "AcquisitionNumber": [
          1,
          2,
          3,
          4,
          5,
          6,
          7,
          8,
          9,
          10,
          11,
          12,
          13,
          14,
          15,
          16,
          17,
          18,
          19,
          20,
          21,
          22,
          23,
          24,
          25,
          26,
          27,
          28,
          29,
          30,
          31,
          32,
          33,
          34,
          35,
          36,
          37,
          38,
          39,
          40,
          41,
          42,
          43,
          44,
          45,
          46,
          47,
          48,
          49,
          50,
          51,
          52,
          53,
          54,
          55,
          56,
          57,
          58,
          59,
          60,
          61,
          62,
          63,
          64,
          65,
          66,
          67,
          68,
          69,
          70,
          71,
          72,
          73,
          74,
          75,
          76,
          77,
          78,
          79,
          80,
          81,
          82,
          83,
          84,
          85,
          86,
          87,
          88,
          89,
          90,
          91,
          92,
          93,
          94,
          95,
          96,
          97,
          98,
          99,
          100,
          101,
          102,
          103,
          104,
          105,
          106,
          107,
          108,
          109,
          110,
          111,
          112,
          113,
          114,
          115,
          116,
          117,
          118,
          119,
          120,
          121,
          122,
          123,
          124,
          125,
          126,
          127,
          128,
          129,
          130,
          131,
          132,
          133,
          134,
          135,
          136,
          137,
          138,
          139,
          140,
          141,
          142,
          143,
          144,
          145,
          146,
          147,
          148,
          149,
          150,
          151,
          152,
          153,
          154,
          155,
          156,
          157,
          158,
          159,
          160,
          161,
          162,
          163,
          164,
          165,
          166,
          167,
          168,
          169,
          170,
          171,
          172,
          173,
          174,
          175,
          176,
          177,
          178,
          179,
          180,
          181,
          182,
          183,
          184,
          185,
          186,
          187,
          188,
          189,
          190,
          191,
          192,
          193,
          194,
          195,
          196,
          197,
          198,
          199,
          200,
          201,
          202,
          203,
          204,
          205,
          206,
          207,
          208,
          209,
          210,
          211,
          212,
          213,
          214,
          215,
          216,
          217,
          218,
          219,
          220,
          221,
          222,
          223,
          224,
          225,
          226,
          227,
          228,
          229,
          230,
          231,
          232,
          233,
          234,
          235,
          236,
          237,
          238,
          239,
          240,
          241,
          242,
          243,
          244,
          245,
          246,
          247,
          248,
          249,
          250,
          251,
          252,
          253,
          254,
          255,
          256,
          257,
          258,
          259,
          260,
          261,
          262,
          263,
          264,
          265,
          266,
          267,
          268,
          269,
          270,
          271,
          272,
          273,
          274,
          275,
          276,
          277,
          278,
          279,
          280,
          281,
          282,
          283,
          284,
          285,
          286,
          287,
          288,
          289,
          290,
          291,
          292,
          293,
          294,
          295,
          296,
          297,
          298,
          299,
          300,
          301,
          302,
          303,
          304,
          305,
          306,
          307,
          308,
          309,
          310,
          311,
          312,
          313,
          314,
          315,
          316,
          317,
          318,
          319,
          320,
          321,
          322,
          323,
          324,
          325,
          326,
          327,
          328,
          329,
          330,
          331,
          332,
          333,
          334,
          335,
          336,
          337,
          338,
          339,
          340,
          341,
          342,
          343,
          344,
          345,
          346,
          347,
          348,
          349,
          350,
          351,
          352,
          353,
          354,
          355,
          356,
          357,
          358,
          359,
          360,
          361,
          362,
          363,
          364,
          365,
          366,
          367,
          368,
          369,
          370,
          371,
          372,
          373,
          374,
          375,
          376,
          377,
          378,
          379,
          380,
          381,
          382,
          383,
          384,
          385,
          386,
          387,
          388,
          389,
          390,
          391,
          392,
          393,
          394,
          395,
          396,
          397,
          398,
          399,
          400,
          401,
          402,
          403,
          404,
          405,
          406,
          407,
          408,
          409,
          410
        ],
        "AcquisitionTime": [
          "115236.352500",
          "115237.842500",
          "115239.332500",
          "115240.822500",
          "115242.312500",
          "115243.802500",
          "115245.292500",
          "115246.782500",
          "115248.272500",
          "115249.762500",
          "115251.252500",
          "115252.742500",
          "115254.232500",
          "115255.722500",
          "115257.212500",
          "115258.702500",
          "115300.192500",
          "115301.682500",
          "115303.172500",
          "115304.662500",
          "115306.152500",
          "115307.642500",
          "115309.132500",
          "115310.622500",
          "115312.112500",
          "115313.602500",
          "115315.092500",
          "115316.582500",
          "115318.072500",
          "115319.562500",
          "115321.052500",
          "115322.542500",
          "115324.032500",
          "115325.522500",
          "115327.012500",
          "115328.502500",
          "115329.992500",
          "115331.482500",
          "115332.972500",
          "115334.462500",
          "115335.952500",
          "115337.442500",
          "115338.932500",
          "115340.422500",
          "115341.912500",
          "115343.402500",
          "115344.892500",
          "115346.382500",
          "115347.872500",
          "115349.362500",
          "115350.852500",
          "115352.342500",
          "115353.832500",
          "115355.322500",
          "115356.812500",
          "115358.302500",
          "115359.792500",
          "115401.282500",
          "115402.772500",
          "115404.262500",
          "115405.752500",
          "115407.242500",
          "115408.732500",
          "115410.222500",
          "115411.712500",
          "115413.202500",
          "115414.692500",
          "115416.182500",
          "115417.672500",
          "115419.162500",
          "115420.652500",
          "115422.142500",
          "115423.632500",
          "115425.122500",
          "115426.612500",
          "115428.102500",
          "115429.592500",
          "115431.082500",
          "115432.572500",
          "115434.062500",
          "115435.552500",
          "115437.042500",
          "115438.532500",
          "115440.022500",
          "115441.512500",
          "115443.002500",
          "115444.492500",
          "115445.982500",
          "115447.472500",
          "115448.962500",
          "115450.452500",
          "115451.942500",
          "115453.432500",
          "115454.922500",
          "115456.412500",
          "115457.902500",
          "115459.392500",
          "115500.882500",
          "115502.372500",
          "115503.862500",
          "115505.352500",
          "115506.842500",
          "115508.332500",
          "115509.822500",
          "115511.312500",
          "115512.802500",
          "115514.292500",
          "115515.782500",
          "115517.272500",
          "115518.762500",
          "115520.252500",
          "115521.742500",
          "115523.232500",
          "115524.722500",
          "115526.212500",
          "115527.702500",
          "115529.192500",
          "115530.682500",
          "115532.172500",
          "115533.662500",
          "115535.152500",
          "115536.642500",
          "115538.132500",
          "115539.622500",
          "115541.112500",
          "115542.602500",
          "115544.092500",
          "115545.582500",
          "115547.072500",
          "115548.562500",
          "115550.052500",
          "115551.542500",
          "115553.032500",
          "115554.522500",
          "115556.012500",
          "115557.502500",
          "115558.992500",
          "115600.482500",
          "115601.972500",
          "115603.462500",
          "115604.952500",
          "115606.442500",
          "115607.932500",
          "115609.422500",
          "115610.912500",
          "115612.402500",
          "115613.892500",
          "115615.382500",
          "115616.872500",
          "115618.362500",
          "115619.852500",
          "115621.342500",
          "115622.832500",
          "115624.322500",
          "115625.812500",
          "115627.302500",
          "115628.792500",
          "115630.282500",
          "115631.772500",
          "115633.262500",
          "115634.752500",
          "115636.242500",
          "115637.732500",
          "115639.222500",
          "115640.712500",
          "115642.202500",
          "115643.692500",
          "115645.182500",
          "115646.672500",
          "115648.162500",
          "115649.652500",
          "115651.142500",
          "115652.632500",
          "115654.122500",
          "115655.612500",
          "115657.102500",
          "115658.592500",
          "115700.082500",
          "115701.572500",
          "115703.062500",
          "115704.552500",
          "115706.042500",
          "115707.532500",
          "115709.022500",
          "115710.512500",
          "115712.002500",
          "115713.492500",
          "115714.982500",
          "115716.472500",
          "115717.962500",
          "115719.452500",
          "115720.942500",
          "115722.432500",
          "115723.922500",
          "115725.412500",
          "115726.902500",
          "115728.392500",
          "115729.882500",
          "115731.372500",
          "115732.862500",
          "115734.352500",
          "115735.842500",
          "115737.332500",
          "115738.822500",
          "115740.312500",
          "115741.802500",
          "115743.292500",
          "115744.782500",
          "115746.272500",
          "115747.762500",
          "115749.252500",
          "115750.742500",
          "115752.232500",
          "115753.722500",
          "115755.212500",
          "115756.702500",
          "115758.192500",
          "115759.682500",
          "115801.172500",
          "115802.662500",
          "115804.152500",
          "115805.642500",
          "115807.132500",
          "115808.622500",
          "115810.112500",
          "115811.602500",
          "115813.092500",
          "115814.582500",
          "115816.072500",
          "115817.562500",
          "115819.052500",
          "115820.542500",
          "115822.032500",
          "115823.522500",
          "115825.012500",
          "115826.502500",
          "115827.992500",
          "115829.482500",
          "115830.972500",
          "115832.462500",
          "115833.952500",
          "115835.442500",
          "115836.932500",
          "115838.422500",
          "115839.912500",
          "115841.402500",
          "115842.892500",
          "115844.382500",
          "115845.872500",
          "115847.362500",
          "115848.852500",
          "115850.342500",
          "115851.832500",
          "115853.322500",
          "115854.812500",
          "115856.302500",
          "115857.792500",
          "115859.282500",
          "115900.772500",
          "115902.262500",
          "115903.752500",
          "115905.242500",
          "115906.732500",
          "115908.222500",
          "115909.712500",
          "115911.202500",
          "115912.692500",
          "115914.182500",
          "115915.672500",
          "115917.162500",
          "115918.652500",
          "115920.142500",
          "115921.632500",
          "115923.122500",
          "115924.612500",
          "115926.102500",
          "115927.592500",
          "115929.082500",
          "115930.572500",
          "115932.062500",
          "115933.552500",
          "115935.042500",
          "115936.532500",
          "115938.022500",
          "115939.512500",
          "115941.002500",
          "115942.492500",
          "115943.982500",
          "115945.472500",
          "115946.962500",
          "115948.452500",
          "115949.942500",
          "115951.432500",
          "115952.922500",
          "115954.412500",
          "115955.902500",
          "115957.392500",
          "115958.882500",
          "120000.372500",
          "120001.862500",
          "120003.352500",
          "120004.842500",
          "120006.332500",
          "120007.822500",
          "120009.312500",
          "120010.802500",
          "120012.292500",
          "120013.782500",
          "120015.272500",
          "120016.762500",
          "120018.252500",
          "120019.742500",
          "120021.232500",
          "120022.722500",
          "120024.212500",
          "120025.702500",
          "120027.192500",
          "120028.682500",
          "120030.172500",
          "120031.662500",
          "120033.152500",
          "120034.642500",
          "120036.132500",
          "120037.622500",
          "120039.112500",
          "120040.602500",
          "120042.092500",
          "120043.582500",
          "120045.072500",
          "120046.562500",
          "120048.052500",
          "120049.542500",
          "120051.032500",
          "120052.522500",
          "120054.012500",
          "120055.502500",
          "120056.992500",
          "120058.482500",
          "120059.972500",
          "120101.462500",
          "120102.952500",
          "120104.442500",
          "120105.932500",
          "120107.422500",
          "120108.912500",
          "120110.402500",
          "120111.892500",
          "120113.382500",
          "120114.872500",
          "120116.362500",
          "120117.852500",
          "120119.342500",
          "120120.832500",
          "120122.322500",
          "120123.812500",
          "120125.302500",
          "120126.792500",
          "120128.282500",
          "120129.772500",
          "120131.262500",
          "120132.752500",
          "120134.242500",
          "120135.732500",
          "120137.222500",
          "120138.712500",
          "120140.202500",
          "120141.692500",
          "120143.182500",
          "120144.672500",
          "120146.162500",
          "120147.652500",
          "120149.142500",
          "120150.632500",
          "120152.122500",
          "120153.612500",
          "120155.102500",
          "120156.592500",
          "120158.082500",
          "120159.572500",
          "120201.062500",
          "120202.552500",
          "120204.042500",
          "120205.532500",
          "120207.022500",
          "120208.512500",
          "120210.002500",
          "120211.492500",
          "120212.982500",
          "120214.472500",
          "120215.962500",
          "120217.452500",
          "120218.942500",
          "120220.432500",
          "120221.922500",
          "120223.412500",
          "120224.902500",
          "120226.392500",
          "120227.882500",
          "120229.372500",
          "120230.862500",
          "120232.352500",
          "120233.842500",
          "120235.332500",
          "120236.822500",
          "120238.312500",
          "120239.802500",
          "120241.292500",
          "120242.782500",
          "120244.272500",
          "120245.762500"
        ],
        "ContentTime": [
          "115357.706000",
          "115357.709000",
          "115357.712000",
          "115357.715000",
          "115357.718000",
          "115357.721000",
          "115357.724000",
          "115357.727000",
          "115357.729000",
          "115357.732000",
          "115357.735000",
          "115357.738000",
          "115357.741000",
          "115357.744000",
          "115357.747000",
          "115357.749000",
          "115357.752000",
          "115357.755000",
          "115357.758000",
          "115357.761000",
          "115357.764000",
          "115357.767000",
          "115357.769000",
          "115357.777000",
          "115357.780000",
          "115357.783000",
          "115357.786000",
          "115357.796000",
          "115357.799000",
          "115417.660000",
          "115417.664000",
          "115417.667000",
          "115417.670000",
          "115417.674000",
          "115417.677000",
          "115417.680000",
          "115417.683000",
          "115417.685000",
          "115417.688000",
          "115417.691000",
          "115417.694000",
          "115417.697000",
          "115417.700000",
          "115417.703000",
          "115417.706000",
          "115417.708000",
          "115417.715000",
          "115417.718000",
          "115417.721000",
          "115437.660000",
          "115437.663000",
          "115437.666000",
          "115437.669000",
          "115437.672000",
          "115437.674000",
          "115437.677000",
          "115437.680000",
          "115437.683000",
          "115437.686000",
          "115437.689000",
          "115437.692000",
          "115437.694000",
          "115437.697000",
          "115437.700000",
          "115437.703000",
          "115437.706000",
          "115437.709000",
          "115437.711000",
          "115437.714000",
          "115437.717000",
          "115457.660000",
          "115457.663000",
          "115457.666000",
          "115457.669000",
          "115457.671000",
          "115457.674000",
          "115457.677000",
          "115457.693000",
          "115457.696000",
          "115457.698000",
          "115457.701000",
          "115457.704000",
          "115457.711000",
          "115457.714000",
          "115457.717000",
          "115457.719000",
          "115457.722000",
          "115457.725000",
          "115457.728000",
          "115457.731000",
          "115517.660000",
          "115517.663000",
          "115517.679000",
          "115517.682000",
          "115517.685000",
          "115517.688000",
          "115517.691000",
          "115517.694000",
          "115517.696000",
          "115517.699000",
          "115517.702000",
          "115517.705000",
          "115517.708000",
          "115517.710000",
          "115517.718000",
          "115517.721000",
          "115517.724000",
          "115517.726000",
          "115557.660000",
          "115557.663000",
          "115557.666000",
          "115557.669000",
          "115557.671000",
          "115557.674000",
          "115557.677000",
          "115557.680000",
          "115557.683000",
          "115557.686000",
          "115557.689000",
          "115557.691000",
          "115557.702000",
          "115557.704000",
          "115557.707000",
          "115557.710000",
          "115557.713000",
          "115557.716000",
          "115557.719000",
          "115557.722000",
          "115557.724000",
          "115557.727000",
          "115557.730000",
          "115557.733000",
          "115557.736000",
          "115557.738000",
          "115557.746000",
          "115637.660000",
          "115637.663000",
          "115637.666000",
          "115637.669000",
          "115637.672000",
          "115637.675000",
          "115637.677000",
          "115637.680000",
          "115637.683000",
          "115637.686000",
          "115637.689000",
          "115637.692000",
          "115637.695000",
          "115637.698000",
          "115637.700000",
          "115637.703000",
          "115637.706000",
          "115637.709000",
          "115637.712000",
          "115637.715000",
          "115637.718000",
          "115637.721000",
          "115637.723000",
          "115637.726000",
          "115637.729000",
          "115637.734000",
          "115717.660000",
          "115717.663000",
          "115717.666000",
          "115717.669000",
          "115717.672000",
          "115717.674000",
          "115717.677000",
          "115717.680000",
          "115717.683000",
          "115717.686000",
          "115717.689000",
          "115717.692000",
          "115717.695000",
          "115717.697000",
          "115717.700000",
          "115717.703000",
          "115717.706000",
          "115717.709000",
          "115717.712000",
          "115717.714000",
          "115717.717000",
          "115717.720000",
          "115717.723000",
          "115717.726000",
          "115717.729000",
          "115717.732000",
          "115717.734000",
          "115757.660000",
          "115757.663000",
          "115757.666000",
          "115757.669000",
          "115757.672000",
          "115757.674000",
          "115757.677000",
          "115757.680000",
          "115757.683000",
          "115757.686000",
          "115757.695000",
          "115757.698000",
          "115757.701000",
          "115757.704000",
          "115757.706000",
          "115757.709000",
          "115757.712000",
          "115757.715000",
          "115757.718000",
          "115757.721000",
          "115757.724000",
          "115757.726000",
          "115757.729000",
          "115757.732000",
          "115757.735000",
          "115757.738000",
          "115757.741000",
          "115837.661000",
