{
  "aor": 0.0003424938875305623,
  "aqi": 0.008858630562347187,
  "bids_meta": {
    "AcquisitionMatrixPE": 104,
    "AcquisitionNumber": 1,
    "AcquisitionTime": "15:56:43.892500",
    "BandwidthPerPixelPhaseEncode": 17.17,
    "BaseResolution": 104,
    "BodyPartExamined": "BRAIN",
    "CogAtlasID": "trm_4c898da401420",
    "ConsistencyInfo": "N4_VE11C_LATEST_20160120",
    "ConversionSoftware": "dcm2niix",
    "ConversionSoftwareVersion": "v1.0.20171215 (OpenJPEG build) GCC7.3.0",
    "DerivedVendorReportedEchoSpacing": 0.000560011,
    "DeviceSerialNumber": "167006",
    "DwellTime": 2.1e-06,
    "EchoTime": 0.037,
    "EchoTrainLength": 104,
    "EffectiveEchoSpacing": 0.000560011,
    "FlipAngle": 52,
    "ImageComments": "Unaliased_MB4_PE3_LB",
    "ImageOrientationPatientDICOM": [
      0.99905,
      0.0189197,
      -0.0392675,
      -0.0296512,
      0.955314,
      -0.294102
    ],
    "ImageType": [
      "ORIGINAL",
      "PRIMARY",
      "M",
      "MB",
      "ND",
      "MOSAIC"
    ],
    "InPlanePhaseEncodingDirectionDICOM": "COL",
    "InstitutionAddress": "Chemin_Queen-Mary_4565_Montreal_District_CA_H3W_1W5",
    "InstitutionName": "IUGM",
    "InstitutionalDepartmentName": "Department",
    "MRAcquisitionType": "2D",
    "MagneticFieldStrength": 3,
    "Manufacturer": "Siemens",
    "ManufacturersModelName": "Prisma_fit",
    "Modality": "MR",
    "MultibandAccelerationFactor": 4,
    "PartialFourier": 1,
    "PatientPosition": "HFS",
    "PercentPhaseFOV": 100,
    "PhaseEncodingDirection": "j-",
    "PhaseEncodingSteps": 104,
    "PhaseResolution": 1,
    "PixelBandwidth": 2290,
    "ProcedureStepDescription": "video5_generic",
    "ProtocolName": "func_task-figures11",
    "PulseSequenceDetails": "%CustomerSeq%_cmrr_mbep2d_bold",
    "ReceiveCoilActiveElements": "HC1-7;NC1,2",
    "ReceiveCoilName": "HeadNeck_64",
    "ReconMatrixPE": 104,
    "RepetitionTime": 1.49,
    "SAR": 0.0288942,
    "ScanOptions": "FS",
    "ScanningSequence": "EP",
    "SequenceName": "epfid2d1_104",
    "SequenceVariant": "SK_SS",
    "SeriesDescription": "func_task-figures11",
    "SeriesNumber": 13,
    "ShimSetting": [
      630,
      -7252,
      -8844,
      580,
      17,
      -235,
      -101,
      0
    ],
    "SliceThickness": 2,
    "SliceTiming": [
      0,
      0.785,
      0.0975,
      0.8825,
      0.195,
      0.98,
      0.295,
      1.0775,
      0.3925,
      1.175,
      0.49,
      1.275,
      0.5875,
      1.3725,
      0.685,
      0,
      0.785,
      0.0975,
      0.8825,
      0.195,
      0.98,
      0.295,
      1.0775,
      0.3925,
      1.175,
      0.49,
      1.275,
      0.5875,
      1.3725,
      0.685,
      0,
      0.785,
      0.0975,
      0.8825,
      0.195,
      0.98,
      0.295,
      1.0775,
      0.3925,
      1.175,
      0.49,
      1.275,
      0.5875,
      1.3725,
      0.685,
      0,
      0.785,
      0.0975,
      0.8825,
      0.195,
      0.98,
      0.295,
      1.0775,
      0.3925,
      1.175,
      0.49,
      1.275,
      0.5875,
      1.3725,
      0.685
    ],
    "SoftwareVersions": "syngo_MR_E11",
    "SpacingBetweenSlices": 2,
    "StationName": "MRC35049",
    "TaskName": "figures11",
    "TotalReadoutTime": 0.0576811,
    "TxRefAmp": 218.529,
    "dataset": "<unset>",
    "dcmmeta_affine": [
      [
        -1.9980992078781128,
        -0.059302300214767456,
        -0.06389698386192322,
        108.4341049194336
      ],
      [
        -0.037839483469724655,
        1.9106277227401733,
        -0.5899744033813477,
        -69.88750457763672
      ],
      [
        -0.07853508740663528,
        0.5882047414779663,
        1.9099339246749878,
        -64.47221374511719
      ],
      [
        0.0,
        0.0,
        0.0,
        1.0
      ]
    ],
    "dcmmeta_reorient_transform": [
      [
        0.0,
        -1.0,
        0.0,
        103.0
      ],
      [
        1.0,
        0.0,
        0.0,
        0.0
      ],
      [
        0.0,
        0.0,
        1.0,
        0.0
      ],
      [
        0.0,
        0.0,
        0.0,
        1.0
      ]
    ],
    "dcmmeta_shape": [
      104,
      104,
      60,
      410
    ],
    "dcmmeta_slice_dim": 2,
    "dcmmeta_version": 0.6,
    "global": {
      "const": {
        "AcquisitionMatrix": [
          104,
          0,
          0,
          104
        ],
        "AngioFlag": "N",
        "BitsAllocated": 16,
        "BitsStored": 16,
        "BodyPartExamined": "BRAIN",
        "Columns": 832,
        "EchoNumbers": 1,
        "EchoTime": 37.0,
        "EchoTrainLength": 104,
        "FlipAngle": 52.0,
        "HighBit": 15,
        "ImageOrientationPatient": [
          0.99904960000174,
          0.01891974165468,
          -0.0392675452771,
          -0.0296511505957,
          0.95531387561248,
          -0.2941023772951
        ],
        "ImagePositionPatient": [
          -808.04803849601,
          -836.14922640832,
          238.806177466
        ],
        "ImageType": [
          "ORIGINAL",
          "PRIMARY",
          "M",
          "MB",
          "ND",
          "MOSAIC"
        ],
        "ImagedNucleus": "1H",
        "ImagingFrequency": 123.259171,
        "InPlanePhaseEncodingDirection": "COL",
        "MRAcquisitionType": "2D",
        "MagneticFieldStrength": 3.0,
        "Manufacturer": "SIEMENS",
        "ManufacturerModelName": "Prisma_fit",
        "Modality": "MR",
        "NumberOfAverages": 1.0,
        "NumberOfPhaseEncodingSteps": 104,
        "PercentPhaseFieldOfView": 100.0,
        "PercentSampling": 100.0,
        "PerformedProcedureStepStartTime": "153145.194000",
        "PhotometricInterpretation": "MONOCHROME2",
        "PixelBandwidth": 2290.0,
        "PixelRepresentation": 0,
        "PixelSpacing": [
          2.0,
          2.0
        ],
        "ProtocolName": "func_task-figures11",
        "RepetitionTime": 1490.0,
        "Rows": 832,
        "SAR": 0.0288942219056,
        "SamplesPerPixel": 1,
        "ScanOptions": "FS",
        "ScanningSequence": "EP",
        "SequenceName": "epfid2d1_104",
        "SequenceVariant": [
          "SK",
          "SS"
        ],
        "SeriesDescription": "func_task-figures11",
        "SeriesNumber": 13,
        "SeriesTime": "155803.672000",
        "SliceLocation": -44.417221603733,
        "SliceThickness": 2.0,
        "SmallestImagePixelValue": 0,
        "SoftwareVersions": "syngo MR E11",
        "SpacingBetweenSlices": 2.0000000155017,
        "SpecificCharacterSet": "ISO_IR 100",
        "StudyID": "1",
        "StudyTime": "153145.148000",
        "TransmitCoilName": "Body",
        "VariableFlipAngleFlag": "N",
        "WindowCenterWidthExplanation": "Algo1",
        "dBdt": 0.0
      },
      "slices": {}
    },
    "modality": "bold",
    "run_id": 2,
    "session_id": "008",
    "subject_id": "06",
    "task_id": "figures11",
    "time": {
      "samples": {
        "AcquisitionNumber": [
          1,
          2,
          3,
          4,
          5,
          6,
          7,
          8,
          9,
          10,
          11,
          12,
          13,
          14,
          15,
          16,
          17,
          18,
          19,
          20,
          21,
          22,
          23,
          24,
          25,
          26,
          27,
          28,
          29,
          30,
          31,
          32,
          33,
          34,
          35,
          36,
          37,
          38,
          39,
          40,
          41,
          42,
          43,
          44,
          45,
          46,
          47,
          48,
          49,
          50,
          51,
          52,
          53,
          54,
          55,
          56,
          57,
          58,
          59,
          60,
          61,
          62,
          63,
          64,
          65,
          66,
          67,
          68,
          69,
          70,
          71,
          72,
          73,
          74,
          75,
          76,
          77,
          78,
          79,
          80,
          81,
          82,
          83,
          84,
          85,
          86,
          87,
          88,
          89,
          90,
          91,
          92,
          93,
          94,
          95,
          96,
          97,
          98,
          99,
          100,
          101,
          102,
          103,
          104,
          105,
          106,
          107,
          108,
          109,
          110,
          111,
          112,
          113,
          114,
          115,
          116,
          117,
          118,
          119,
          120,
          121,
          122,
          123,
          124,
          125,
          126,
          127,
          128,
          129,
          130,
          131,
          132,
          133,
          134,
          135,
          136,
          137,
          138,
          139,
          140,
          141,
          142,
          143,
          144,
          145,
          146,
          147,
          148,
          149,
          150,
          151,
          152,
          153,
          154,
          155,
          156,
          157,
          158,
          159,
          160,
          161,
          162,
          163,
          164,
          165,
          166,
          167,
          168,
          169,
          170,
          171,
          172,
          173,
          174,
          175,
          176,
          177,
          178,
          179,
          180,
          181,
          182,
          183,
          184,
          185,
          186,
          187,
          188,
          189,
          190,
          191,
          192,
          193,
          194,
          195,
          196,
          197,
          198,
          199,
          200,
          201,
          202,
          203,
          204,
          205,
          206,
          207,
          208,
          209,
          210,
          211,
          212,
          213,
          214,
          215,
          216,
          217,
          218,
          219,
          220,
          221,
          222,
          223,
          224,
          225,
          226,
          227,
          228,
          229,
          230,
          231,
          232,
          233,
          234,
          235,
          236,
          237,
          238,
          239,
          240,
          241,
          242,
          243,
          244,
          245,
          246,
          247,
          248,
          249,
          250,
          251,
          252,
          253,
          254,
          255,
          256,
          257,
          258,
          259,
          260,
          261,
          262,
          263,
          264,
          265,
          266,
          267,
          268,
          269,
          270,
          271,
          272,
          273,
          274,
          275,
          276,
          277,
          278,
          279,
          280,
          281,
          282,
          283,
          284,
          285,
          286,
          287,
          288,
          289,
          290,
          291,
          292,
          293,
          294,
          295,
          296,
          297,
          298,
          299,
          300,
          301,
          302,
          303,
          304,
          305,
          306,
          307,
          308,
          309,
          310,
          311,
          312,
          313,
          314,
          315,
          316,
          317,
          318,
          319,
          320,
          321,
          322,
          323,
          324,
          325,
          326,
          327,
          328,
          329,
          330,
          331,
          332,
          333,
          334,
          335,
          336,
          337,
          338,
          339,
          340,
          341,
          342,
          343,
          344,
          345,
          346,
          347,
          348,
          349,
          350,
          351,
          352,
          353,
          354,
          355,
          356,
          357,
          358,
          359,
          360,
          361,
          362,
          363,
          364,
          365,
          366,
          367,
          368,
          369,
          370,
          371,
          372,
          373,
          374,
          375,
          376,
          377,
          378,
          379,
          380,
          381,
          382,
          383,
          384,
          385,
          386,
          387,
          388,
          389,
          390,
          391,
          392,
          393,
          394,
          395,
          396,
          397,
          398,
          399,
          400,
          401,
          402,
          403,
          404,
          405,
          406,
          407,
          408,
          409,
          410
        ],
        "AcquisitionTime": [
          "155643.892500",
          "155645.382500",
          "155646.872500",
          "155648.362500",
          "155649.852500",
          "155651.342500",
          "155652.832500",
          "155654.322500",
          "155655.812500",
          "155657.302500",
          "155658.792500",
          "155700.282500",
          "155701.772500",
          "155703.262500",
          "155704.752500",
          "155706.242500",
          "155707.732500",
          "155709.222500",
          "155710.712500",
          "155712.202500",
          "155713.692500",
          "155715.182500",
          "155716.672500",
          "155718.162500",
          "155719.652500",
          "155721.142500",
          "155722.632500",
          "155724.122500",
          "155725.612500",
          "155727.102500",
          "155728.592500",
          "155730.082500",
          "155731.572500",
          "155733.062500",
          "155734.552500",
          "155736.042500",
          "155737.532500",
          "155739.022500",
          "155740.512500",
          "155742.002500",
          "155743.492500",
          "155744.982500",
          "155746.472500",
          "155747.962500",
          "155749.452500",
          "155750.942500",
          "155752.432500",
          "155753.922500",
          "155755.412500",
          "155756.902500",
          "155758.392500",
          "155759.882500",
          "155801.372500",
          "155802.862500",
          "155804.352500",
          "155805.842500",
          "155807.332500",
          "155808.822500",
          "155810.312500",
          "155811.802500",
          "155813.292500",
          "155814.782500",
          "155816.272500",
          "155817.762500",
          "155819.252500",
          "155820.742500",
          "155822.232500",
          "155823.722500",
          "155825.212500",
          "155826.702500",
          "155828.192500",
          "155829.682500",
          "155831.172500",
          "155832.662500",
          "155834.152500",
          "155835.642500",
          "155837.132500",
          "155838.622500",
          "155840.112500",
          "155841.602500",
          "155843.092500",
          "155844.582500",
          "155846.072500",
          "155847.562500",
          "155849.052500",
          "155850.542500",
          "155852.032500",
          "155853.522500",
          "155855.012500",
          "155856.502500",
          "155857.992500",
          "155859.482500",
          "155900.972500",
          "155902.462500",
          "155903.952500",
          "155905.442500",
          "155906.932500",
          "155908.422500",
          "155909.912500",
          "155911.402500",
          "155912.892500",
          "155914.382500",
          "155915.872500",
          "155917.362500",
          "155918.852500",
          "155920.342500",
          "155921.832500",
          "155923.322500",
          "155924.812500",
          "155926.302500",
          "155927.792500",
          "155929.282500",
          "155930.772500",
          "155932.262500",
          "155933.752500",
          "155935.242500",
          "155936.732500",
          "155938.222500",
          "155939.712500",
          "155941.202500",
          "155942.692500",
          "155944.182500",
          "155945.672500",
          "155947.162500",
          "155948.652500",
          "155950.142500",
          "155951.632500",
          "155953.122500",
          "155954.612500",
          "155956.102500",
          "155957.592500",
          "155959.082500",
          "160000.572500",
          "160002.062500",
          "160003.552500",
          "160005.042500",
          "160006.532500",
          "160008.022500",
          "160009.512500",
          "160011.002500",
          "160012.492500",
          "160013.982500",
          "160015.472500",
          "160016.962500",
          "160018.452500",
          "160019.942500",
          "160021.432500",
          "160022.922500",
          "160024.412500",
          "160025.902500",
          "160027.392500",
          "160028.882500",
          "160030.372500",
          "160031.862500",
          "160033.352500",
          "160034.842500",
          "160036.332500",
          "160037.822500",
          "160039.312500",
          "160040.802500",
          "160042.292500",
          "160043.782500",
          "160045.272500",
          "160046.762500",
          "160048.252500",
          "160049.742500",
          "160051.232500",
          "160052.722500",
          "160054.212500",
          "160055.702500",
          "160057.192500",
          "160058.682500",
          "160100.172500",
          "160101.662500",
          "160103.152500",
          "160104.642500",
          "160106.132500",
          "160107.622500",
          "160109.112500",
          "160110.602500",
          "160112.092500",
          "160113.582500",
          "160115.072500",
          "160116.562500",
          "160118.052500",
          "160119.542500",
          "160121.032500",
          "160122.522500",
          "160124.012500",
          "160125.502500",
          "160126.992500",
          "160128.482500",
          "160129.972500",
          "160131.462500",
          "160132.952500",
          "160134.442500",
          "160135.932500",
          "160137.422500",
          "160138.912500",
          "160140.402500",
          "160141.892500",
          "160143.382500",
          "160144.872500",
          "160146.362500",
          "160147.852500",
          "160149.342500",
          "160150.832500",
          "160152.322500",
          "160153.812500",
          "160155.302500",
          "160156.792500",
          "160158.282500",
          "160159.772500",
          "160201.262500",
          "160202.752500",
          "160204.242500",
          "160205.732500",
          "160207.222500",
          "160208.712500",
          "160210.202500",
          "160211.692500",
          "160213.182500",
          "160214.672500",
          "160216.162500",
          "160217.652500",
          "160219.142500",
          "160220.632500",
          "160222.122500",
          "160223.612500",
          "160225.102500",
          "160226.592500",
          "160228.082500",
          "160229.572500",
          "160231.062500",
          "160232.552500",
          "160234.042500",
          "160235.532500",
          "160237.022500",
          "160238.512500",
          "160240.002500",
          "160241.492500",
          "160242.982500",
          "160244.472500",
          "160245.962500",
          "160247.452500",
          "160248.942500",
          "160250.432500",
          "160251.922500",
          "160253.412500",
          "160254.902500",
          "160256.392500",
          "160257.882500",
          "160259.372500",
          "160300.862500",
          "160302.352500",
          "160303.842500",
          "160305.332500",
          "160306.822500",
          "160308.312500",
          "160309.802500",
          "160311.292500",
          "160312.782500",
          "160314.272500",
          "160315.762500",
          "160317.252500",
          "160318.742500",
          "160320.232500",
          "160321.722500",
          "160323.212500",
          "160324.702500",
          "160326.192500",
          "160327.682500",
          "160329.172500",
          "160330.662500",
          "160332.152500",
          "160333.642500",
          "160335.132500",
          "160336.622500",
          "160338.112500",
          "160339.602500",
          "160341.092500",
          "160342.582500",
          "160344.072500",
          "160345.562500",
          "160347.052500",
          "160348.542500",
          "160350.032500",
          "160351.522500",
          "160353.012500",
          "160354.502500",
          "160355.992500",
          "160357.482500",
          "160358.972500",
          "160400.462500",
          "160401.952500",
          "160403.442500",
          "160404.932500",
          "160406.422500",
          "160407.912500",
          "160409.402500",
          "160410.892500",
          "160412.382500",
          "160413.872500",
          "160415.362500",
          "160416.852500",
          "160418.342500",
          "160419.832500",
          "160421.322500",
          "160422.812500",
          "160424.302500",
          "160425.792500",
          "160427.282500",
          "160428.772500",
          "160430.262500",
          "160431.752500",
          "160433.242500",
          "160434.732500",
          "160436.222500",
          "160437.712500",
          "160439.202500",
          "160440.692500",
          "160442.182500",
          "160443.672500",
          "160445.162500",
          "160446.652500",
          "160448.142500",
          "160449.632500",
          "160451.122500",
          "160452.612500",
          "160454.102500",
          "160455.592500",
          "160457.082500",
          "160458.572500",
          "160500.062500",
          "160501.552500",
          "160503.042500",
          "160504.532500",
          "160506.022500",
          "160507.512500",
          "160509.002500",
          "160510.492500",
          "160511.982500",
          "160513.472500",
          "160514.962500",
          "160516.452500",
          "160517.942500",
          "160519.432500",
          "160520.922500",
          "160522.412500",
          "160523.902500",
          "160525.392500",
          "160526.882500",
          "160528.372500",
          "160529.862500",
          "160531.352500",
          "160532.842500",
          "160534.332500",
          "160535.822500",
          "160537.312500",
          "160538.802500",
          "160540.292500",
          "160541.782500",
          "160543.272500",
          "160544.762500",
          "160546.252500",
          "160547.742500",
          "160549.232500",
          "160550.722500",
          "160552.212500",
          "160553.702500",
          "160555.192500",
          "160556.682500",
          "160558.172500",
          "160559.662500",
          "160601.152500",
          "160602.642500",
          "160604.132500",
          "160605.622500",
          "160607.112500",
          "160608.602500",
          "160610.092500",
          "160611.582500",
          "160613.072500",
          "160614.562500",
          "160616.052500",
          "160617.542500",
          "160619.032500",
          "160620.522500",
          "160622.012500",
          "160623.502500",
          "160624.992500",
          "160626.482500",
          "160627.972500",
          "160629.462500",
          "160630.952500",
          "160632.442500",
          "160633.932500",
          "160635.422500",
          "160636.912500",
          "160638.402500",
          "160639.892500",
          "160641.382500",
          "160642.872500",
          "160644.362500",
          "160645.852500",
          "160647.342500",
          "160648.832500",
          "160650.322500",
          "160651.812500",
          "160653.302500"
        ],
        "ContentTime": [
          "155803.675000",
          "155803.678000",
          "155803.681000",
          "155803.684000",
          "155803.687000",
          "155803.690000",
          "155803.693000",
          "155803.696000",
          "155803.699000",
          "155803.702000",
          "155803.709000",
          "155803.712000",
          "155803.715000",
          "155803.718000",
          "155803.721000",
          "155803.724000",
          "155803.727000",
          "155803.729000",
          "155803.732000",
          "155803.735000",
          "155803.738000",
          "155803.741000",
          "155803.744000",
          "155803.747000",
          "155803.750000",
          "155803.752000",
          "155823.630000",
          "155823.633000",
          "155823.636000",
          "155823.639000",
          "155823.642000",
          "155823.644000",
          "155823.647000",
          "155823.650000",
          "155823.653000",
          "155823.656000",
          "155823.659000",
          "155823.661000",
          "155823.664000",
          "155823.674000",
          "155823.677000",
          "155823.680000",
          "155823.683000",
          "155823.686000",
          "155823.688000",
          "155823.691000",
          "155843.629000",
          "155843.632000",
          "155843.635000",
          "155843.638000",
          "155843.640000",
          "155843.643000",
          "155843.646000",
          "155843.649000",
          "155843.652000",
          "155843.655000",
          "155843.658000",
          "155843.661000",
          "155843.664000",
          "155843.667000",
          "155843.677000",
          "155843.680000",
          "155843.683000",
          "155843.686000",
          "155843.689000",
          "155843.692000",
          "155903.630000",
          "155903.633000",
          "155903.636000",
          "155903.639000",
          "155903.642000",
          "155903.645000",
          "155903.647000",
          "155903.650000",
          "155903.653000",
          "155903.656000",
          "155903.659000",
          "155903.662000",
          "155903.665000",
          "155903.668000",
          "155903.671000",
          "155903.673000",
          "155903.676000",
          "155903.679000",
          "155903.682000",
          "155903.685000",
          "155923.630000",
          "155923.633000",
          "155923.636000",
          "155923.639000",
          "155923.642000",
          "155923.645000",
          "155923.648000",
          "155923.650000",
          "155923.653000",
          "155923.656000",
          "155923.659000",
          "155923.662000",
          "155923.665000",
          "155923.668000",
          "155923.671000",
          "155923.674000",
          "155923.676000",
          "155923.679000",
          "155923.682000",
          "155923.685000",
          "160003.641000",
          "160003.644000",
          "160003.647000",
          "160003.650000",
          "160003.653000",
          "160003.656000",
          "160003.659000",
          "160003.661000",
          "160003.664000",
          "160003.667000",
          "160003.670000",
          "160003.673000",
          "160003.676000",
          "160003.679000",
          "160003.681000",
          "160003.685000",
          "160003.688000",
          "160003.690000",
          "160003.693000",
          "160003.696000",
          "160003.699000",
          "160003.702000",
          "160003.705000",
          "160003.708000",
          "160003.711000",
          "160003.714000",
          "160003.716000",
          "160043.630000",
          "160043.633000",
          "160043.636000",
          "160043.639000",
          "160043.642000",
          "160043.645000",
          "160043.648000",
          "160043.651000",
          "160043.653000",
          "160043.656000",
          "160043.659000",
          "160043.662000",
          "160043.665000",
          "160043.668000",
          "160043.671000",
          "160043.674000",
          "160043.677000",
          "160043.680000",
          "160043.683000",
          "160043.686000",
          "160043.689000",
          "160043.691000",
          "160043.694000",
          "160043.697000",
          "160043.700000",
          "160043.703000",
          "160043.706000",
          "160123.630000",
          "160123.633000",
          "160123.636000",
          "160123.639000",
          "160123.642000",
          "160123.645000",
          "160123.648000",
          "160123.650000",
          "160123.653000",
          "160123.656000",
          "160123.659000",
          "160123.662000",
          "160123.665000",
          "160123.668000",
          "160123.671000",
          "160123.674000",
          "160123.677000",
          "160123.680000",
          "160123.683000",
          "160123.686000",
          "160123.688000",
          "160123.691000",
          "160123.694000",
          "160123.697000",
          "160123.700000",
          "160123.703000",
          "160123.706000",
          "160203.630000",
          "160203.633000",
          "160203.636000",
          "160203.639000",
          "160203.642000",
          "160203.645000",
          "160203.647000",
          "160203.650000",
          "160203.654000",
          "160203.656000",
          "160203.659000",
          "160203.662000",
          "160203.665000",
          "160203.668000",
          "160203.671000",
          "160203.674000",
          "160203.677000",
          "160203.680000",
          "160203.683000",
          "160203.685000",
          "160203.688000",
          "160203.691000",
          "160203.694000",
          "160203.702000",
          "160203.705000",
          "160203.708000",
          "160203.711000",
          "160243.630000",
          "160243.633000",
