{
  "aor": 0.0008907334963325183,
  "aqi": 0.005963502811735941,
  "bids_meta": {
    "AcquisitionMatrixPE": 104,
    "AcquisitionNumber": 1,
    "AcquisitionTime": "15:35:6.837500",
    "BandwidthPerPixelPhaseEncode": 17.17,
    "BaseResolution": 104,
    "BodyPartExamined": "BRAIN",
    "CogAtlasID": "trm_4c898da401420",
    "ConsistencyInfo": "N4_VE11C_LATEST_20160120",
    "ConversionSoftware": "dcm2niix",
    "ConversionSoftwareVersion": "v1.0.20171215 (OpenJPEG build) GCC7.3.0",
    "DerivedVendorReportedEchoSpacing": 0.000560011,
    "DeviceSerialNumber": "167006",
    "DwellTime": 2.1e-06,
    "EchoTime": 0.037,
    "EchoTrainLength": 104,
    "EffectiveEchoSpacing": 0.000560011,
    "FlipAngle": 52,
    "ImageComments": "Unaliased_MB4_PE3_LB",
    "ImageOrientationPatientDICOM": [
      0.99905,
      0.0189197,
      -0.0392675,
      -0.0296512,
      0.955314,
      -0.294102
    ],
    "ImageType": [
      "ORIGINAL",
      "PRIMARY",
      "M",
      "MB",
      "ND",
      "MOSAIC"
    ],
    "InPlanePhaseEncodingDirectionDICOM": "COL",
    "InstitutionAddress": "Chemin_Queen-Mary_4565_Montreal_District_CA_H3W_1W5",
    "InstitutionName": "IUGM",
    "InstitutionalDepartmentName": "Department",
    "MRAcquisitionType": "2D",
    "MagneticFieldStrength": 3,
    "Manufacturer": "Siemens",
    "ManufacturersModelName": "Prisma_fit",
    "Modality": "MR",
    "MultibandAccelerationFactor": 4,
    "PartialFourier": 1,
    "PatientPosition": "HFS",
    "PercentPhaseFOV": 100,
    "PhaseEncodingDirection": "j-",
    "PhaseEncodingSteps": 104,
    "PhaseResolution": 1,
    "PixelBandwidth": 2290,
    "ProcedureStepDescription": "video5_generic",
    "ProtocolName": "func_task-figures9",
    "PulseSequenceDetails": "%CustomerSeq%_cmrr_mbep2d_bold",
    "ReceiveCoilActiveElements": "HC1-7;NC1,2",
    "ReceiveCoilName": "HeadNeck_64",
    "ReconMatrixPE": 104,
    "RepetitionTime": 1.49,
    "SAR": 0.0288942,
    "ScanOptions": "FS",
    "ScanningSequence": "EP",
    "SequenceName": "epfid2d1_104",
    "SequenceVariant": "SK_SS",
    "SeriesDescription": "func_task-figures9",
    "SeriesNumber": 9,
    "ShimSetting": [
      629,
      -7252,
      -8844,
      577,
      14,
      -237,
      -99,
      -1
    ],
    "SliceThickness": 2,
    "SliceTiming": [
      0,
      0.7825,
      0.0975,
      0.88,
      0.195,
      0.9775,
      0.2925,
      1.0775,
      0.39,
      1.175,
      0.49,
      1.2725,
      0.5875,
      1.37,
      0.685,
      0,
      0.7825,
      0.0975,
      0.88,
      0.195,
      0.9775,
      0.2925,
      1.0775,
      0.39,
      1.175,
      0.49,
      1.2725,
      0.5875,
      1.37,
      0.685,
      0,
      0.7825,
      0.0975,
      0.88,
      0.195,
      0.9775,
      0.2925,
      1.0775,
      0.39,
      1.175,
      0.49,
      1.2725,
      0.5875,
      1.37,
      0.685,
      0,
      0.7825,
      0.0975,
      0.88,
      0.195,
      0.9775,
      0.2925,
      1.0775,
      0.39,
      1.175,
      0.49,
      1.2725,
      0.5875,
      1.37,
      0.685
    ],
    "SoftwareVersions": "syngo_MR_E11",
    "SpacingBetweenSlices": 2,
    "StationName": "MRC35049",
    "TaskName": "figures09",
    "TotalReadoutTime": 0.0576811,
    "TxRefAmp": 218.529,
    "dataset": "<unset>",
    "dcmmeta_affine": [
      [
        -1.9980992078781128,
        -0.059302300214767456,
        -0.06389698386192322,
        108.4341049194336
      ],
      [
        -0.037839483469724655,
        1.9106277227401733,
        -0.5899744033813477,
        -69.88750457763672
      ],
      [
        -0.07853508740663528,
        0.5882047414779663,
        1.9099339246749878,
        -64.47221374511719
      ],
      [
        0.0,
        0.0,
        0.0,
        1.0
      ]
    ],
    "dcmmeta_reorient_transform": [
      [
        0.0,
        -1.0,
        0.0,
        103.0
      ],
      [
        1.0,
        0.0,
        0.0,
        0.0
      ],
      [
        0.0,
        0.0,
        1.0,
        0.0
      ],
      [
        0.0,
        0.0,
        0.0,
        1.0
      ]
    ],
    "dcmmeta_shape": [
      104,
      104,
      60,
      410
    ],
    "dcmmeta_slice_dim": 2,
    "dcmmeta_version": 0.6,
    "global": {
      "const": {
        "AcquisitionMatrix": [
          104,
          0,
          0,
          104
        ],
        "AngioFlag": "N",
        "BitsAllocated": 16,
        "BitsStored": 16,
        "BodyPartExamined": "BRAIN",
        "Columns": 832,
        "EchoNumbers": 1,
        "EchoTime": 37.0,
        "EchoTrainLength": 104,
        "FlipAngle": 52.0,
        "HighBit": 15,
        "ImageOrientationPatient": [
          0.99904960000174,
          0.01891974165468,
          -0.0392675452771,
          -0.0296511505957,
          0.95531387561248,
          -0.2941023772951
        ],
        "ImagePositionPatient": [
          -808.04803849601,
          -836.14922640832,
          238.806177466
        ],
        "ImageType": [
          "ORIGINAL",
          "PRIMARY",
          "M",
          "MB",
          "ND",
          "MOSAIC"
        ],
        "ImagedNucleus": "1H",
        "ImagingFrequency": 123.259158,
        "InPlanePhaseEncodingDirection": "COL",
        "MRAcquisitionType": "2D",
        "MagneticFieldStrength": 3.0,
        "Manufacturer": "SIEMENS",
        "ManufacturerModelName": "Prisma_fit",
        "Modality": "MR",
        "NumberOfAverages": 1.0,
        "NumberOfPhaseEncodingSteps": 104,
        "PercentPhaseFieldOfView": 100.0,
        "PercentSampling": 100.0,
        "PerformedProcedureStepStartTime": "153145.194000",
        "PhotometricInterpretation": "MONOCHROME2",
        "PixelBandwidth": 2290.0,
        "PixelRepresentation": 0,
        "PixelSpacing": [
          2.0,
          2.0
        ],
        "ProtocolName": "func_task-figures9",
        "RepetitionTime": 1490.0,
        "Rows": 832,
        "SAR": 0.0288942219056,
        "SamplesPerPixel": 1,
        "ScanOptions": "FS",
        "ScanningSequence": "EP",
        "SequenceName": "epfid2d1_104",
        "SequenceVariant": [
          "SK",
          "SS"
        ],
        "SeriesDescription": "func_task-figures9",
        "SeriesNumber": 9,
        "SeriesTime": "153604.623000",
        "SliceLocation": -44.417221603733,
        "SliceThickness": 2.0,
        "SmallestImagePixelValue": 0,
        "SoftwareVersions": "syngo MR E11",
        "SpacingBetweenSlices": 2.0000000155017,
        "SpecificCharacterSet": "ISO_IR 100",
        "StudyID": "1",
        "StudyTime": "153145.148000",
        "TransmitCoilName": "Body",
        "VariableFlipAngleFlag": "N",
        "WindowCenterWidthExplanation": "Algo1",
        "dBdt": 0.0
      },
      "slices": {}
    },
    "modality": "bold",
    "run_id": 2,
    "session_id": "008",
    "subject_id": "06",
    "task_id": "figures09",
    "time": {
      "samples": {
        "AcquisitionNumber": [
          1,
          2,
          3,
          4,
          5,
          6,
          7,
          8,
          9,
          10,
          11,
          12,
          13,
          14,
          15,
          16,
          17,
          18,
          19,
          20,
          21,
          22,
          23,
          24,
          25,
          26,
          27,
          28,
          29,
          30,
          31,
          32,
          33,
          34,
          35,
          36,
          37,
          38,
          39,
          40,
          41,
          42,
          43,
          44,
          45,
          46,
          47,
          48,
          49,
          50,
          51,
          52,
          53,
          54,
          55,
          56,
          57,
          58,
          59,
          60,
          61,
          62,
          63,
          64,
          65,
          66,
          67,
          68,
          69,
          70,
          71,
          72,
          73,
          74,
          75,
          76,
          77,
          78,
          79,
          80,
          81,
          82,
          83,
          84,
          85,
          86,
          87,
          88,
          89,
          90,
          91,
          92,
          93,
          94,
          95,
          96,
          97,
          98,
          99,
          100,
          101,
          102,
          103,
          104,
          105,
          106,
          107,
          108,
          109,
          110,
          111,
          112,
          113,
          114,
          115,
          116,
          117,
          118,
          119,
          120,
          121,
          122,
          123,
          124,
          125,
          126,
          127,
          128,
          129,
          130,
          131,
          132,
          133,
          134,
          135,
          136,
          137,
          138,
          139,
          140,
          141,
          142,
          143,
          144,
          145,
          146,
          147,
          148,
          149,
          150,
          151,
          152,
          153,
          154,
          155,
          156,
          157,
          158,
          159,
          160,
          161,
          162,
          163,
          164,
          165,
          166,
          167,
          168,
          169,
          170,
          171,
          172,
          173,
          174,
          175,
          176,
          177,
          178,
          179,
          180,
          181,
          182,
          183,
          184,
          185,
          186,
          187,
          188,
          189,
          190,
          191,
          192,
          193,
          194,
          195,
          196,
          197,
          198,
          199,
          200,
          201,
          202,
          203,
          204,
          205,
          206,
          207,
          208,
          209,
          210,
          211,
          212,
          213,
          214,
          215,
          216,
          217,
          218,
          219,
          220,
          221,
          222,
          223,
          224,
          225,
          226,
          227,
          228,
          229,
          230,
          231,
          232,
          233,
          234,
          235,
          236,
          237,
          238,
          239,
          240,
          241,
          242,
          243,
          244,
          245,
          246,
          247,
          248,
          249,
          250,
          251,
          252,
          253,
          254,
          255,
          256,
          257,
          258,
          259,
          260,
          261,
          262,
          263,
          264,
          265,
          266,
          267,
          268,
          269,
          270,
          271,
          272,
          273,
          274,
          275,
          276,
          277,
          278,
          279,
          280,
          281,
          282,
          283,
          284,
          285,
          286,
          287,
          288,
          289,
          290,
          291,
          292,
          293,
          294,
          295,
          296,
          297,
          298,
          299,
          300,
          301,
          302,
          303,
          304,
          305,
          306,
          307,
          308,
          309,
          310,
          311,
          312,
          313,
          314,
          315,
          316,
          317,
          318,
          319,
          320,
          321,
          322,
          323,
          324,
          325,
          326,
          327,
          328,
          329,
          330,
          331,
          332,
          333,
          334,
          335,
          336,
          337,
          338,
          339,
          340,
          341,
          342,
          343,
          344,
          345,
          346,
          347,
          348,
          349,
          350,
          351,
          352,
          353,
          354,
          355,
          356,
          357,
          358,
          359,
          360,
          361,
          362,
          363,
          364,
          365,
          366,
          367,
          368,
          369,
          370,
          371,
          372,
          373,
          374,
          375,
          376,
          377,
          378,
          379,
          380,
          381,
          382,
          383,
          384,
          385,
          386,
          387,
          388,
          389,
          390,
          391,
          392,
          393,
          394,
          395,
          396,
          397,
          398,
          399,
          400,
          401,
          402,
          403,
          404,
          405,
          406,
          407,
          408,
          409,
          410
        ],
        "AcquisitionTime": [
          "153506.837500",
          "153508.327500",
          "153509.817500",
          "153511.307500",
          "153512.797500",
          "153514.287500",
          "153515.777500",
          "153517.267500",
          "153518.757500",
          "153520.247500",
          "153521.737500",
          "153523.227500",
          "153524.717500",
          "153526.207500",
          "153527.697500",
          "153529.187500",
          "153530.677500",
          "153532.167500",
          "153533.657500",
          "153535.147500",
          "153536.637500",
          "153538.127500",
          "153539.617500",
          "153541.107500",
          "153542.597500",
          "153544.087500",
          "153545.577500",
          "153547.067500",
          "153548.557500",
          "153550.047500",
          "153551.537500",
          "153553.027500",
          "153554.517500",
          "153556.007500",
          "153557.497500",
          "153558.987500",
          "153600.477500",
          "153601.967500",
          "153603.457500",
          "153604.947500",
          "153606.437500",
          "153607.927500",
          "153609.417500",
          "153610.907500",
          "153612.397500",
          "153613.887500",
          "153615.377500",
          "153616.867500",
          "153618.357500",
          "153619.847500",
          "153621.337500",
          "153622.827500",
          "153624.317500",
          "153625.807500",
          "153627.297500",
          "153628.787500",
          "153630.277500",
          "153631.767500",
          "153633.257500",
          "153634.747500",
          "153636.237500",
          "153637.727500",
          "153639.217500",
          "153640.707500",
          "153642.197500",
          "153643.687500",
          "153645.177500",
          "153646.667500",
          "153648.157500",
          "153649.647500",
          "153651.137500",
          "153652.627500",
          "153654.117500",
          "153655.607500",
          "153657.097500",
          "153658.587500",
          "153700.077500",
          "153701.567500",
          "153703.057500",
          "153704.547500",
          "153706.037500",
          "153707.527500",
          "153709.017500",
          "153710.507500",
          "153711.997500",
          "153713.487500",
          "153714.977500",
          "153716.467500",
          "153717.957500",
          "153719.447500",
          "153720.937500",
          "153722.427500",
          "153723.917500",
          "153725.407500",
          "153726.897500",
          "153728.387500",
          "153729.877500",
          "153731.367500",
          "153732.857500",
          "153734.347500",
          "153735.837500",
          "153737.327500",
          "153738.817500",
          "153740.307500",
          "153741.797500",
          "153743.287500",
          "153744.777500",
          "153746.267500",
          "153747.757500",
          "153749.247500",
          "153750.737500",
          "153752.227500",
          "153753.717500",
          "153755.207500",
          "153756.697500",
          "153758.187500",
          "153759.677500",
          "153801.167500",
          "153802.657500",
          "153804.147500",
          "153805.637500",
          "153807.127500",
          "153808.617500",
          "153810.107500",
          "153811.597500",
          "153813.087500",
          "153814.577500",
          "153816.067500",
          "153817.557500",
          "153819.047500",
          "153820.537500",
          "153822.027500",
          "153823.517500",
          "153825.007500",
          "153826.497500",
          "153827.987500",
          "153829.477500",
          "153830.967500",
          "153832.457500",
          "153833.947500",
          "153835.437500",
          "153836.927500",
          "153838.417500",
          "153839.907500",
          "153841.397500",
          "153842.887500",
          "153844.377500",
          "153845.867500",
          "153847.357500",
          "153848.847500",
          "153850.337500",
          "153851.827500",
          "153853.317500",
          "153854.807500",
          "153856.297500",
          "153857.787500",
          "153859.277500",
          "153900.767500",
          "153902.257500",
          "153903.747500",
          "153905.237500",
          "153906.727500",
          "153908.217500",
          "153909.707500",
          "153911.197500",
          "153912.687500",
          "153914.177500",
          "153915.667500",
          "153917.157500",
          "153918.647500",
          "153920.137500",
          "153921.627500",
          "153923.117500",
          "153924.607500",
          "153926.097500",
          "153927.587500",
          "153929.077500",
          "153930.567500",
          "153932.057500",
          "153933.547500",
          "153935.037500",
          "153936.527500",
          "153938.017500",
          "153939.507500",
          "153940.997500",
          "153942.487500",
          "153943.977500",
          "153945.467500",
          "153946.957500",
          "153948.447500",
          "153949.937500",
          "153951.427500",
          "153952.917500",
          "153954.407500",
          "153955.897500",
          "153957.387500",
          "153958.877500",
          "154000.367500",
          "154001.857500",
          "154003.347500",
          "154004.837500",
          "154006.327500",
          "154007.817500",
          "154009.307500",
          "154010.797500",
          "154012.287500",
          "154013.777500",
          "154015.267500",
          "154016.757500",
          "154018.247500",
          "154019.737500",
          "154021.227500",
          "154022.717500",
          "154024.207500",
          "154025.697500",
          "154027.187500",
          "154028.677500",
          "154030.167500",
          "154031.657500",
          "154033.147500",
          "154034.637500",
          "154036.127500",
          "154037.617500",
          "154039.107500",
          "154040.597500",
          "154042.087500",
          "154043.577500",
          "154045.067500",
          "154046.557500",
          "154048.047500",
          "154049.537500",
          "154051.027500",
          "154052.517500",
          "154054.007500",
          "154055.497500",
          "154056.987500",
          "154058.477500",
          "154059.967500",
          "154101.457500",
          "154102.947500",
          "154104.437500",
          "154105.927500",
          "154107.417500",
          "154108.907500",
          "154110.397500",
          "154111.887500",
          "154113.377500",
          "154114.867500",
          "154116.357500",
          "154117.847500",
          "154119.337500",
          "154120.827500",
          "154122.317500",
          "154123.807500",
          "154125.297500",
          "154126.787500",
          "154128.277500",
          "154129.767500",
          "154131.257500",
          "154132.747500",
          "154134.237500",
          "154135.727500",
          "154137.217500",
          "154138.707500",
          "154140.197500",
          "154141.687500",
          "154143.177500",
          "154144.667500",
          "154146.157500",
          "154147.647500",
          "154149.137500",
          "154150.627500",
          "154152.117500",
          "154153.607500",
          "154155.097500",
          "154156.587500",
          "154158.077500",
          "154159.567500",
          "154201.057500",
          "154202.547500",
          "154204.037500",
          "154205.527500",
          "154207.017500",
          "154208.507500",
          "154209.997500",
          "154211.487500",
          "154212.977500",
          "154214.467500",
          "154215.957500",
          "154217.447500",
          "154218.937500",
          "154220.427500",
          "154221.917500",
          "154223.407500",
          "154224.897500",
          "154226.387500",
          "154227.877500",
          "154229.367500",
          "154230.857500",
          "154232.347500",
          "154233.837500",
          "154235.327500",
          "154236.817500",
          "154238.307500",
          "154239.797500",
          "154241.287500",
          "154242.777500",
          "154244.267500",
          "154245.757500",
          "154247.247500",
          "154248.737500",
          "154250.227500",
          "154251.717500",
          "154253.207500",
          "154254.697500",
          "154256.187500",
          "154257.677500",
          "154259.167500",
          "154300.657500",
          "154302.147500",
          "154303.637500",
          "154305.127500",
          "154306.617500",
          "154308.107500",
          "154309.597500",
          "154311.087500",
          "154312.577500",
          "154314.067500",
          "154315.557500",
          "154317.047500",
          "154318.537500",
          "154320.027500",
          "154321.517500",
          "154323.007500",
          "154324.497500",
          "154325.987500",
          "154327.477500",
          "154328.967500",
          "154330.457500",
          "154331.947500",
          "154333.437500",
          "154334.927500",
          "154336.417500",
          "154337.907500",
          "154339.397500",
          "154340.887500",
          "154342.377500",
          "154343.867500",
          "154345.357500",
          "154346.847500",
          "154348.337500",
          "154349.827500",
          "154351.317500",
          "154352.807500",
          "154354.297500",
          "154355.787500",
          "154357.277500",
          "154358.767500",
          "154400.257500",
          "154401.747500",
          "154403.237500",
          "154404.727500",
          "154406.217500",
          "154407.707500",
          "154409.197500",
          "154410.687500",
          "154412.177500",
          "154413.667500",
          "154415.157500",
          "154416.647500",
          "154418.137500",
          "154419.627500",
          "154421.117500",
          "154422.607500",
          "154424.097500",
          "154425.587500",
          "154427.077500",
          "154428.567500",
          "154430.057500",
          "154431.547500",
          "154433.037500",
          "154434.527500",
          "154436.017500",
          "154437.507500",
          "154438.997500",
          "154440.487500",
          "154441.977500",
          "154443.467500",
          "154444.957500",
          "154446.447500",
          "154447.937500",
          "154449.427500",
          "154450.917500",
          "154452.407500",
          "154453.897500",
          "154455.387500",
          "154456.877500",
          "154458.367500",
          "154459.857500",
          "154501.347500",
          "154502.837500",
          "154504.327500",
          "154505.817500",
          "154507.307500",
          "154508.797500",
          "154510.287500",
          "154511.777500",
          "154513.267500",
          "154514.757500",
          "154516.247500"
        ],
        "ContentTime": [
          "153604.626000",
          "153604.629000",
          "153604.633000",
          "153644.580000",
          "153644.583000",
          "153644.586000",
          "153644.589000",
          "153644.592000",
          "153644.595000",
          "153644.597000",
          "153644.600000",
          "153644.603000",
          "153644.606000",
          "153644.609000",
          "153644.612000",
          "153644.615000",
          "153644.618000",
          "153644.624000",
          "153644.627000",
          "153644.630000",
          "153644.633000",
          "153644.636000",
          "153644.639000",
          "153644.642000",
          "153644.645000",
          "153644.648000",
          "153644.651000",
          "153644.654000",
          "153644.656000",
          "153644.659000",
          "153644.662000",
          "153644.665000",
          "153644.668000",
          "153644.671000",
          "153644.674000",
          "153644.677000",
          "153644.686000",
          "153644.689000",
          "153644.692000",
          "153644.695000",
          "153644.698000",
          "153644.700000",
          "153704.579000",
          "153704.582000",
          "153704.585000",
          "153704.588000",
          "153704.591000",
          "153704.594000",
          "153704.597000",
          "153704.599000",
          "153704.602000",
          "153704.605000",
          "153704.608000",
          "153704.611000",
          "153704.614000",
          "153704.617000",
          "153704.620000",
          "153704.622000",
          "153704.625000",
          "153704.628000",
          "153704.631000",
          "153704.634000",
          "153724.579000",
          "153724.582000",
          "153724.585000",
          "153724.588000",
          "153724.591000",
          "153724.594000",
          "153724.597000",
          "153724.600000",
          "153724.602000",
          "153724.605000",
          "153724.608000",
          "153724.611000",
          "153724.614000",
          "153724.617000",
          "153724.620000",
          "153724.623000",
          "153724.626000",
          "153724.629000",
          "153724.632000",
          "153724.635000",
          "153744.579000",
          "153744.582000",
          "153744.589000",
          "153744.592000",
          "153744.595000",
          "153744.598000",
          "153744.600000",
          "153744.603000",
          "153744.606000",
          "153744.609000",
          "153744.612000",
          "153744.615000",
          "153744.618000",
          "153744.621000",
          "153744.624000",
          "153744.626000",
          "153744.629000",
          "153744.632000",
          "153744.635000",
          "153744.638000",
          "153824.580000",
          "153824.583000",
          "153824.586000",
          "153824.589000",
          "153824.592000",
          "153824.595000",
          "153824.598000",
          "153824.601000",
          "153824.604000",
          "153824.607000",
          "153824.609000",
          "153824.612000",
          "153824.615000",
          "153824.618000",
          "153824.621000",
          "153824.624000",
          "153824.627000",
          "153824.630000",
          "153824.633000",
          "153824.636000",
          "153824.638000",
          "153824.641000",
          "153824.644000",
          "153824.647000",
          "153824.650000",
          "153824.653000",
          "153824.656000",
          "153824.659000",
          "153824.662000",
          "153824.665000",
          "153904.580000",
          "153904.583000",
          "153904.586000",
          "153904.589000",
          "153904.592000",
          "153904.595000",
          "153904.598000",
          "153904.601000",
          "153904.604000",
          "153904.607000",
          "153904.610000",
          "153904.612000",
          "153904.615000",
          "153904.618000",
          "153904.621000",
          "153904.624000",
          "153904.633000",
          "153904.636000",
          "153904.639000",
          "153904.642000",
          "153904.645000",
          "153904.648000",
          "153904.651000",
          "153904.653000",
          "153904.656000",
          "153904.659000",
          "153904.662000",
          "153944.579000",
          "153944.582000",
          "153944.585000",
          "153944.588000",
          "153944.591000",
          "153944.594000",
          "153944.597000",
          "153944.599000",
          "153944.603000",
          "153944.605000",
          "153944.608000",
          "153944.611000",
          "153944.614000",
          "153944.617000",
          "153944.620000",
          "153944.623000",
          "153944.626000",
          "153944.629000",
          "153944.632000",
          "153944.635000",
          "153944.638000",
          "153944.641000",
          "153944.644000",
          "153944.660000",
          "153944.663000",
          "153944.666000",
          "153944.669000",
          "154024.580000",
          "154024.583000",
          "154024.586000",
          "154024.589000",
          "154024.597000",
          "154024.600000",
          "154024.603000",
          "154024.606000",
          "154024.609000",
          "154024.612000",
          "154024.615000",
          "154024.618000",
          "154024.621000",
          "154024.624000",
          "154024.626000",
          "154024.638000",
          "154024.640000",
          "154024.643000",
          "154024.646000",
          "154024.649000",
          "154024.652000",
          "154024.655000",
          "154024.658000",
          "154024.661000",
          "154024.664000",
          "154024.667000",
          "154024.670000",
          "154104.580000",
          "154104.583000",
          "154104.586000",
          "154104.590000",
