{
  "aor": 0.00024467821782178217,
  "aqi": 0.005944240198019802,
  "bids_meta": {
    "AcquisitionMatrixPE": 104,
    "AcquisitionNumber": 1,
    "AcquisitionTime": "13:47:39.055000",
    "BandwidthPerPixelPhaseEncode": 17.17,
    "BaseResolution": 104,
    "BodyPartExamined": "BRAIN",
    "CogAtlasID": "trm_4c898da401420",
    "ConsistencyInfo": "N4_VE11C_LATEST_20160120",
    "ConversionSoftware": "dcm2niix",
    "ConversionSoftwareVersion": "v1.0.20171215 (OpenJPEG build) GCC7.3.0",
    "DerivedVendorReportedEchoSpacing": 0.000560011,
    "DeviceSerialNumber": "167006",
    "DwellTime": 2.1e-06,
    "EchoTime": 0.037,
    "EchoTrainLength": 104,
    "EffectiveEchoSpacing": 0.000560011,
    "FlipAngle": 52,
    "ImageComments": "Unaliased_MB4_PE3_LB",
    "ImageOrientationPatientDICOM": [
      0.999886,
      0.00140057,
      -0.0150377,
      -0.00802778,
      0.892669,
      -0.450641
    ],
    "ImageType": [
      "ORIGINAL",
      "PRIMARY",
      "M",
      "MB",
      "ND",
      "MOSAIC"
    ],
    "InPlanePhaseEncodingDirectionDICOM": "COL",
    "InstitutionAddress": "Chemin_Queen-Mary_4565_Montreal_District_CA_H3W_1W5",
    "InstitutionName": "IUGM",
    "InstitutionalDepartmentName": "Department",
    "MRAcquisitionType": "2D",
    "MagneticFieldStrength": 3,
    "Manufacturer": "Siemens",
    "ManufacturersModelName": "Prisma_fit",
    "Modality": "MR",
    "MultibandAccelerationFactor": 4,
    "PartialFourier": 1,
    "PatientPosition": "HFS",
    "PercentPhaseFOV": 100,
    "PhaseEncodingDirection": "j-",
    "PhaseEncodingSteps": 104,
    "PhaseResolution": 1,
    "PixelBandwidth": 2290,
    "ProcedureStepDescription": "video5_generic",
    "ProtocolName": "func_task-wolf15",
    "PulseSequenceDetails": "%CustomerSeq%_cmrr_mbep2d_bold",
    "ReceiveCoilActiveElements": "HC1-7;NC1,2",
    "ReceiveCoilName": "HeadNeck_64",
    "ReconMatrixPE": 104,
    "RepetitionTime": 1.49,
    "SAR": 0.0365428,
    "ScanOptions": "FS",
    "ScanningSequence": "EP",
    "SequenceName": "epfid2d1_104",
    "SequenceVariant": "SK_SS",
    "SeriesDescription": "func_task-wolf15",
    "SeriesNumber": 13,
    "ShimSetting": [
      622,
      -7200,
      -8881,
      386,
      -10,
      -197,
      10,
      -21
    ],
    "SliceThickness": 2,
    "SliceTiming": [
      0,
      0.785,
      0.0975,
      0.8825,
      0.195,
      0.98,
      0.295,
      1.0775,
      0.3925,
      1.175,
      0.49,
      1.275,
      0.5875,
      1.3725,
      0.685,
      0,
      0.785,
      0.0975,
      0.8825,
      0.195,
      0.98,
      0.295,
      1.0775,
      0.3925,
      1.175,
      0.49,
      1.275,
      0.5875,
      1.3725,
      0.685,
      0,
      0.785,
      0.0975,
      0.8825,
      0.195,
      0.98,
      0.295,
      1.0775,
      0.3925,
      1.175,
      0.49,
      1.275,
      0.5875,
      1.3725,
      0.685,
      0,
      0.785,
      0.0975,
      0.8825,
      0.195,
      0.98,
      0.295,
      1.0775,
      0.3925,
      1.175,
      0.49,
      1.275,
      0.5875,
      1.3725,
      0.685
    ],
    "SoftwareVersions": "syngo_MR_E11",
    "SpacingBetweenSlices": 2,
    "StationName": "MRC35049",
    "TaskName": "wolf15",
    "TotalReadoutTime": 0.0576811,
    "TxRefAmp": 247.769,
    "dataset": "<unset>",
    "dcmmeta_affine": [
      [
        -1.9997718334197998,
        -0.016055554151535034,
        -0.02558511309325695,
        106.67654418945312
      ],
      [
        -0.0028011412359774113,
        1.785338282585144,
        -0.9014207124710083,
        -53.8445930480957
      ],
      [
        -0.030075445771217346,
        0.9012820720672607,
        1.7851570844650269,
        -94.03512573242188
      ],
      [
        0.0,
        0.0,
        0.0,
        1.0
      ]
    ],
    "dcmmeta_reorient_transform": [
      [
        0.0,
        -1.0,
        0.0,
        103.0
      ],
      [
        1.0,
        0.0,
        0.0,
        0.0
      ],
      [
        0.0,
        0.0,
        1.0,
        0.0
      ],
      [
        0.0,
        0.0,
        0.0,
        1.0
      ]
    ],
    "dcmmeta_shape": [
      104,
      104,
      60,
      406
    ],
    "dcmmeta_slice_dim": 2,
    "dcmmeta_version": 0.6,
    "global": {
      "const": {
        "AcquisitionMatrix": [
          104,
          0,
          0,
          104
        ],
        "AngioFlag": "N",
        "BitsAllocated": 16,
        "BitsStored": 16,
        "BodyPartExamined": "BRAIN",
        "Columns": 832,
        "EchoNumbers": 1,
        "EchoTime": 37.0,
        "EchoTrainLength": 104,
        "FlipAngle": 52.0,
        "HighBit": 15,
        "ImageOrientationPatient": [
          0.99988594614189,
          0.00140057066923,
          -0.0150377228906,
          -0.0080277769939,
          0.89266914500337,
          -0.4506410460172
        ],
        "ImagePositionPatient": [
          -827.0955669864,
          -780.92800371426,
          337.81107636853
        ],
        "ImageType": [
          "ORIGINAL",
          "PRIMARY",
          "M",
          "MB",
          "ND",
          "MOSAIC"
        ],
        "ImagedNucleus": "1H",
        "ImagingFrequency": 123.259277,
        "InPlanePhaseEncodingDirection": "COL",
        "MRAcquisitionType": "2D",
        "MagneticFieldStrength": 3.0,
        "Manufacturer": "SIEMENS",
        "ManufacturerModelName": "Prisma_fit",
        "Modality": "MR",
        "NumberOfAverages": 1.0,
        "NumberOfPhaseEncodingSteps": 104,
        "PercentPhaseFieldOfView": 100.0,
        "PercentSampling": 100.0,
        "PerformedProcedureStepStartTime": "130146.061000",
        "PhotometricInterpretation": "MONOCHROME2",
        "PixelBandwidth": 2290.0,
        "PixelRepresentation": 0,
        "PixelSpacing": [
          2.0,
          2.0
        ],
        "ProtocolName": "func_task-wolf15",
        "RepetitionTime": 1490.0,
        "Rows": 832,
        "SAR": 0.03654278959086,
        "SamplesPerPixel": 1,
        "ScanOptions": "FS",
        "ScanningSequence": "EP",
        "SequenceName": "epfid2d1_104",
        "SequenceVariant": [
          "SK",
          "SS"
        ],
        "SeriesDescription": "func_task-wolf15",
        "SeriesNumber": 13,
        "SeriesTime": "134908.657000",
        "SliceLocation": -61.030085372888,
        "SliceThickness": 2.0,
        "SmallestImagePixelValue": 0,
        "SoftwareVersions": "syngo MR E11",
        "SpacingBetweenSlices": 1.9999999820896,
        "SpecificCharacterSet": "ISO_IR 100",
        "StudyID": "1",
        "StudyTime": "130145.978000",
        "TransmitCoilName": "Body",
        "VariableFlipAngleFlag": "N",
        "WindowCenterWidthExplanation": "Algo1",
        "dBdt": 0.0
      },
      "slices": {}
    },
    "modality": "bold",
    "session_id": "008",
    "subject_id": "02",
    "task_id": "wolf15",
    "time": {
      "samples": {
        "AcquisitionNumber": [
          1,
          2,
          3,
          4,
          5,
          6,
          7,
          8,
          9,
          10,
          11,
          12,
          13,
          14,
          15,
          16,
          17,
          18,
          19,
          20,
          21,
          22,
          23,
          24,
          25,
          26,
          27,
          28,
          29,
          30,
          31,
          32,
          33,
          34,
          35,
          36,
          37,
          38,
          39,
          40,
          41,
          42,
          43,
          44,
          45,
          46,
          47,
          48,
          49,
          50,
          51,
          52,
          53,
          54,
          55,
          56,
          57,
          58,
          59,
          60,
          61,
          62,
          63,
          64,
          65,
          66,
          67,
          68,
          69,
          70,
          71,
          72,
          73,
          74,
          75,
          76,
          77,
          78,
          79,
          80,
          81,
          82,
          83,
          84,
          85,
          86,
          87,
          88,
          89,
          90,
          91,
          92,
          93,
          94,
          95,
          96,
          97,
          98,
          99,
          100,
          101,
          102,
          103,
          104,
          105,
          106,
          107,
          108,
          109,
          110,
          111,
          112,
          113,
          114,
          115,
          116,
          117,
          118,
          119,
          120,
          121,
          122,
          123,
          124,
          125,
          126,
          127,
          128,
          129,
          130,
          131,
          132,
          133,
          134,
          135,
          136,
          137,
          138,
          139,
          140,
          141,
          142,
          143,
          144,
          145,
          146,
          147,
          148,
          149,
          150,
          151,
          152,
          153,
          154,
          155,
          156,
          157,
          158,
          159,
          160,
          161,
          162,
          163,
          164,
          165,
          166,
          167,
          168,
          169,
          170,
          171,
          172,
          173,
          174,
          175,
          176,
          177,
          178,
          179,
          180,
          181,
          182,
          183,
          184,
          185,
          186,
          187,
          188,
          189,
          190,
          191,
          192,
          193,
          194,
          195,
          196,
          197,
          198,
          199,
          200,
          201,
          202,
          203,
          204,
          205,
          206,
          207,
          208,
          209,
          210,
          211,
          212,
          213,
          214,
          215,
          216,
          217,
          218,
          219,
          220,
          221,
          222,
          223,
          224,
          225,
          226,
          227,
          228,
          229,
          230,
          231,
          232,
          233,
          234,
          235,
          236,
          237,
          238,
          239,
          240,
          241,
          242,
          243,
          244,
          245,
          246,
          247,
          248,
          249,
          250,
          251,
          252,
          253,
          254,
          255,
          256,
          257,
          258,
          259,
          260,
          261,
          262,
          263,
          264,
          265,
          266,
          267,
          268,
          269,
          270,
          271,
          272,
          273,
          274,
          275,
          276,
          277,
          278,
          279,
          280,
          281,
          282,
          283,
          284,
          285,
          286,
          287,
          288,
          289,
          290,
          291,
          292,
          293,
          294,
          295,
          296,
          297,
          298,
          299,
          300,
          301,
          302,
          303,
          304,
          305,
          306,
          307,
          308,
          309,
          310,
          311,
          312,
          313,
          314,
          315,
          316,
          317,
          318,
          319,
          320,
          321,
          322,
          323,
          324,
          325,
          326,
          327,
          328,
          329,
          330,
          331,
          332,
          333,
          334,
          335,
          336,
          337,
          338,
          339,
          340,
          341,
          342,
          343,
          344,
          345,
          346,
          347,
          348,
          349,
          350,
          351,
          352,
          353,
          354,
          355,
          356,
          357,
          358,
          359,
          360,
          361,
          362,
          363,
          364,
          365,
          366,
          367,
          368,
          369,
          370,
          371,
          372,
          373,
          374,
          375,
          376,
          377,
          378,
          379,
          380,
          381,
          382,
          383,
          384,
          385,
          386,
          387,
          388,
          389,
          390,
          391,
          392,
          393,
          394,
          395,
          396,
          397,
          398,
          399,
          400,
          401,
          402,
          403,
          404,
          405,
          406
        ],
        "AcquisitionTime": [
          "134739.055000",
          "134740.545000",
          "134742.035000",
          "134743.525000",
          "134745.015000",
          "134746.505000",
          "134747.995000",
          "134749.485000",
          "134750.975000",
          "134752.465000",
          "134753.955000",
          "134755.445000",
          "134756.935000",
          "134758.425000",
          "134759.915000",
          "134801.405000",
          "134802.895000",
          "134804.385000",
          "134805.875000",
          "134807.365000",
          "134808.855000",
          "134810.345000",
          "134811.835000",
          "134813.325000",
          "134814.815000",
          "134816.305000",
          "134817.795000",
          "134819.285000",
          "134820.775000",
          "134822.265000",
          "134823.755000",
          "134825.245000",
          "134826.735000",
          "134828.225000",
          "134829.715000",
          "134831.205000",
          "134832.695000",
          "134834.185000",
          "134835.675000",
          "134837.165000",
          "134838.655000",
          "134840.145000",
          "134841.635000",
          "134843.125000",
          "134844.615000",
          "134846.105000",
          "134847.595000",
          "134849.085000",
          "134850.575000",
          "134852.065000",
          "134853.555000",
          "134855.045000",
          "134856.535000",
          "134858.025000",
          "134859.515000",
          "134901.005000",
          "134902.495000",
          "134903.985000",
          "134905.475000",
          "134906.965000",
          "134908.455000",
          "134909.945000",
          "134911.435000",
          "134912.925000",
          "134914.415000",
          "134915.905000",
          "134917.395000",
          "134918.885000",
          "134920.375000",
          "134921.865000",
          "134923.355000",
          "134924.845000",
          "134926.335000",
          "134927.825000",
          "134929.315000",
          "134930.805000",
          "134932.295000",
          "134933.785000",
          "134935.275000",
          "134936.765000",
          "134938.255000",
          "134939.745000",
          "134941.235000",
          "134942.725000",
          "134944.215000",
          "134945.705000",
          "134947.195000",
          "134948.685000",
          "134950.175000",
          "134951.665000",
          "134953.155000",
          "134954.645000",
          "134956.135000",
          "134957.625000",
          "134959.115000",
          "135000.605000",
          "135002.095000",
          "135003.585000",
          "135005.075000",
          "135006.565000",
          "135008.055000",
          "135009.545000",
          "135011.035000",
          "135012.525000",
          "135014.015000",
          "135015.505000",
          "135016.995000",
          "135018.485000",
          "135019.975000",
          "135021.465000",
          "135022.955000",
          "135024.445000",
          "135025.935000",
          "135027.425000",
          "135028.915000",
          "135030.405000",
          "135031.895000",
          "135033.385000",
          "135034.875000",
          "135036.365000",
          "135037.855000",
          "135039.345000",
          "135040.835000",
          "135042.325000",
          "135043.815000",
          "135045.305000",
          "135046.795000",
          "135048.285000",
          "135049.775000",
          "135051.265000",
          "135052.755000",
          "135054.245000",
          "135055.735000",
          "135057.225000",
          "135058.715000",
          "135100.205000",
          "135101.695000",
          "135103.185000",
          "135104.675000",
          "135106.165000",
          "135107.655000",
          "135109.145000",
          "135110.635000",
          "135112.125000",
          "135113.615000",
          "135115.105000",
          "135116.595000",
          "135118.085000",
          "135119.575000",
          "135121.065000",
          "135122.555000",
          "135124.045000",
          "135125.535000",
          "135127.025000",
          "135128.515000",
          "135130.005000",
          "135131.495000",
          "135132.985000",
          "135134.475000",
          "135135.965000",
          "135137.455000",
          "135138.945000",
          "135140.435000",
          "135141.925000",
          "135143.415000",
          "135144.905000",
          "135146.395000",
          "135147.885000",
          "135149.375000",
          "135150.865000",
          "135152.355000",
          "135153.845000",
          "135155.335000",
          "135156.825000",
          "135158.315000",
          "135159.805000",
          "135201.295000",
          "135202.785000",
          "135204.275000",
          "135205.765000",
          "135207.255000",
          "135208.745000",
          "135210.235000",
          "135211.725000",
          "135213.215000",
          "135214.705000",
          "135216.195000",
          "135217.685000",
          "135219.175000",
          "135220.665000",
          "135222.155000",
          "135223.645000",
          "135225.135000",
          "135226.625000",
          "135228.115000",
          "135229.605000",
          "135231.095000",
          "135232.585000",
          "135234.075000",
          "135235.565000",
          "135237.055000",
          "135238.545000",
          "135240.035000",
          "135241.525000",
          "135243.015000",
          "135244.505000",
          "135245.995000",
          "135247.485000",
          "135248.975000",
          "135250.465000",
          "135251.955000",
          "135253.445000",
          "135254.935000",
          "135256.425000",
          "135257.915000",
          "135259.405000",
          "135300.895000",
          "135302.385000",
          "135303.875000",
          "135305.365000",
          "135306.855000",
          "135308.345000",
          "135309.835000",
          "135311.325000",
          "135312.815000",
          "135314.305000",
          "135315.795000",
          "135317.285000",
          "135318.775000",
          "135320.265000",
          "135321.755000",
          "135323.245000",
          "135324.735000",
          "135326.225000",
          "135327.715000",
          "135329.205000",
          "135330.695000",
          "135332.185000",
          "135333.675000",
          "135335.165000",
          "135336.655000",
          "135338.145000",
          "135339.635000",
          "135341.125000",
          "135342.615000",
          "135344.105000",
          "135345.595000",
          "135347.085000",
          "135348.575000",
          "135350.065000",
          "135351.555000",
          "135353.045000",
          "135354.535000",
          "135356.025000",
          "135357.515000",
          "135359.005000",
          "135400.495000",
          "135401.985000",
          "135403.475000",
          "135404.965000",
          "135406.455000",
          "135407.945000",
          "135409.435000",
          "135410.925000",
          "135412.415000",
          "135413.905000",
          "135415.395000",
          "135416.885000",
          "135418.375000",
          "135419.865000",
          "135421.355000",
          "135422.845000",
          "135424.335000",
          "135425.825000",
          "135427.315000",
          "135428.805000",
          "135430.295000",
          "135431.785000",
          "135433.275000",
          "135434.765000",
          "135436.255000",
          "135437.745000",
          "135439.235000",
          "135440.725000",
          "135442.215000",
          "135443.705000",
          "135445.195000",
          "135446.685000",
          "135448.175000",
          "135449.665000",
          "135451.155000",
          "135452.645000",
          "135454.135000",
          "135455.625000",
          "135457.115000",
          "135458.605000",
          "135500.095000",
          "135501.585000",
          "135503.075000",
          "135504.565000",
          "135506.055000",
          "135507.545000",
          "135509.035000",
          "135510.525000",
          "135512.015000",
          "135513.505000",
          "135514.995000",
          "135516.485000",
          "135517.975000",
          "135519.465000",
          "135520.955000",
          "135522.445000",
          "135523.935000",
          "135525.425000",
          "135526.915000",
          "135528.405000",
          "135529.895000",
          "135531.385000",
          "135532.875000",
          "135534.365000",
          "135535.855000",
          "135537.345000",
          "135538.835000",
          "135540.325000",
          "135541.815000",
          "135543.305000",
          "135544.795000",
          "135546.285000",
          "135547.775000",
          "135549.265000",
          "135550.755000",
          "135552.245000",
          "135553.735000",
          "135555.225000",
          "135556.715000",
          "135558.205000",
          "135559.695000",
          "135601.185000",
          "135602.675000",
          "135604.165000",
          "135605.655000",
          "135607.145000",
          "135608.635000",
          "135610.125000",
          "135611.615000",
          "135613.105000",
          "135614.595000",
          "135616.085000",
          "135617.575000",
          "135619.065000",
          "135620.555000",
          "135622.045000",
          "135623.535000",
          "135625.025000",
          "135626.515000",
          "135628.005000",
          "135629.495000",
          "135630.985000",
          "135632.475000",
          "135633.965000",
          "135635.455000",
          "135636.945000",
          "135638.435000",
          "135639.925000",
          "135641.415000",
          "135642.905000",
          "135644.395000",
          "135645.885000",
          "135647.375000",
          "135648.865000",
          "135650.355000",
          "135651.845000",
          "135653.335000",
          "135654.825000",
          "135656.315000",
          "135657.805000",
          "135659.295000",
          "135700.785000",
          "135702.275000",
          "135703.765000",
          "135705.255000",
          "135706.745000",
          "135708.235000",
          "135709.725000",
          "135711.215000",
          "135712.705000",
          "135714.195000",
          "135715.685000",
          "135717.175000",
          "135718.665000",
          "135720.155000",
          "135721.645000",
          "135723.135000",
          "135724.625000",
          "135726.115000",
          "135727.605000",
          "135729.095000",
          "135730.585000",
          "135732.075000",
          "135733.565000",
          "135735.055000",
          "135736.545000",
          "135738.035000",
          "135739.525000",
          "135741.015000",
          "135742.505000"
        ],
        "ContentTime": [
          "134908.659000",
          "134908.662000",
          "134908.665000",
          "134908.668000",
          "134908.671000",
          "134908.674000",
          "134908.677000",
          "134908.679000",
          "134908.682000",
          "134908.685000",
          "134908.688000",
          "134908.691000",
          "134908.694000",
          "134908.697000",
          "134908.700000",
          "134908.703000",
          "134908.706000",
          "134908.709000",
          "134908.711000",
          "134908.714000",
          "134908.717000",
          "134908.720000",
          "134908.723000",
          "134908.726000",
          "134908.728000",
          "134908.731000",
          "134908.734000",
          "134908.737000",
          "134908.740000",
          "134908.743000",
          "134908.746000",
          "134908.748000",
          "134908.751000",
          "134908.754000",
          "134908.757000",
          "134928.628000",
          "134928.631000",
          "134928.634000",
          "134928.636000",
          "134928.639000",
          "134928.642000",
          "134928.645000",
          "134928.648000",
          "134928.650000",
          "134928.653000",
          "134928.656000",
          "134928.659000",
          "134928.662000",
          "134928.665000",
          "134928.667000",
          "134928.670000",
          "134928.673000",
          "134928.676000",
          "134928.679000",
          "134928.685000",
          "134948.628000",
          "134948.631000",
          "134948.634000",
          "134948.636000",
          "134948.639000",
          "134948.642000",
          "134948.645000",
          "134948.647000",
          "134948.650000",
          "134948.653000",
          "134948.656000",
          "134948.659000",
          "134948.662000",
          "134948.665000",
          "134948.667000",
          "134948.670000",
          "134948.673000",
          "134948.676000",
          "134948.679000",
          "134948.681000",
          "135008.628000",
          "135008.631000",
          "135008.633000",
          "135008.636000",
          "135008.639000",
          "135008.642000",
          "135008.645000",
          "135008.653000",
          "135008.656000",
          "135008.659000",
          "135008.661000",
          "135008.664000",
          "135008.667000",
          "135008.670000",
          "135008.673000",
          "135008.676000",
          "135008.679000",
          "135008.687000",
          "135008.690000",
          "135008.692000",
          "135048.628000",
          "135048.631000",
          "135048.634000",
          "135048.636000",
          "135048.639000",
          "135048.642000",
          "135048.645000",
          "135048.648000",
          "135048.651000",
          "135048.654000",
          "135048.656000",
          "135048.660000",
          "135048.663000",
          "135048.666000",
          "135048.669000",
          "135048.672000",
          "135048.675000",
          "135048.677000",
          "135048.680000",
          "135048.683000",
          "135048.686000",
          "135048.689000",
          "135048.692000",
          "135048.694000",
          "135048.697000",
          "135048.700000",
          "135048.703000",
          "135048.706000",
          "135048.708000",
          "135048.711000",
          "135048.714000",
          "135128.628000",
          "135128.631000",
          "135128.634000",
          "135128.636000",
          "135128.639000",
          "135128.642000",
          "135128.645000",
          "135128.648000",
          "135128.651000",
          "135128.654000",
          "135128.656000",
          "135128.659000",
          "135128.662000",
          "135128.665000",
          "135128.668000",
          "135128.671000",
          "135128.673000",
          "135128.676000",
          "135128.679000",
          "135128.682000",
          "135128.685000",
          "135128.688000",
          "135128.690000",
          "135128.693000",
          "135128.696000",
          "135128.699000",
          "135128.702000",
          "135208.628000",
          "135208.631000",
          "135208.634000",
          "135208.637000",
          "135208.639000",
          "135208.642000",
          "135208.645000",
          "135208.648000",
          "135208.651000",
          "135208.654000",
          "135208.656000",
          "135208.659000",
          "135208.662000",
          "135208.665000",
          "135208.668000",
          "135208.671000",
          "135208.673000",
          "135208.676000",
          "135208.679000",
          "135208.682000",
          "135208.685000",
          "135208.687000",
          "135208.690000",
          "135208.693000",
          "135208.696000",
          "135208.699000",
          "135208.702000",
          "135248.628000",
          "135248.631000",
          "135248.634000",
          "135248.637000",
          "135248.639000",
          "135248.642000",
          "135248.645000",
          "135248.648000",
          "135248.651000",
          "135248.654000",
          "135248.657000",
          "135248.659000",
          "135248.662000",
          "135248.665000",
          "135248.668000",
          "135248.671000",
          "135248.673000",
          "135248.676000",
          "135248.679000",
          "135248.682000",
          "135248.685000",
          "135248.688000",
          "135248.691000",
          "135248.694000",
          "135248.696000",
          "135248.699000",
          "135248.702000",
          "135328.628000",
          "135328.631000",
          "135328.634000",
          "135328.637000",
          "135328.640000",
          "135328.642000",
          "135328.645000",
          "135328.648000",
          "135328.651000",
          "135328.654000",
          "135328.657000",
          "135328.660000",
          "135328.662000",
          "135328.665000",
          "135328.668000",
          "135328.671000",
