{
  "aor": 0.0002742469135802469,
  "aqi": 0.006089039530864198,
  "bids_meta": {
    "AcquisitionMatrixPE": 104,
    "AcquisitionNumber": 1,
    "AcquisitionTime": "16:06:0.155000",
    "BandwidthPerPixelPhaseEncode": 17.17,
    "BaseResolution": 104,
    "BodyPartExamined": "BRAIN",
    "CogAtlasID": "trm_4c898da401420",
    "ConsistencyInfo": "N4_VE11C_LATEST_20160120",
    "ConversionSoftware": "dcm2niix",
    "ConversionSoftwareVersion": "v1.0.20171215 (OpenJPEG build) GCC7.3.0",
    "DerivedVendorReportedEchoSpacing": 0.000560011,
    "DeviceSerialNumber": "167006",
    "DwellTime": 2.1e-06,
    "EchoTime": 0.037,
    "EchoTrainLength": 104,
    "EffectiveEchoSpacing": 0.000560011,
    "FlipAngle": 52,
    "ImageComments": "Unaliased_MB4_PE3_LB",
    "ImageOrientationPatientDICOM": [
      0.99963,
      0.0266292,
      -0.00557591,
      -0.0270491,
      0.950716,
      -0.308881
    ],
    "ImageType": [
      "ORIGINAL",
      "PRIMARY",
      "M",
      "MB",
      "ND",
      "MOSAIC"
    ],
    "InPlanePhaseEncodingDirectionDICOM": "COL",
    "InstitutionAddress": "Chemin_Queen-Mary_4565_Montreal_District_CA_H3W_1W5",
    "InstitutionName": "IUGM",
    "InstitutionalDepartmentName": "Department",
    "MRAcquisitionType": "2D",
    "MagneticFieldStrength": 3,
    "Manufacturer": "Siemens",
    "ManufacturersModelName": "Prisma_fit",
    "Modality": "MR",
    "MultibandAccelerationFactor": 4,
    "PartialFourier": 1,
    "PatientPosition": "HFS",
    "PercentPhaseFOV": 100,
    "PhaseEncodingDirection": "j-",
    "PhaseEncodingSteps": 104,
    "PhaseResolution": 1,
    "PixelBandwidth": 2290,
    "ProcedureStepDescription": "video5_generic",
    "ProtocolName": "func_task-life1",
    "PulseSequenceDetails": "%CustomerSeq%_cmrr_mbep2d_bold",
    "ReceiveCoilActiveElements": "HC1-7;NC1,2",
    "ReceiveCoilName": "HeadNeck_64",
    "ReconMatrixPE": 104,
    "RepetitionTime": 1.49,
    "SAR": 0.032484,
    "ScanOptions": "FS",
    "ScanningSequence": "EP",
    "SequenceName": "epfid2d1_104",
    "SequenceVariant": "SK_SS",
    "SeriesDescription": "func_task-life1",
    "SeriesNumber": 7,
    "ShimSetting": [
      625,
      -7150,
      -8819,
      620,
      39,
      165,
      -33,
      -4
    ],
    "SliceThickness": 2,
    "SliceTiming": [
      0,
      0.785,
      0.0975,
      0.8825,
      0.1975,
      0.98,
      0.295,
      1.0775,
      0.3925,
      1.1775,
      0.49,
      1.275,
      0.5875,
      1.3725,
      0.6875,
      0,
      0.785,
      0.0975,
      0.8825,
      0.1975,
      0.98,
      0.295,
      1.0775,
      0.3925,
      1.1775,
      0.49,
      1.275,
      0.5875,
      1.3725,
      0.6875,
      0,
      0.785,
      0.0975,
      0.8825,
      0.1975,
      0.98,
      0.295,
      1.0775,
      0.3925,
      1.1775,
      0.49,
      1.275,
      0.5875,
      1.3725,
      0.6875,
      0,
      0.785,
      0.0975,
      0.8825,
      0.1975,
      0.98,
      0.295,
      1.0775,
      0.3925,
      1.1775,
      0.49,
      1.275,
      0.5875,
      1.3725,
      0.6875
    ],
    "SoftwareVersions": "syngo_MR_E11",
    "SpacingBetweenSlices": 2,
    "StationName": "MRC35049",
    "TaskName": "life01",
    "TotalReadoutTime": 0.0576811,
    "TxRefAmp": 213.205,
    "dataset": "<unset>",
    "dcmmeta_affine": [
      [
        -1.9992597103118896,
        -0.05409828573465347,
        0.0058483099564909935,
        110.57872772216797
      ],
      [
        -0.053258463740348816,
        1.901431918144226,
        -0.6178351640701294,
        -65.19776153564453
      ],
      [
        -0.011151829734444618,
        0.6177621483802795,
        1.9021687507629395,
        -66.57614135742188
      ],
      [
        0.0,
        0.0,
        0.0,
        1.0
      ]
    ],
    "dcmmeta_reorient_transform": [
      [
        0.0,
        -1.0,
        0.0,
        103.0
      ],
      [
        1.0,
        0.0,
        0.0,
        0.0
      ],
      [
        0.0,
        0.0,
        1.0,
        0.0
      ],
      [
        0.0,
        0.0,
        0.0,
        1.0
      ]
    ],
    "dcmmeta_shape": [
      104,
      104,
      60,
      406
    ],
    "dcmmeta_slice_dim": 2,
    "dcmmeta_version": 0.6,
    "global": {
      "const": {
        "AcquisitionMatrix": [
          104,
          0,
          0,
          104
        ],
        "AngioFlag": "N",
        "BitsAllocated": 16,
        "BitsStored": 16,
        "BodyPartExamined": "BRAIN",
        "Columns": 832,
        "EchoNumbers": 1,
        "EchoTime": 37.0,
        "EchoTrainLength": 104,
        "FlipAngle": 52.0,
        "HighBit": 15,
        "ImageOrientationPatient": [
          0.99962982807584,
          0.02662923199626,
          -0.0055759146654,
          -0.0270491430448,
          0.95071595318396,
          -0.3088810777986
        ],
        "ImagePositionPatient": [
          -813.04534146319,
          -842.15701720531,
          225.97805217222
        ],
        "ImageType": [
          "ORIGINAL",
          "PRIMARY",
          "M",
          "MB",
          "ND",
          "MOSAIC"
        ],
        "ImagedNucleus": "1H",
        "ImagingFrequency": 123.258291,
        "InPlanePhaseEncodingDirection": "COL",
        "MRAcquisitionType": "2D",
        "MagneticFieldStrength": 3.0,
        "Manufacturer": "SIEMENS",
        "ManufacturerModelName": "Prisma_fit",
        "Modality": "MR",
        "NumberOfAverages": 1.0,
        "NumberOfPhaseEncodingSteps": 104,
        "PercentPhaseFieldOfView": 100.0,
        "PercentSampling": 100.0,
        "PerformedProcedureStepStartTime": "155148.435000",
        "PhotometricInterpretation": "MONOCHROME2",
        "PixelBandwidth": 2290.0,
        "PixelRepresentation": 0,
        "PixelSpacing": [
          2.0,
          2.0
        ],
        "ProtocolName": "func_task-life1",
        "RepetitionTime": 1490.0,
        "Rows": 832,
        "SAR": 0.03248398295342,
        "SamplesPerPixel": 1,
        "ScanOptions": "FS",
        "ScanningSequence": "EP",
        "SequenceName": "epfid2d1_104",
        "SequenceVariant": [
          "SK",
          "SS"
        ],
        "SeriesDescription": "func_task-life1",
        "SeriesNumber": 7,
        "SeriesTime": "160712.584000",
        "SliceLocation": -42.855439735728,
        "SliceThickness": 2.0,
        "SmallestImagePixelValue": 0,
        "SoftwareVersions": "syngo MR E11",
        "SpacingBetweenSlices": 2.0000000773507,
        "SpecificCharacterSet": "ISO_IR 100",
        "StudyID": "1",
        "StudyTime": "155148.372000",
        "TransmitCoilName": "Body",
        "VariableFlipAngleFlag": "N",
        "WindowCenterWidthExplanation": "Algo1",
        "dBdt": 0.0
      },
      "slices": {}
    },
    "modality": "bold",
    "run_id": 1,
    "session_id": "006",
    "subject_id": "03",
    "task_id": "life01",
    "time": {
      "samples": {
        "AcquisitionNumber": [
          1,
          2,
          3,
          4,
          5,
          6,
          7,
          8,
          9,
          10,
          11,
          12,
          13,
          14,
          15,
          16,
          17,
          18,
          19,
          20,
          21,
          22,
          23,
          24,
          25,
          26,
          27,
          28,
          29,
          30,
          31,
          32,
          33,
          34,
          35,
          36,
          37,
          38,
          39,
          40,
          41,
          42,
          43,
          44,
          45,
          46,
          47,
          48,
          49,
          50,
          51,
          52,
          53,
          54,
          55,
          56,
          57,
          58,
          59,
          60,
          61,
          62,
          63,
          64,
          65,
          66,
          67,
          68,
          69,
          70,
          71,
          72,
          73,
          74,
          75,
          76,
          77,
          78,
          79,
          80,
          81,
          82,
          83,
          84,
          85,
          86,
          87,
          88,
          89,
          90,
          91,
          92,
          93,
          94,
          95,
          96,
          97,
          98,
          99,
          100,
          101,
          102,
          103,
          104,
          105,
          106,
          107,
          108,
          109,
          110,
          111,
          112,
          113,
          114,
          115,
          116,
          117,
          118,
          119,
          120,
          121,
          122,
          123,
          124,
          125,
          126,
          127,
          128,
          129,
          130,
          131,
          132,
          133,
          134,
          135,
          136,
          137,
          138,
          139,
          140,
          141,
          142,
          143,
          144,
          145,
          146,
          147,
          148,
          149,
          150,
          151,
          152,
          153,
          154,
          155,
          156,
          157,
          158,
          159,
          160,
          161,
          162,
          163,
          164,
          165,
          166,
          167,
          168,
          169,
          170,
          171,
          172,
          173,
          174,
          175,
          176,
          177,
          178,
          179,
          180,
          181,
          182,
          183,
          184,
          185,
          186,
          187,
          188,
          189,
          190,
          191,
          192,
          193,
          194,
          195,
          196,
          197,
          198,
          199,
          200,
          201,
          202,
          203,
          204,
          205,
          206,
          207,
          208,
          209,
          210,
          211,
          212,
          213,
          214,
          215,
          216,
          217,
          218,
          219,
          220,
          221,
          222,
          223,
          224,
          225,
          226,
          227,
          228,
          229,
          230,
          231,
          232,
          233,
          234,
          235,
          236,
          237,
          238,
          239,
          240,
          241,
          242,
          243,
          244,
          245,
          246,
          247,
          248,
          249,
          250,
          251,
          252,
          253,
          254,
          255,
          256,
          257,
          258,
          259,
          260,
          261,
          262,
          263,
          264,
          265,
          266,
          267,
          268,
          269,
          270,
          271,
          272,
          273,
          274,
          275,
          276,
          277,
          278,
          279,
          280,
          281,
          282,
          283,
          284,
          285,
          286,
          287,
          288,
          289,
          290,
          291,
          292,
          293,
          294,
          295,
          296,
          297,
          298,
          299,
          300,
          301,
          302,
          303,
          304,
          305,
          306,
          307,
          308,
          309,
          310,
          311,
          312,
          313,
          314,
          315,
          316,
          317,
          318,
          319,
          320,
          321,
          322,
          323,
          324,
          325,
          326,
          327,
          328,
          329,
          330,
          331,
          332,
          333,
          334,
          335,
          336,
          337,
          338,
          339,
          340,
          341,
          342,
          343,
          344,
          345,
          346,
          347,
          348,
          349,
          350,
          351,
          352,
          353,
          354,
          355,
          356,
          357,
          358,
          359,
          360,
          361,
          362,
          363,
          364,
          365,
          366,
          367,
          368,
          369,
          370,
          371,
          372,
          373,
          374,
          375,
          376,
          377,
          378,
          379,
          380,
          381,
          382,
          383,
          384,
          385,
          386,
          387,
          388,
          389,
          390,
          391,
          392,
          393,
          394,
          395,
          396,
          397,
          398,
          399,
          400,
          401,
          402,
          403,
          404,
          405,
          406
        ],
        "AcquisitionTime": [
          "160600.155000",
          "160601.645000",
          "160603.135000",
          "160604.625000",
          "160606.115000",
          "160607.605000",
          "160609.095000",
          "160610.585000",
          "160612.075000",
          "160613.565000",
          "160615.055000",
          "160616.545000",
          "160618.035000",
          "160619.525000",
          "160621.015000",
          "160622.505000",
          "160623.995000",
          "160625.485000",
          "160626.975000",
          "160628.465000",
          "160629.955000",
          "160631.445000",
          "160632.935000",
          "160634.425000",
          "160635.915000",
          "160637.405000",
          "160638.895000",
          "160640.385000",
          "160641.875000",
          "160643.365000",
          "160644.855000",
          "160646.345000",
          "160647.835000",
          "160649.325000",
          "160650.815000",
          "160652.305000",
          "160653.795000",
          "160655.285000",
          "160656.775000",
          "160658.265000",
          "160659.755000",
          "160701.245000",
          "160702.735000",
          "160704.225000",
          "160705.715000",
          "160707.205000",
          "160708.695000",
          "160710.185000",
          "160711.675000",
          "160713.165000",
          "160714.655000",
          "160716.145000",
          "160717.635000",
          "160719.125000",
          "160720.615000",
          "160722.105000",
          "160723.595000",
          "160725.085000",
          "160726.575000",
          "160728.065000",
          "160729.555000",
          "160731.045000",
          "160732.535000",
          "160734.025000",
          "160735.515000",
          "160737.005000",
          "160738.495000",
          "160739.985000",
          "160741.475000",
          "160742.965000",
          "160744.455000",
          "160745.945000",
          "160747.435000",
          "160748.925000",
          "160750.415000",
          "160751.905000",
          "160753.395000",
          "160754.885000",
          "160756.375000",
          "160757.865000",
          "160759.355000",
          "160800.845000",
          "160802.335000",
          "160803.825000",
          "160805.315000",
          "160806.805000",
          "160808.295000",
          "160809.785000",
          "160811.275000",
          "160812.765000",
          "160814.255000",
          "160815.745000",
          "160817.235000",
          "160818.725000",
          "160820.215000",
          "160821.705000",
          "160823.195000",
          "160824.685000",
          "160826.175000",
          "160827.665000",
          "160829.155000",
          "160830.645000",
          "160832.135000",
          "160833.625000",
          "160835.115000",
          "160836.605000",
          "160838.095000",
          "160839.585000",
          "160841.075000",
          "160842.565000",
          "160844.055000",
          "160845.545000",
          "160847.035000",
          "160848.525000",
          "160850.015000",
          "160851.505000",
          "160852.995000",
          "160854.485000",
          "160855.975000",
          "160857.465000",
          "160858.955000",
          "160900.445000",
          "160901.935000",
          "160903.425000",
          "160904.915000",
          "160906.405000",
          "160907.895000",
          "160909.385000",
          "160910.875000",
          "160912.365000",
          "160913.855000",
          "160915.345000",
          "160916.835000",
          "160918.325000",
          "160919.815000",
          "160921.305000",
          "160922.795000",
          "160924.285000",
          "160925.775000",
          "160927.265000",
          "160928.755000",
          "160930.245000",
          "160931.735000",
          "160933.225000",
          "160934.715000",
          "160936.205000",
          "160937.695000",
          "160939.185000",
          "160940.675000",
          "160942.165000",
          "160943.655000",
          "160945.145000",
          "160946.635000",
          "160948.125000",
          "160949.615000",
          "160951.105000",
          "160952.595000",
          "160954.085000",
          "160955.575000",
          "160957.065000",
          "160958.555000",
          "161000.045000",
          "161001.535000",
          "161003.025000",
          "161004.515000",
          "161006.005000",
          "161007.495000",
          "161008.985000",
          "161010.475000",
          "161011.965000",
          "161013.455000",
          "161014.945000",
          "161016.435000",
          "161017.925000",
          "161019.415000",
          "161020.905000",
          "161022.395000",
          "161023.885000",
          "161025.375000",
          "161026.865000",
          "161028.355000",
          "161029.845000",
          "161031.335000",
          "161032.825000",
          "161034.315000",
          "161035.805000",
          "161037.295000",
          "161038.785000",
          "161040.275000",
          "161041.765000",
          "161043.255000",
          "161044.745000",
          "161046.235000",
          "161047.725000",
          "161049.215000",
          "161050.705000",
          "161052.195000",
          "161053.685000",
          "161055.175000",
          "161056.665000",
          "161058.155000",
          "161059.645000",
          "161101.135000",
          "161102.625000",
          "161104.115000",
          "161105.605000",
          "161107.095000",
          "161108.585000",
          "161110.075000",
          "161111.565000",
          "161113.055000",
          "161114.545000",
          "161116.035000",
          "161117.525000",
          "161119.015000",
          "161120.505000",
          "161121.995000",
          "161123.485000",
          "161124.975000",
          "161126.465000",
          "161127.955000",
          "161129.445000",
          "161130.935000",
          "161132.425000",
          "161133.915000",
          "161135.405000",
          "161136.895000",
          "161138.385000",
          "161139.875000",
          "161141.365000",
          "161142.855000",
          "161144.345000",
          "161145.835000",
          "161147.325000",
          "161148.815000",
          "161150.305000",
          "161151.795000",
          "161153.285000",
          "161154.775000",
          "161156.265000",
          "161157.755000",
          "161159.245000",
          "161200.735000",
          "161202.225000",
          "161203.715000",
          "161205.205000",
          "161206.695000",
          "161208.185000",
          "161209.675000",
          "161211.165000",
          "161212.655000",
          "161214.145000",
          "161215.635000",
          "161217.125000",
          "161218.615000",
          "161220.105000",
          "161221.595000",
          "161223.085000",
          "161224.575000",
          "161226.065000",
          "161227.555000",
          "161229.045000",
          "161230.535000",
          "161232.025000",
          "161233.515000",
          "161235.005000",
          "161236.495000",
          "161237.985000",
          "161239.475000",
          "161240.965000",
          "161242.455000",
          "161243.945000",
          "161245.435000",
          "161246.925000",
          "161248.415000",
          "161249.905000",
          "161251.395000",
          "161252.885000",
          "161254.375000",
          "161255.865000",
          "161257.355000",
          "161258.845000",
          "161300.335000",
          "161301.825000",
          "161303.315000",
          "161304.805000",
          "161306.295000",
          "161307.785000",
          "161309.275000",
          "161310.765000",
          "161312.255000",
          "161313.745000",
          "161315.235000",
          "161316.725000",
          "161318.215000",
          "161319.705000",
          "161321.195000",
          "161322.685000",
          "161324.175000",
          "161325.665000",
          "161327.155000",
          "161328.645000",
          "161330.135000",
          "161331.625000",
          "161333.115000",
          "161334.605000",
          "161336.095000",
          "161337.585000",
          "161339.075000",
          "161340.565000",
          "161342.055000",
          "161343.545000",
          "161345.035000",
          "161346.525000",
          "161348.015000",
          "161349.505000",
          "161350.995000",
          "161352.485000",
          "161353.975000",
          "161355.465000",
          "161356.955000",
          "161358.445000",
          "161359.935000",
          "161401.425000",
          "161402.915000",
          "161404.405000",
          "161405.895000",
          "161407.385000",
          "161408.875000",
          "161410.365000",
          "161411.855000",
          "161413.345000",
          "161414.835000",
          "161416.325000",
          "161417.815000",
          "161419.305000",
          "161420.795000",
          "161422.285000",
          "161423.775000",
          "161425.265000",
          "161426.755000",
          "161428.245000",
          "161429.735000",
          "161431.225000",
          "161432.715000",
          "161434.205000",
          "161435.695000",
          "161437.185000",
          "161438.675000",
          "161440.165000",
          "161441.655000",
          "161443.145000",
          "161444.635000",
          "161446.125000",
          "161447.615000",
          "161449.105000",
          "161450.595000",
          "161452.085000",
          "161453.575000",
          "161455.065000",
          "161456.555000",
          "161458.045000",
          "161459.535000",
          "161501.025000",
          "161502.515000",
          "161504.005000",
          "161505.495000",
          "161506.985000",
          "161508.475000",
          "161509.965000",
          "161511.455000",
          "161512.945000",
          "161514.435000",
          "161515.925000",
          "161517.415000",
          "161518.905000",
          "161520.395000",
          "161521.885000",
          "161523.375000",
          "161524.865000",
          "161526.355000",
          "161527.845000",
          "161529.335000",
          "161530.825000",
          "161532.315000",
          "161533.805000",
          "161535.295000",
          "161536.785000",
          "161538.275000",
          "161539.765000",
          "161541.255000",
          "161542.745000",
          "161544.235000",
          "161545.725000",
          "161547.215000",
          "161548.705000",
          "161550.195000",
          "161551.685000",
          "161553.175000",
          "161554.665000",
          "161556.155000",
          "161557.645000",
          "161559.135000",
          "161600.625000",
          "161602.115000",
          "161603.605000"
        ],
        "ContentTime": [
          "160712.586000",
          "160712.590000",
          "160712.593000",
          "160712.596000",
          "160712.599000",
          "160712.602000",
          "160712.605000",
          "160712.608000",
          "160712.611000",
          "160712.620000",
          "160712.623000",
          "160712.626000",
          "160712.629000",
          "160712.632000",
          "160712.635000",
          "160712.638000",
          "160712.641000",
          "160712.644000",
          "160732.559000",
          "160732.562000",
          "160732.565000",
          "160732.568000",
          "160732.571000",
          "160732.574000",
          "160732.577000",
          "160732.580000",
          "160732.583000",
          "160732.586000",
          "160732.589000",
          "160732.592000",
          "160732.595000",
          "160732.598000",
          "160732.601000",
          "160732.604000",
          "160732.607000",
          "160732.609000",
          "160732.612000",
          "160732.615000",
          "160752.559000",
          "160752.562000",
          "160752.565000",
          "160752.568000",
          "160752.571000",
          "160752.574000",
          "160752.577000",
          "160752.580000",
          "160752.583000",
          "160752.586000",
          "160752.589000",
          "160752.596000",
          "160752.599000",
          "160752.602000",
          "160752.605000",
          "160752.608000",
          "160752.611000",
          "160752.614000",
          "160752.617000",
          "160752.620000",
          "160812.559000",
          "160812.562000",
          "160812.565000",
          "160812.568000",
          "160812.571000",
          "160812.574000",
          "160812.576000",
          "160812.579000",
          "160812.582000",
          "160812.585000",
          "160812.588000",
          "160812.591000",
          "160812.594000",
          "160812.597000",
          "160812.600000",
          "160812.603000",
          "160812.606000",
          "160812.609000",
          "160812.612000",
          "160812.614000",
          "160832.559000",
          "160832.576000",
          "160832.580000",
          "160832.583000",
          "160832.586000",
          "160832.589000",
          "160832.591000",
          "160832.594000",
          "160832.597000",
          "160832.600000",
          "160832.603000",
          "160832.606000",
          "160832.609000",
          "160832.612000",
          "160832.615000",
          "160832.618000",
          "160832.621000",
          "160832.624000",
          "160832.627000",
          "160832.630000",
          "160912.559000",
          "160912.562000",
          "160912.565000",
          "160912.568000",
          "160912.571000",
          "160912.574000",
          "160912.577000",
          "160912.580000",
          "160912.583000",
          "160912.586000",
          "160912.589000",
          "160912.592000",
          "160912.595000",
          "160912.598000",
          "160912.601000",
          "160912.603000",
          "160912.606000",
          "160912.609000",
          "160912.612000",
          "160912.615000",
          "160912.618000",
          "160912.621000",
          "160912.624000",
          "160912.627000",
          "160912.630000",
          "160912.633000",
          "160912.636000",
          "160912.639000",
          "160912.642000",
          "160912.645000",
          "160952.560000",
          "160952.563000",
          "160952.566000",
          "160952.569000",
          "160952.572000",
          "160952.575000",
          "160952.578000",
          "160952.581000",
          "160952.584000",
          "160952.587000",
          "160952.590000",
          "160952.593000",
          "160952.596000",
          "160952.599000",
          "160952.602000",
          "160952.605000",
          "160952.607000",
          "160952.610000",
          "160952.613000",
          "160952.616000",
          "160952.619000",
          "160952.622000",
          "160952.625000",
          "160952.628000",
          "160952.631000",
          "160952.634000",
          "160952.637000",
          "161032.559000",
          "161032.562000",
          "161032.565000",
          "161032.568000",
          "161032.571000",
          "161032.574000",
          "161032.577000",
          "161032.580000",
          "161032.583000",
          "161032.586000",
          "161032.589000",
          "161032.592000",
          "161032.595000",
          "161032.598000",
          "161032.601000",
          "161032.604000",
          "161032.607000",
          "161032.610000",
          "161032.613000",
          "161032.616000",
          "161032.619000",
          "161032.622000",
          "161032.624000",
          "161032.628000",
          "161032.631000",
          "161032.633000",
          "161032.636000",
          "161112.559000",
          "161112.562000",
          "161112.565000",
          "161112.568000",
          "161112.571000",
          "161112.574000",
          "161112.577000",
          "161112.580000",
          "161112.583000",
          "161112.586000",
          "161112.588000",
          "161112.591000",
          "161112.594000",
          "161112.597000",
          "161112.600000",
          "161112.603000",
          "161112.606000",
          "161112.609000",
          "161112.612000",
          "161112.615000",
          "161112.618000",
          "161112.621000",
          "161112.624000",
          "161112.626000",
          "161112.629000",
          "161112.632000",
          "161112.635000",
          "161152.559000",
          "161152.562000",
          "161152.565000",
          "161152.568000",
          "161152.571000",
          "161152.574000",
          "161152.577000",
          "161152.580000",
          "161152.583000",
          "161152.586000",
          "161152.588000",
          "161152.591000",
          "161152.594000",
          "161152.597000",
