{
  "aor": 0.00045094292803970224,
  "aqi": 0.004837755012406947,
  "bids_meta": {
    "AcquisitionMatrixPE": 104,
    "AcquisitionNumber": 1,
    "AcquisitionTime": "12:26:45.587500",
    "BandwidthPerPixelPhaseEncode": 17.17,
    "BaseResolution": 104,
    "BodyPartExamined": "BRAIN",
    "CogAtlasID": "trm_4c898da401420",
    "ConsistencyInfo": "N4_VE11C_LATEST_20160120",
    "ConversionSoftware": "dcm2niix",
    "ConversionSoftwareVersion": "v1.0.20171215 (OpenJPEG build) GCC7.3.0",
    "DerivedVendorReportedEchoSpacing": 0.000560011,
    "DeviceSerialNumber": "167006",
    "DwellTime": 2.1e-06,
    "EchoTime": 0.037,
    "EchoTrainLength": 104,
    "EffectiveEchoSpacing": 0.000560011,
    "FlipAngle": 52,
    "ImageComments": "Unaliased_MB4_PE3_LB",
    "ImageOrientationPatientDICOM": [
      0.99635,
      0.0500898,
      -0.0691279,
      -0.0616375,
      0.982354,
      -0.17658
    ],
    "ImageType": [
      "ORIGINAL",
      "PRIMARY",
      "M",
      "MB",
      "ND",
      "MOSAIC"
    ],
    "InPlanePhaseEncodingDirectionDICOM": "COL",
    "InstitutionAddress": "Chemin_Queen-Mary_4565_Montreal_District_CA_H3W_1W5",
    "InstitutionName": "IUGM",
    "InstitutionalDepartmentName": "Department",
    "MRAcquisitionType": "2D",
    "MagneticFieldStrength": 3,
    "Manufacturer": "Siemens",
    "ManufacturersModelName": "Prisma_fit",
    "Modality": "MR",
    "MultibandAccelerationFactor": 4,
    "PartialFourier": 1,
    "PatientPosition": "HFS",
    "PercentPhaseFOV": 100,
    "PhaseEncodingDirection": "j-",
    "PhaseEncodingSteps": 104,
    "PhaseResolution": 1,
    "PixelBandwidth": 2290,
    "ProcedureStepDescription": "video5_generic",
    "ProtocolName": "func_task-wolf16",
    "PulseSequenceDetails": "%CustomerSeq%_cmrr_mbep2d_bold",
    "ReceiveCoilActiveElements": "HC1-7;NC1,2",
    "ReceiveCoilName": "HeadNeck_64",
    "ReconMatrixPE": 104,
    "RepetitionTime": 1.49,
    "SAR": 0.0308812,
    "ScanOptions": "FS",
    "ScanningSequence": "EP",
    "SequenceName": "epfid2d1_104",
    "SequenceVariant": "SK_SS",
    "SeriesDescription": "func_task-wolf16",
    "SeriesNumber": 11,
    "ShimSetting": [
      602,
      -7199,
      -8846,
      583,
      -31,
      -128,
      67,
      45
    ],
    "SliceThickness": 2,
    "SliceTiming": [
      0,
      0.785,
      0.1,
      0.8825,
      0.1975,
      0.98,
      0.295,
      1.08,
      0.3925,
      1.1775,
      0.49,
      1.275,
      0.59,
      1.3725,
      0.6875,
      0,
      0.785,
      0.1,
      0.8825,
      0.1975,
      0.98,
      0.295,
      1.08,
      0.3925,
      1.1775,
      0.49,
      1.275,
      0.59,
      1.3725,
      0.6875,
      0,
      0.785,
      0.1,
      0.8825,
      0.1975,
      0.98,
      0.295,
      1.08,
      0.3925,
      1.1775,
      0.49,
      1.275,
      0.59,
      1.3725,
      0.6875,
      0,
      0.785,
      0.1,
      0.8825,
      0.1975,
      0.98,
      0.295,
      1.08,
      0.3925,
      1.1775,
      0.49,
      1.275,
      0.59,
      1.3725,
      0.6875
    ],
    "SoftwareVersions": "syngo_MR_E11",
    "SpacingBetweenSlices": 2,
    "StationName": "MRC35049",
    "TaskName": "wolf16",
    "TotalReadoutTime": 0.0576811,
    "TxRefAmp": 214.372,
    "dataset": "<unset>",
    "dcmmeta_affine": [
      [
        -1.9926990270614624,
        -0.12327507883310318,
        -0.11812645941972733,
        110.50194549560547
      ],
      [
        -0.10017953813076019,
        1.9647088050842285,
        -0.3603931665420532,
        -68.81082153320312
      ],
      [
        -0.1382557898759842,
        0.3531606197357178,
        1.9637116193771362,
        -46.720218658447266
      ],
      [
        0.0,
        0.0,
        0.0,
        1.0
      ]
    ],
    "dcmmeta_reorient_transform": [
      [
        0.0,
        -1.0,
        0.0,
        103.0
      ],
      [
        1.0,
        0.0,
        0.0,
        0.0
      ],
      [
        0.0,
        0.0,
        1.0,
        0.0
      ],
      [
        0.0,
        0.0,
        0.0,
        1.0
      ]
    ],
    "dcmmeta_shape": [
      104,
      104,
      60,
      406
    ],
    "dcmmeta_slice_dim": 2,
    "dcmmeta_version": 0.6,
    "global": {
      "const": {
        "AcquisitionMatrix": [
          104,
          0,
          0,
          104
        ],
        "AngioFlag": "N",
        "BitsAllocated": 16,
        "BitsStored": 16,
        "BodyPartExamined": "BRAIN",
        "Columns": 832,
        "EchoNumbers": 1,
        "EchoTime": 37.0,
        "EchoTrainLength": 104,
        "FlipAngle": 52.0,
        "HighBit": 15,
        "ImageOrientationPatient": [
          0.99634951129359,
          0.05008977051594,
          -0.0691278976585,
          -0.0616375401774,
          0.98235442082619,
          -0.1765803089932
        ],
        "ImagePositionPatient": [
          -778.27492965175,
          -885.17355987243,
          168.53090106036
        ],
        "ImageType": [
          "ORIGINAL",
          "PRIMARY",
          "M",
          "MB",
          "ND",
          "MOSAIC"
        ],
        "ImagedNucleus": "1H",
        "ImagingFrequency": 123.259186,
        "InPlanePhaseEncodingDirection": "COL",
        "MRAcquisitionType": "2D",
        "MagneticFieldStrength": 3.0,
        "Manufacturer": "SIEMENS",
        "ManufacturerModelName": "Prisma_fit",
        "Modality": "MR",
        "NumberOfAverages": 1.0,
        "NumberOfPhaseEncodingSteps": 104,
        "PercentPhaseFieldOfView": 100.0,
        "PercentSampling": 100.0,
        "PerformedProcedureStepStartTime": "115909.453000",
        "PhotometricInterpretation": "MONOCHROME2",
        "PixelBandwidth": 2290.0,
        "PixelRepresentation": 0,
        "PixelSpacing": [
          2.0,
          2.0
        ],
        "ProtocolName": "func_task-wolf16",
        "RepetitionTime": 1490.0,
        "Rows": 832,
        "SAR": 0.03088124668166,
        "SamplesPerPixel": 1,
        "ScanOptions": "FS",
        "ScanningSequence": "EP",
        "SequenceName": "epfid2d1_104",
        "SequenceVariant": [
          "SK",
          "SS"
        ],
        "SeriesDescription": "func_task-wolf16",
        "SeriesNumber": 11,
        "SeriesTime": "122753.159000",
        "SliceLocation": -39.999641221299,
        "SliceThickness": 2.0,
        "SmallestImagePixelValue": 0,
        "SoftwareVersions": "syngo MR E11",
        "SpacingBetweenSlices": 2.000000047914,
        "SpecificCharacterSet": "ISO_IR 100",
        "StudyID": "1",
        "StudyTime": "115909.383000",
        "TransmitCoilName": "Body",
        "VariableFlipAngleFlag": "N",
        "WindowCenterWidthExplanation": "Algo1",
        "dBdt": 0.0
      },
      "slices": {}
    },
    "modality": "bold",
    "session_id": "004",
    "subject_id": "04",
    "task_id": "wolf16",
    "time": {
      "samples": {
        "AcquisitionNumber": [
          1,
          2,
          3,
          4,
          5,
          6,
          7,
          8,
          9,
          10,
          11,
          12,
          13,
          14,
          15,
          16,
          17,
          18,
          19,
          20,
          21,
          22,
          23,
          24,
          25,
          26,
          27,
          28,
          29,
          30,
          31,
          32,
          33,
          34,
          35,
          36,
          37,
          38,
          39,
          40,
          41,
          42,
          43,
          44,
          45,
          46,
          47,
          48,
          49,
          50,
          51,
          52,
          53,
          54,
          55,
          56,
          57,
          58,
          59,
          60,
          61,
          62,
          63,
          64,
          65,
          66,
          67,
          68,
          69,
          70,
          71,
          72,
          73,
          74,
          75,
          76,
          77,
          78,
          79,
          80,
          81,
          82,
          83,
          84,
          85,
          86,
          87,
          88,
          89,
          90,
          91,
          92,
          93,
          94,
          95,
          96,
          97,
          98,
          99,
          100,
          101,
          102,
          103,
          104,
          105,
          106,
          107,
          108,
          109,
          110,
          111,
          112,
          113,
          114,
          115,
          116,
          117,
          118,
          119,
          120,
          121,
          122,
          123,
          124,
          125,
          126,
          127,
          128,
          129,
          130,
          131,
          132,
          133,
          134,
          135,
          136,
          137,
          138,
          139,
          140,
          141,
          142,
          143,
          144,
          145,
          146,
          147,
          148,
          149,
          150,
          151,
          152,
          153,
          154,
          155,
          156,
          157,
          158,
          159,
          160,
          161,
          162,
          163,
          164,
          165,
          166,
          167,
          168,
          169,
          170,
          171,
          172,
          173,
          174,
          175,
          176,
          177,
          178,
          179,
          180,
          181,
          182,
          183,
          184,
          185,
          186,
          187,
          188,
          189,
          190,
          191,
          192,
          193,
          194,
          195,
          196,
          197,
          198,
          199,
          200,
          201,
          202,
          203,
          204,
          205,
          206,
          207,
          208,
          209,
          210,
          211,
          212,
          213,
          214,
          215,
          216,
          217,
          218,
          219,
          220,
          221,
          222,
          223,
          224,
          225,
          226,
          227,
          228,
          229,
          230,
          231,
          232,
          233,
          234,
          235,
          236,
          237,
          238,
          239,
          240,
          241,
          242,
          243,
          244,
          245,
          246,
          247,
          248,
          249,
          250,
          251,
          252,
          253,
          254,
          255,
          256,
          257,
          258,
          259,
          260,
          261,
          262,
          263,
          264,
          265,
          266,
          267,
          268,
          269,
          270,
          271,
          272,
          273,
          274,
          275,
          276,
          277,
          278,
          279,
          280,
          281,
          282,
          283,
          284,
          285,
          286,
          287,
          288,
          289,
          290,
          291,
          292,
          293,
          294,
          295,
          296,
          297,
          298,
          299,
          300,
          301,
          302,
          303,
          304,
          305,
          306,
          307,
          308,
          309,
          310,
          311,
          312,
          313,
          314,
          315,
          316,
          317,
          318,
          319,
          320,
          321,
          322,
          323,
          324,
          325,
          326,
          327,
          328,
          329,
          330,
          331,
          332,
          333,
          334,
          335,
          336,
          337,
          338,
          339,
          340,
          341,
          342,
          343,
          344,
          345,
          346,
          347,
          348,
          349,
          350,
          351,
          352,
          353,
          354,
          355,
          356,
          357,
          358,
          359,
          360,
          361,
          362,
          363,
          364,
          365,
          366,
          367,
          368,
          369,
          370,
          371,
          372,
          373,
          374,
          375,
          376,
          377,
          378,
          379,
          380,
          381,
          382,
          383,
          384,
          385,
          386,
          387,
          388,
          389,
          390,
          391,
          392,
          393,
          394,
          395,
          396,
          397,
          398,
          399,
          400,
          401,
          402,
          403,
          404,
          405,
          406
        ],
        "AcquisitionTime": [
          "122645.587500",
          "122647.077500",
          "122648.567500",
          "122650.057500",
          "122651.547500",
          "122653.037500",
          "122654.527500",
          "122656.017500",
          "122657.507500",
          "122658.997500",
          "122700.487500",
          "122701.977500",
          "122703.467500",
          "122704.957500",
          "122706.447500",
          "122707.937500",
          "122709.427500",
          "122710.917500",
          "122712.407500",
          "122713.897500",
          "122715.387500",
          "122716.877500",
          "122718.367500",
          "122719.857500",
          "122721.347500",
          "122722.837500",
          "122724.327500",
          "122725.817500",
          "122727.307500",
          "122728.797500",
          "122730.287500",
          "122731.777500",
          "122733.267500",
          "122734.757500",
          "122736.247500",
          "122737.737500",
          "122739.227500",
          "122740.717500",
          "122742.207500",
          "122743.697500",
          "122745.187500",
          "122746.677500",
          "122748.167500",
          "122749.657500",
          "122751.147500",
          "122752.637500",
          "122754.127500",
          "122755.617500",
          "122757.107500",
          "122758.597500",
          "122800.087500",
          "122801.577500",
          "122803.067500",
          "122804.557500",
          "122806.047500",
          "122807.537500",
          "122809.027500",
          "122810.517500",
          "122812.007500",
          "122813.497500",
          "122814.987500",
          "122816.477500",
          "122817.967500",
          "122819.457500",
          "122820.947500",
          "122822.437500",
          "122823.927500",
          "122825.417500",
          "122826.907500",
          "122828.397500",
          "122829.887500",
          "122831.377500",
          "122832.867500",
          "122834.357500",
          "122835.847500",
          "122837.337500",
          "122838.827500",
          "122840.317500",
          "122841.807500",
          "122843.297500",
          "122844.787500",
          "122846.277500",
          "122847.767500",
          "122849.257500",
          "122850.747500",
          "122852.237500",
          "122853.727500",
          "122855.217500",
          "122856.707500",
          "122858.197500",
          "122859.687500",
          "122901.177500",
          "122902.667500",
          "122904.157500",
          "122905.647500",
          "122907.137500",
          "122908.627500",
          "122910.117500",
          "122911.607500",
          "122913.097500",
          "122914.587500",
          "122916.077500",
          "122917.567500",
          "122919.057500",
          "122920.547500",
          "122922.037500",
          "122923.527500",
          "122925.017500",
          "122926.507500",
          "122927.997500",
          "122929.487500",
          "122930.977500",
          "122932.467500",
          "122933.957500",
          "122935.447500",
          "122936.937500",
          "122938.427500",
          "122939.917500",
          "122941.407500",
          "122942.897500",
          "122944.387500",
          "122945.877500",
          "122947.367500",
          "122948.857500",
          "122950.347500",
          "122951.837500",
          "122953.327500",
          "122954.817500",
          "122956.307500",
          "122957.797500",
          "122959.287500",
          "123000.777500",
          "123002.267500",
          "123003.757500",
          "123005.247500",
          "123006.737500",
          "123008.227500",
          "123009.717500",
          "123011.207500",
          "123012.697500",
          "123014.187500",
          "123015.677500",
          "123017.167500",
          "123018.657500",
          "123020.147500",
          "123021.637500",
          "123023.127500",
          "123024.617500",
          "123026.107500",
          "123027.597500",
          "123029.087500",
          "123030.577500",
          "123032.067500",
          "123033.557500",
          "123035.047500",
          "123036.537500",
          "123038.027500",
          "123039.517500",
          "123041.007500",
          "123042.497500",
          "123043.987500",
          "123045.477500",
          "123046.967500",
          "123048.457500",
          "123049.947500",
          "123051.437500",
          "123052.927500",
          "123054.417500",
          "123055.907500",
          "123057.397500",
          "123058.887500",
          "123100.377500",
          "123101.867500",
          "123103.357500",
          "123104.847500",
          "123106.337500",
          "123107.827500",
          "123109.317500",
          "123110.807500",
          "123112.297500",
          "123113.787500",
          "123115.277500",
          "123116.767500",
          "123118.257500",
          "123119.747500",
          "123121.237500",
          "123122.727500",
          "123124.217500",
          "123125.707500",
          "123127.197500",
          "123128.687500",
          "123130.177500",
          "123131.667500",
          "123133.157500",
          "123134.647500",
          "123136.137500",
          "123137.627500",
          "123139.117500",
          "123140.607500",
          "123142.097500",
          "123143.587500",
          "123145.077500",
          "123146.567500",
          "123148.057500",
          "123149.547500",
          "123151.037500",
          "123152.527500",
          "123154.017500",
          "123155.507500",
          "123156.997500",
          "123158.487500",
          "123159.977500",
          "123201.467500",
          "123202.957500",
          "123204.447500",
          "123205.937500",
          "123207.427500",
          "123208.917500",
          "123210.407500",
          "123211.897500",
          "123213.387500",
          "123214.877500",
          "123216.367500",
          "123217.857500",
          "123219.347500",
          "123220.837500",
          "123222.327500",
          "123223.817500",
          "123225.307500",
          "123226.797500",
          "123228.287500",
          "123229.777500",
          "123231.267500",
          "123232.757500",
          "123234.247500",
          "123235.737500",
          "123237.227500",
          "123238.717500",
          "123240.207500",
          "123241.697500",
          "123243.187500",
          "123244.677500",
          "123246.167500",
          "123247.657500",
          "123249.147500",
          "123250.637500",
          "123252.127500",
          "123253.617500",
          "123255.107500",
          "123256.597500",
          "123258.087500",
          "123259.577500",
          "123301.067500",
          "123302.557500",
          "123304.047500",
          "123305.537500",
          "123307.027500",
          "123308.517500",
          "123310.007500",
          "123311.497500",
          "123312.987500",
          "123314.477500",
          "123315.967500",
          "123317.457500",
          "123318.947500",
          "123320.437500",
          "123321.927500",
          "123323.417500",
          "123324.907500",
          "123326.397500",
          "123327.887500",
          "123329.377500",
          "123330.867500",
          "123332.357500",
          "123333.847500",
          "123335.337500",
          "123336.827500",
          "123338.317500",
          "123339.807500",
          "123341.297500",
          "123342.787500",
          "123344.277500",
          "123345.767500",
          "123347.257500",
          "123348.747500",
          "123350.237500",
          "123351.727500",
          "123353.217500",
          "123354.707500",
          "123356.197500",
          "123357.687500",
          "123359.177500",
          "123400.667500",
          "123402.157500",
          "123403.647500",
          "123405.137500",
          "123406.627500",
          "123408.117500",
          "123409.607500",
          "123411.097500",
          "123412.587500",
          "123414.077500",
          "123415.567500",
          "123417.057500",
          "123418.547500",
          "123420.037500",
          "123421.527500",
          "123423.017500",
          "123424.507500",
          "123425.997500",
          "123427.487500",
          "123428.977500",
          "123430.467500",
          "123431.957500",
          "123433.447500",
          "123434.937500",
          "123436.427500",
          "123437.917500",
          "123439.407500",
          "123440.897500",
          "123442.387500",
          "123443.877500",
          "123445.367500",
          "123446.857500",
          "123448.347500",
          "123449.837500",
          "123451.327500",
          "123452.817500",
          "123454.307500",
          "123455.797500",
          "123457.287500",
          "123458.777500",
          "123500.267500",
          "123501.757500",
          "123503.247500",
          "123504.737500",
          "123506.227500",
          "123507.717500",
          "123509.207500",
          "123510.697500",
          "123512.187500",
          "123513.677500",
          "123515.167500",
          "123516.657500",
          "123518.147500",
          "123519.637500",
          "123521.127500",
          "123522.617500",
          "123524.107500",
          "123525.597500",
          "123527.087500",
          "123528.577500",
          "123530.067500",
          "123531.557500",
          "123533.047500",
          "123534.537500",
          "123536.027500",
          "123537.517500",
          "123539.007500",
          "123540.497500",
          "123541.987500",
          "123543.477500",
          "123544.967500",
          "123546.457500",
          "123547.947500",
          "123549.437500",
          "123550.927500",
          "123552.417500",
          "123553.907500",
          "123555.397500",
          "123556.887500",
          "123558.377500",
          "123559.867500",
          "123601.357500",
          "123602.847500",
          "123604.337500",
          "123605.827500",
          "123607.317500",
          "123608.807500",
          "123610.297500",
          "123611.787500",
          "123613.277500",
          "123614.767500",
          "123616.257500",
          "123617.747500",
          "123619.237500",
          "123620.727500",
          "123622.217500",
          "123623.707500",
          "123625.197500",
          "123626.687500",
          "123628.177500",
          "123629.667500",
          "123631.157500",
          "123632.647500",
          "123634.137500",
          "123635.627500",
          "123637.117500",
          "123638.607500",
          "123640.097500",
          "123641.587500",
          "123643.077500",
          "123644.567500",
          "123646.057500",
          "123647.547500",
          "123649.037500"
        ],
        "ContentTime": [
          "122753.161000",
          "122753.165000",
          "122753.168000",
          "122753.171000",
          "122753.174000",
          "122753.192000",
          "122753.195000",
          "122753.198000",
          "122753.201000",
          "122753.204000",
          "122753.207000",
          "122753.210000",
          "122813.132000",
          "122813.135000",
          "122813.138000",
          "122813.141000",
          "122813.144000",
          "122813.147000",
          "122813.149000",
          "122813.153000",
          "122813.156000",
          "122813.158000",
          "122813.161000",
          "122813.164000",
          "122813.167000",
          "122813.174000",
          "122813.177000",
          "122813.180000",
          "122813.183000",
          "122813.186000",
          "122813.188000",
          "122813.191000",
          "122813.194000",
          "122833.132000",
          "122833.135000",
          "122833.138000",
          "122833.141000",
          "122833.144000",
          "122833.147000",
          "122833.150000",
          "122833.153000",
          "122833.156000",
          "122833.158000",
          "122833.161000",
          "122833.164000",
          "122833.167000",
          "122833.170000",
          "122833.173000",
          "122833.176000",
          "122833.184000",
          "122833.187000",
          "122833.190000",
          "122833.207000",
          "122853.132000",
          "122853.135000",
          "122853.138000",
          "122853.141000",
          "122853.145000",
          "122853.148000",
          "122853.150000",
          "122853.153000",
          "122853.156000",
          "122853.159000",
          "122853.162000",
          "122853.165000",
          "122853.168000",
          "122853.171000",
          "122853.174000",
          "122853.177000",
          "122853.180000",
          "122853.183000",
          "122853.186000",
          "122853.189000",
          "122913.132000",
          "122913.135000",
          "122913.138000",
          "122913.141000",
          "122913.144000",
          "122913.147000",
          "122913.157000",
          "122913.160000",
          "122913.163000",
          "122913.166000",
          "122913.169000",
          "122913.172000",
          "122913.175000",
          "122913.178000",
          "122913.181000",
          "122913.184000",
          "122913.187000",
          "122913.190000",
          "122913.193000",
          "122913.195000",
          "122953.132000",
          "122953.145000",
          "122953.148000",
          "122953.150000",
          "122953.153000",
          "122953.156000",
          "122953.159000",
          "122953.162000",
          "122953.165000",
          "122953.168000",
          "122953.171000",
          "122953.174000",
          "122953.177000",
          "122953.180000",
          "122953.183000",
          "122953.186000",
          "122953.189000",
          "122953.192000",
          "122953.195000",
          "122953.198000",
          "122953.201000",
          "122953.210000",
          "122953.212000",
          "122953.215000",
          "122953.218000",
          "122953.221000",
          "122953.224000",
          "122953.227000",
          "122953.230000",
          "122953.233000",
          "122953.236000",
          "122953.239000",
          "123033.132000",
          "123033.135000",
          "123033.138000",
          "123033.141000",
          "123033.144000",
          "123033.147000",
          "123033.150000",
          "123033.153000",
          "123033.156000",
          "123033.159000",
          "123033.162000",
          "123033.165000",
          "123033.168000",
          "123033.171000",
          "123033.174000",
          "123033.177000",
          "123033.180000",
          "123033.183000",
          "123033.186000",
          "123033.189000",
          "123033.192000",
          "123033.195000",
          "123033.198000",
          "123033.201000",
          "123033.204000",
          "123033.206000",
          "123033.209000",
          "123113.132000",
          "123113.135000",
          "123113.138000",
          "123113.141000",
          "123113.144000",
          "123113.147000",
          "123113.150000",
          "123113.153000",
          "123113.156000",
          "123113.159000",
          "123113.162000",
          "123113.165000",
          "123113.168000",
          "123113.171000",
          "123113.174000",
          "123113.177000",
          "123113.185000",
          "123113.188000",
          "123113.191000",
          "123113.194000",
          "123113.197000",
          "123113.200000",
          "123113.203000",
          "123113.206000",
          "123113.209000",
          "123113.212000",
          "123113.215000",
          "123153.132000",
          "123153.135000",
          "123153.138000",
          "123153.141000",
          "123153.144000",
          "123153.147000",
          "123153.150000",
          "123153.153000",
          "123153.156000",
          "123153.159000",
          "123153.162000",
          "123153.165000",
          "123153.168000",
          "123153.171000",
          "123153.174000",
          "123153.177000",
          "123153.180000",
          "123153.183000",
          "123153.186000",
          "123153.189000",
          "123153.192000",
          "123153.194000",
          "123153.198000",
          "123153.208000",
          "123153.211000",
          "123153.214000",
          "123153.217000",
          "123233.132000",
          "123233.135000",
          "123233.139000",
          "123233.142000",
          "123233.145000",
          "123233.148000",
          "123233.151000",
          "123233.154000",
          "123233.157000",
          "123233.160000",
          "123233.163000",
          "123233.166000",
          "123233.169000",
          "123233.172000",
          "123233.175000",
          "123233.178000",
          "123233.181000",
          "123233.184000",
