{
  "aor": 0.00034419117647058824,
  "aqi": 0.005611840465686273,
  "bids_meta": {
    "AcquisitionMatrixPE": 104,
    "AcquisitionNumber": 1,
    "AcquisitionTime": "13:10:22.457500",
    "BandwidthPerPixelPhaseEncode": 17.17,
    "BaseResolution": 104,
    "BodyPartExamined": "BRAIN",
    "CogAtlasID": "trm_4c898da401420",
    "ConsistencyInfo": "N4_VE11C_LATEST_20160120",
    "ConversionSoftware": "dcm2niix",
    "ConversionSoftwareVersion": "v1.0.20171215 (OpenJPEG build) GCC7.3.0",
    "DerivedVendorReportedEchoSpacing": 0.000560011,
    "DeviceSerialNumber": "167006",
    "DwellTime": 2.1e-06,
    "EchoTime": 0.037,
    "EchoTrainLength": 104,
    "EffectiveEchoSpacing": 0.000560011,
    "FlipAngle": 52,
    "ImageComments": "Unaliased_MB4_PE3_LB",
    "ImageOrientationPatientDICOM": [
      0.996729,
      0.0211811,
      -0.0779896,
      -0.0351549,
      0.98259,
      -0.182429
    ],
    "ImageType": [
      "ORIGINAL",
      "PRIMARY",
      "M",
      "MB",
      "ND",
      "MOSAIC"
    ],
    "InPlanePhaseEncodingDirectionDICOM": "COL",
    "InstitutionAddress": "Chemin_Queen-Mary_4565_Montreal_District_CA_H3W_1W5",
    "InstitutionName": "IUGM",
    "InstitutionalDepartmentName": "Department",
    "MRAcquisitionType": "2D",
    "MagneticFieldStrength": 3,
    "Manufacturer": "Siemens",
    "ManufacturersModelName": "Prisma_fit",
    "Modality": "MR",
    "MultibandAccelerationFactor": 4,
    "PartialFourier": 1,
    "PatientPosition": "HFS",
    "PercentPhaseFOV": 100,
    "PhaseEncodingDirection": "j-",
    "PhaseEncodingSteps": 104,
    "PhaseResolution": 1,
    "PixelBandwidth": 2290,
    "ProcedureStepDescription": "video5_generic",
    "ProtocolName": "func_task-figures2",
    "PulseSequenceDetails": "%CustomerSeq%_cmrr_mbep2d_bold",
    "ReceiveCoilActiveElements": "HC1-7;NC1,2",
    "ReceiveCoilName": "HeadNeck_64",
    "ReconMatrixPE": 104,
    "RepetitionTime": 1.49,
    "SAR": 0.0318962,
    "ScanOptions": "FS",
    "ScanningSequence": "EP",
    "SequenceName": "epfid2d1_104",
    "SequenceVariant": "SK_SS",
    "SeriesDescription": "func_task-figures2",
    "SeriesNumber": 24,
    "ShimSetting": [
      595,
      -7198,
      -8859,
      558,
      -44,
      -120,
      53,
      32
    ],
    "SliceThickness": 2,
    "SliceTiming": [
      0,
      0.785,
      0.0975,
      0.8825,
      0.195,
      0.98,
      0.295,
      1.0775,
      0.3925,
      1.175,
      0.49,
      1.275,
      0.5875,
      1.3725,
      0.685,
      0,
      0.785,
      0.0975,
      0.8825,
      0.195,
      0.98,
      0.295,
      1.0775,
      0.3925,
      1.175,
      0.49,
      1.275,
      0.5875,
      1.3725,
      0.685,
      0,
      0.785,
      0.0975,
      0.8825,
      0.195,
      0.98,
      0.295,
      1.0775,
      0.3925,
      1.175,
      0.49,
      1.275,
      0.5875,
      1.3725,
      0.685,
      0,
      0.785,
      0.0975,
      0.8825,
      0.195,
      0.98,
      0.295,
      1.0775,
      0.3925,
      1.175,
      0.49,
      1.275,
      0.5875,
      1.3725,
      0.685
    ],
    "SoftwareVersions": "syngo_MR_E11",
    "SpacingBetweenSlices": 2,
    "StationName": "MRC35049",
    "TaskName": "figures02",
    "TotalReadoutTime": 0.0576811,
    "TxRefAmp": 217.564,
    "dataset": "<unset>",
    "dcmmeta_affine": [
      [
        -1.9934582710266113,
        -0.07030978053808212,
        -0.14553560316562653,
        107.701416015625
      ],
      [
        -0.04236216843128204,
        1.9651806354522705,
        -0.3691481947898865,
        -70.68658447265625
      ],
      [
        -0.1559792459011078,
        0.3648581802845001,
        1.9602420330047607,
        -50.01536178588867
      ],
      [
        0.0,
        0.0,
        0.0,
        1.0
      ]
    ],
    "dcmmeta_reorient_transform": [
      [
        0.0,
        -1.0,
        0.0,
        103.0
      ],
      [
        1.0,
        0.0,
        0.0,
        0.0
      ],
      [
        0.0,
        0.0,
        1.0,
        0.0
      ],
      [
        0.0,
        0.0,
        0.0,
        1.0
      ]
    ],
    "dcmmeta_shape": [
      104,
      104,
      60,
      410
    ],
    "dcmmeta_slice_dim": 2,
    "dcmmeta_version": 0.6,
    "global": {
      "const": {
        "AcquisitionMatrix": [
          104,
          0,
          0,
          104
        ],
        "AngioFlag": "N",
        "BitsAllocated": 16,
        "BitsStored": 16,
        "BodyPartExamined": "BRAIN",
        "Columns": 832,
        "EchoNumbers": 1,
        "EchoTime": 37.0,
        "EchoTrainLength": 104,
        "FlipAngle": 52.0,
        "HighBit": 15,
        "ImageOrientationPatient": [
          0.99672914120995,
          0.02118108392089,
          -0.0779896194812,
          -0.0351548902293,
          0.98259033226203,
          -0.182429089342
        ],
        "ImagePositionPatient": [
          -800.48556575609,
          -862.47261135501,
          177.14984920037
        ],
        "ImageType": [
          "ORIGINAL",
          "PRIMARY",
          "M",
          "MB",
          "ND",
          "MOSAIC"
        ],
        "ImagedNucleus": "1H",
        "ImagingFrequency": 123.259208,
        "InPlanePhaseEncodingDirection": "COL",
        "MRAcquisitionType": "2D",
        "MagneticFieldStrength": 3.0,
        "Manufacturer": "SIEMENS",
        "ManufacturerModelName": "Prisma_fit",
        "Modality": "MR",
        "NumberOfAverages": 1.0,
        "NumberOfPhaseEncodingSteps": 104,
        "PercentPhaseFieldOfView": 100.0,
        "PercentSampling": 100.0,
        "PerformedProcedureStepStartTime": "115909.453000",
        "PhotometricInterpretation": "MONOCHROME2",
        "PixelBandwidth": 2290.0,
        "PixelRepresentation": 0,
        "PixelSpacing": [
          2.0,
          2.0
        ],
        "ProtocolName": "func_task-figures2",
        "RepetitionTime": 1490.0,
        "Rows": 832,
        "SAR": 0.03189616285247,
        "SamplesPerPixel": 1,
        "ScanOptions": "FS",
        "ScanningSequence": "EP",
        "SequenceName": "epfid2d1_104",
        "SequenceVariant": [
          "SK",
          "SS"
        ],
        "SeriesDescription": "func_task-figures2",
        "SeriesNumber": 24,
        "SeriesTime": "131150.038000",
        "SliceLocation": -43.811391158948,
        "SliceThickness": 2.0,
        "SmallestImagePixelValue": 0,
        "SoftwareVersions": "syngo MR E11",
        "SpacingBetweenSlices": 1.999999984529,
        "SpecificCharacterSet": "ISO_IR 100",
        "StudyID": "1",
        "StudyTime": "115909.383000",
        "TransmitCoilName": "Body",
        "VariableFlipAngleFlag": "N",
        "WindowCenterWidthExplanation": "Algo1",
        "dBdt": 0.0
      },
      "slices": {}
    },
    "modality": "bold",
    "run_id": 1,
    "session_id": "004",
    "subject_id": "04",
    "task_id": "figures02",
    "time": {
      "samples": {
        "AcquisitionNumber": [
          1,
          2,
          3,
          4,
          5,
          6,
          7,
          8,
          9,
          10,
          11,
          12,
          13,
          14,
          15,
          16,
          17,
          18,
          19,
          20,
          21,
          22,
          23,
          24,
          25,
          26,
          27,
          28,
          29,
          30,
          31,
          32,
          33,
          34,
          35,
          36,
          37,
          38,
          39,
          40,
          41,
          42,
          43,
          44,
          45,
          46,
          47,
          48,
          49,
          50,
          51,
          52,
          53,
          54,
          55,
          56,
          57,
          58,
          59,
          60,
          61,
          62,
          63,
          64,
          65,
          66,
          67,
          68,
          69,
          70,
          71,
          72,
          73,
          74,
          75,
          76,
          77,
          78,
          79,
          80,
          81,
          82,
          83,
          84,
          85,
          86,
          87,
          88,
          89,
          90,
          91,
          92,
          93,
          94,
          95,
          96,
          97,
          98,
          99,
          100,
          101,
          102,
          103,
          104,
          105,
          106,
          107,
          108,
          109,
          110,
          111,
          112,
          113,
          114,
          115,
          116,
          117,
          118,
          119,
          120,
          121,
          122,
          123,
          124,
          125,
          126,
          127,
          128,
          129,
          130,
          131,
          132,
          133,
          134,
          135,
          136,
          137,
          138,
          139,
          140,
          141,
          142,
          143,
          144,
          145,
          146,
          147,
          148,
          149,
          150,
          151,
          152,
          153,
          154,
          155,
          156,
          157,
          158,
          159,
          160,
          161,
          162,
          163,
          164,
          165,
          166,
          167,
          168,
          169,
          170,
          171,
          172,
          173,
          174,
          175,
          176,
          177,
          178,
          179,
          180,
          181,
          182,
          183,
          184,
          185,
          186,
          187,
          188,
          189,
          190,
          191,
          192,
          193,
          194,
          195,
          196,
          197,
          198,
          199,
          200,
          201,
          202,
          203,
          204,
          205,
          206,
          207,
          208,
          209,
          210,
          211,
          212,
          213,
          214,
          215,
          216,
          217,
          218,
          219,
          220,
          221,
          222,
          223,
          224,
          225,
          226,
          227,
          228,
          229,
          230,
          231,
          232,
          233,
          234,
          235,
          236,
          237,
          238,
          239,
          240,
          241,
          242,
          243,
          244,
          245,
          246,
          247,
          248,
          249,
          250,
          251,
          252,
          253,
          254,
          255,
          256,
          257,
          258,
          259,
          260,
          261,
          262,
          263,
          264,
          265,
          266,
          267,
          268,
          269,
          270,
          271,
          272,
          273,
          274,
          275,
          276,
          277,
          278,
          279,
          280,
          281,
          282,
          283,
          284,
          285,
          286,
          287,
          288,
          289,
          290,
          291,
          292,
          293,
          294,
          295,
          296,
          297,
          298,
          299,
          300,
          301,
          302,
          303,
          304,
          305,
          306,
          307,
          308,
          309,
          310,
          311,
          312,
          313,
          314,
          315,
          316,
          317,
          318,
          319,
          320,
          321,
          322,
          323,
          324,
          325,
          326,
          327,
          328,
          329,
          330,
          331,
          332,
          333,
          334,
          335,
          336,
          337,
          338,
          339,
          340,
          341,
          342,
          343,
          344,
          345,
          346,
          347,
          348,
          349,
          350,
          351,
          352,
          353,
          354,
          355,
          356,
          357,
          358,
          359,
          360,
          361,
          362,
          363,
          364,
          365,
          366,
          367,
          368,
          369,
          370,
          371,
          372,
          373,
          374,
          375,
          376,
          377,
          378,
          379,
          380,
          381,
          382,
          383,
          384,
          385,
          386,
          387,
          388,
          389,
          390,
          391,
          392,
          393,
          394,
          395,
          396,
          397,
          398,
          399,
          400,
          401,
          402,
          403,
          404,
          405,
          406,
          407,
          408,
          409,
          410
        ],
        "AcquisitionTime": [
          "131022.457500",
          "131023.947500",
          "131025.437500",
          "131026.927500",
          "131028.417500",
          "131029.907500",
          "131031.397500",
          "131032.887500",
          "131034.377500",
          "131035.867500",
          "131037.357500",
          "131038.847500",
          "131040.337500",
          "131041.827500",
          "131043.317500",
          "131044.807500",
          "131046.297500",
          "131047.787500",
          "131049.277500",
          "131050.767500",
          "131052.257500",
          "131053.747500",
          "131055.237500",
          "131056.727500",
          "131058.217500",
          "131059.707500",
          "131101.197500",
          "131102.687500",
          "131104.177500",
          "131105.667500",
          "131107.157500",
          "131108.647500",
          "131110.137500",
          "131111.627500",
          "131113.117500",
          "131114.607500",
          "131116.097500",
          "131117.587500",
          "131119.077500",
          "131120.567500",
          "131122.057500",
          "131123.547500",
          "131125.037500",
          "131126.527500",
          "131128.017500",
          "131129.507500",
          "131130.997500",
          "131132.487500",
          "131133.977500",
          "131135.467500",
          "131136.957500",
          "131138.447500",
          "131139.937500",
          "131141.427500",
          "131142.917500",
          "131144.407500",
          "131145.897500",
          "131147.387500",
          "131148.877500",
          "131150.367500",
          "131151.857500",
          "131153.347500",
          "131154.837500",
          "131156.327500",
          "131157.817500",
          "131159.307500",
          "131200.797500",
          "131202.287500",
          "131203.777500",
          "131205.267500",
          "131206.757500",
          "131208.247500",
          "131209.737500",
          "131211.227500",
          "131212.717500",
          "131214.207500",
          "131215.697500",
          "131217.187500",
          "131218.677500",
          "131220.167500",
          "131221.657500",
          "131223.147500",
          "131224.637500",
          "131226.127500",
          "131227.617500",
          "131229.107500",
          "131230.597500",
          "131232.087500",
          "131233.577500",
          "131235.067500",
          "131236.557500",
          "131238.047500",
          "131239.537500",
          "131241.027500",
          "131242.517500",
          "131244.007500",
          "131245.497500",
          "131246.987500",
          "131248.477500",
          "131249.967500",
          "131251.457500",
          "131252.947500",
          "131254.437500",
          "131255.927500",
          "131257.417500",
          "131258.907500",
          "131300.397500",
          "131301.887500",
          "131303.377500",
          "131304.867500",
          "131306.357500",
          "131307.847500",
          "131309.337500",
          "131310.827500",
          "131312.317500",
          "131313.807500",
          "131315.297500",
          "131316.787500",
          "131318.277500",
          "131319.767500",
          "131321.257500",
          "131322.747500",
          "131324.237500",
          "131325.727500",
          "131327.217500",
          "131328.707500",
          "131330.197500",
          "131331.687500",
          "131333.177500",
          "131334.667500",
          "131336.157500",
          "131337.647500",
          "131339.137500",
          "131340.627500",
          "131342.117500",
          "131343.607500",
          "131345.097500",
          "131346.587500",
          "131348.077500",
          "131349.567500",
          "131351.057500",
          "131352.547500",
          "131354.037500",
          "131355.527500",
          "131357.017500",
          "131358.507500",
          "131359.997500",
          "131401.487500",
          "131402.977500",
          "131404.467500",
          "131405.957500",
          "131407.447500",
          "131408.937500",
          "131410.427500",
          "131411.917500",
          "131413.407500",
          "131414.897500",
          "131416.387500",
          "131417.877500",
          "131419.367500",
          "131420.857500",
          "131422.347500",
          "131423.837500",
          "131425.327500",
          "131426.817500",
          "131428.307500",
          "131429.797500",
          "131431.287500",
          "131432.777500",
          "131434.267500",
          "131435.757500",
          "131437.247500",
          "131438.737500",
          "131440.227500",
          "131441.717500",
          "131443.207500",
          "131444.697500",
          "131446.187500",
          "131447.677500",
          "131449.167500",
          "131450.657500",
          "131452.147500",
          "131453.637500",
          "131455.127500",
          "131456.617500",
          "131458.107500",
          "131459.597500",
          "131501.087500",
          "131502.577500",
          "131504.067500",
          "131505.557500",
          "131507.047500",
          "131508.537500",
          "131510.027500",
          "131511.517500",
          "131513.007500",
          "131514.497500",
          "131515.987500",
          "131517.477500",
          "131518.967500",
          "131520.457500",
          "131521.947500",
          "131523.437500",
          "131524.927500",
          "131526.417500",
          "131527.907500",
          "131529.397500",
          "131530.887500",
          "131532.377500",
          "131533.867500",
          "131535.357500",
          "131536.847500",
          "131538.337500",
          "131539.827500",
          "131541.317500",
          "131542.807500",
          "131544.297500",
          "131545.787500",
          "131547.277500",
          "131548.767500",
          "131550.257500",
          "131551.747500",
          "131553.237500",
          "131554.727500",
          "131556.217500",
          "131557.707500",
          "131559.197500",
          "131600.687500",
          "131602.177500",
          "131603.667500",
          "131605.157500",
          "131606.647500",
          "131608.137500",
          "131609.627500",
          "131611.117500",
          "131612.607500",
          "131614.097500",
          "131615.587500",
          "131617.077500",
          "131618.567500",
          "131620.057500",
          "131621.547500",
          "131623.037500",
          "131624.527500",
          "131626.017500",
          "131627.507500",
          "131628.997500",
          "131630.487500",
          "131631.977500",
          "131633.467500",
          "131634.957500",
          "131636.447500",
          "131637.937500",
          "131639.427500",
          "131640.917500",
          "131642.407500",
          "131643.897500",
          "131645.387500",
          "131646.877500",
          "131648.367500",
          "131649.857500",
          "131651.347500",
          "131652.837500",
          "131654.327500",
          "131655.817500",
          "131657.307500",
          "131658.797500",
          "131700.287500",
          "131701.777500",
          "131703.267500",
          "131704.757500",
          "131706.247500",
          "131707.737500",
          "131709.227500",
          "131710.717500",
          "131712.207500",
          "131713.697500",
          "131715.187500",
          "131716.677500",
          "131718.167500",
          "131719.657500",
          "131721.147500",
          "131722.637500",
          "131724.127500",
          "131725.617500",
          "131727.107500",
          "131728.597500",
          "131730.087500",
          "131731.577500",
          "131733.067500",
          "131734.557500",
          "131736.047500",
          "131737.537500",
          "131739.027500",
          "131740.517500",
          "131742.007500",
          "131743.497500",
          "131744.987500",
          "131746.477500",
          "131747.967500",
          "131749.457500",
          "131750.947500",
          "131752.437500",
          "131753.927500",
          "131755.417500",
          "131756.907500",
          "131758.397500",
          "131759.887500",
          "131801.377500",
          "131802.867500",
          "131804.357500",
          "131805.847500",
          "131807.337500",
          "131808.827500",
          "131810.317500",
          "131811.807500",
          "131813.297500",
          "131814.787500",
          "131816.277500",
          "131817.767500",
          "131819.257500",
          "131820.747500",
          "131822.237500",
          "131823.727500",
          "131825.217500",
          "131826.707500",
          "131828.197500",
          "131829.687500",
          "131831.177500",
          "131832.667500",
          "131834.157500",
          "131835.647500",
          "131837.137500",
          "131838.627500",
          "131840.117500",
          "131841.607500",
          "131843.097500",
          "131844.587500",
          "131846.077500",
          "131847.567500",
          "131849.057500",
          "131850.547500",
          "131852.037500",
          "131853.527500",
          "131855.017500",
          "131856.507500",
          "131857.997500",
          "131859.487500",
          "131900.977500",
          "131902.467500",
          "131903.957500",
          "131905.447500",
          "131906.937500",
          "131908.427500",
          "131909.917500",
          "131911.407500",
          "131912.897500",
          "131914.387500",
          "131915.877500",
          "131917.367500",
          "131918.857500",
          "131920.347500",
          "131921.837500",
          "131923.327500",
          "131924.817500",
          "131926.307500",
          "131927.797500",
          "131929.287500",
          "131930.777500",
          "131932.267500",
          "131933.757500",
          "131935.247500",
          "131936.737500",
          "131938.227500",
          "131939.717500",
          "131941.207500",
          "131942.697500",
          "131944.187500",
          "131945.677500",
          "131947.167500",
          "131948.657500",
          "131950.147500",
          "131951.637500",
          "131953.127500",
          "131954.617500",
          "131956.107500",
          "131957.597500",
          "131959.087500",
          "132000.577500",
          "132002.067500",
          "132003.557500",
          "132005.047500",
          "132006.537500",
          "132008.027500",
          "132009.517500",
          "132011.007500",
          "132012.497500",
          "132013.987500",
          "132015.477500",
          "132016.967500",
          "132018.457500",
          "132019.947500",
          "132021.437500",
          "132022.927500",
          "132024.417500",
          "132025.907500",
          "132027.397500",
          "132028.887500",
          "132030.377500",
          "132031.867500"
        ],
        "ContentTime": [
          "131150.041000",
          "131150.045000",
          "131150.052000",
          "131150.055000",
          "131150.058000",
          "131150.061000",
          "131150.064000",
          "131150.067000",
          "131150.070000",
          "131150.073000",
          "131150.076000",
          "131150.079000",
          "131150.082000",
          "131150.085000",
          "131150.093000",
          "131150.096000",
          "131150.098000",
          "131150.101000",
          "131150.104000",
          "131150.107000",
          "131150.110000",
          "131150.113000",
          "131150.116000",
          "131150.119000",
          "131150.122000",
          "131150.125000",
          "131150.128000",
          "131150.135000",
          "131150.138000",
          "131150.141000",
          "131150.144000",
          "131150.147000",
          "131150.149000",
          "131150.152000",
          "131210.011000",
          "131210.014000",
          "131210.017000",
          "131210.020000",
          "131210.023000",
          "131210.026000",
          "131210.029000",
          "131210.032000",
          "131210.035000",
          "131210.038000",
          "131210.041000",
          "131210.044000",
          "131210.047000",
          "131210.049000",
          "131210.052000",
          "131210.055000",
          "131210.058000",
          "131210.061000",
          "131210.064000",
          "131210.069000",
          "131230.011000",
          "131230.014000",
          "131230.017000",
          "131230.020000",
          "131230.023000",
          "131230.026000",
          "131230.029000",
          "131230.032000",
          "131230.035000",
          "131230.038000",
          "131230.041000",
          "131230.044000",
          "131230.047000",
          "131230.049000",
          "131230.052000",
          "131230.055000",
          "131230.058000",
          "131230.061000",
          "131230.064000",
          "131230.067000",
          "131250.011000",
          "131250.014000",
          "131250.017000",
          "131250.020000",
          "131250.023000",
          "131250.026000",
          "131250.029000",
          "131250.032000",
          "131250.035000",
          "131250.038000",
          "131250.041000",
          "131250.044000",
          "131250.047000",
          "131250.050000",
          "131250.052000",
          "131250.056000",
          "131250.059000",
          "131250.061000",
          "131250.064000",
          "131250.067000",
          "131330.012000",
          "131330.015000",
          "131330.018000",
          "131330.021000",
          "131330.024000",
          "131330.027000",
          "131330.040000",
          "131330.043000",
          "131330.046000",
          "131330.049000",
          "131330.052000",
          "131330.055000",
          "131330.058000",
          "131330.061000",
          "131330.064000",
          "131330.067000",
          "131330.070000",
          "131330.073000",
          "131330.076000",
          "131330.079000",
          "131330.082000",
          "131330.085000",
          "131330.102000",
          "131330.105000",
          "131330.108000",
          "131330.111000",
          "131330.114000",
          "131330.117000",
          "131330.119000",
          "131330.123000",
          "131330.126000",
          "131410.012000",
          "131410.015000",
          "131410.018000",
          "131410.021000",
          "131410.024000",
          "131410.027000",
          "131410.030000",
          "131410.033000",
          "131410.036000",
          "131410.039000",
          "131410.042000",
          "131410.045000",
          "131410.048000",
          "131410.051000",
          "131410.054000",
          "131410.056000",
          "131410.060000",
          "131410.063000",
          "131410.066000",
          "131410.069000",
          "131410.072000",
          "131410.074000",
          "131410.077000",
          "131410.080000",
          "131410.089000",
          "131410.092000",
          "131410.095000",
          "131450.011000",
          "131450.014000",
          "131450.017000",
          "131450.026000",
          "131450.029000",
          "131450.032000",
          "131450.035000",
          "131450.038000",
          "131450.041000",
          "131450.044000",
          "131450.047000",
          "131450.050000",
          "131450.053000",
          "131450.056000",
          "131450.059000",
          "131450.062000",
          "131450.065000",
          "131450.068000",
          "131450.071000",
          "131450.074000",
          "131450.077000",
          "131450.079000",
          "131450.082000",
          "131450.085000",
          "131450.088000",
          "131450.091000",
          "131450.094000",
          "131530.011000",
          "131530.014000",
          "131530.017000",
          "131530.020000",
          "131530.023000",
          "131530.026000",
          "131530.029000",
          "131530.032000",
          "131530.035000",
          "131530.038000",
          "131530.041000",
          "131530.044000",
          "131530.047000",
          "131530.050000",
          "131530.053000",
          "131530.056000",
          "131530.059000",
          "131530.062000",
          "131530.065000",
          "131530.068000",
          "131530.071000",
          "131530.074000",
          "131530.077000",
          "131530.080000",
          "131530.082000",
          "131530.085000",
          "131530.088000",
          "131610.012000",
          "131610.015000",
          "131610.018000",
          "131610.021000",
          "131610.024000",
          "131610.027000",
          "131610.030000",
          "131610.033000",
          "131610.036000",
          "131610.039000",
