{
  "aor": 0.0002023246492985972,
  "aqi": 0.005312318817635271,
  "bids_meta": {
    "AcquisitionMatrixPE": 104,
    "AcquisitionNumber": 1,
    "AcquisitionTime": "12:37:19.897500",
    "BandwidthPerPixelPhaseEncode": 17.17,
    "BaseResolution": 104,
    "BodyPartExamined": "BRAIN",
    "CogAtlasID": "trm_4c898da401420",
    "ConsistencyInfo": "N4_VE11C_LATEST_20160120",
    "ConversionSoftware": "dcm2niix",
    "ConversionSoftwareVersion": "v1.0.20171215 (OpenJPEG build) GCC7.3.0",
    "DerivedVendorReportedEchoSpacing": 0.000560011,
    "DeviceSerialNumber": "167006",
    "DwellTime": 2.1e-06,
    "EchoTime": 0.037,
    "EchoTrainLength": 104,
    "EffectiveEchoSpacing": 0.000560011,
    "FlipAngle": 52,
    "ImageComments": "Unaliased_MB4_PE3_LB",
    "ImageOrientationPatientDICOM": [
      0.99635,
      0.0500898,
      -0.0691279,
      -0.0616375,
      0.982354,
      -0.17658
    ],
    "ImageType": [
      "ORIGINAL",
      "PRIMARY",
      "M",
      "MB",
      "ND",
      "MOSAIC"
    ],
    "InPlanePhaseEncodingDirectionDICOM": "COL",
    "InstitutionAddress": "Chemin_Queen-Mary_4565_Montreal_District_CA_H3W_1W5",
    "InstitutionName": "IUGM",
    "InstitutionalDepartmentName": "Department",
    "MRAcquisitionType": "2D",
    "MagneticFieldStrength": 3,
    "Manufacturer": "Siemens",
    "ManufacturersModelName": "Prisma_fit",
    "Modality": "MR",
    "MultibandAccelerationFactor": 4,
    "PartialFourier": 1,
    "PatientPosition": "HFS",
    "PercentPhaseFOV": 100,
    "PhaseEncodingDirection": "j-",
    "PhaseEncodingSteps": 104,
    "PhaseResolution": 1,
    "PixelBandwidth": 2290,
    "ProcedureStepDescription": "video5_generic",
    "ProtocolName": "func_task-wolf17",
    "PulseSequenceDetails": "%CustomerSeq%_cmrr_mbep2d_bold",
    "ReceiveCoilActiveElements": "HC1-7;NC1,2",
    "ReceiveCoilName": "HeadNeck_64",
    "ReconMatrixPE": 104,
    "RepetitionTime": 1.49,
    "SAR": 0.0309168,
    "ScanOptions": "FS",
    "ScanningSequence": "EP",
    "SequenceName": "epfid2d1_104",
    "SequenceVariant": "SK_SS",
    "SeriesDescription": "func_task-wolf17",
    "SeriesNumber": 13,
    "ShimSetting": [
      602,
      -7198,
      -8846,
      581,
      -32,
      -127,
      67,
      44
    ],
    "SliceThickness": 2,
    "SliceTiming": [
      0,
      0.785,
      0.0975,
      0.8825,
      0.1975,
      0.98,
      0.295,
      1.0775,
      0.3925,
      1.1775,
      0.49,
      1.275,
      0.5875,
      1.3725,
      0.6875,
      0,
      0.785,
      0.0975,
      0.8825,
      0.1975,
      0.98,
      0.295,
      1.0775,
      0.3925,
      1.1775,
      0.49,
      1.275,
      0.5875,
      1.3725,
      0.6875,
      0,
      0.785,
      0.0975,
      0.8825,
      0.1975,
      0.98,
      0.295,
      1.0775,
      0.3925,
      1.1775,
      0.49,
      1.275,
      0.5875,
      1.3725,
      0.6875,
      0,
      0.785,
      0.0975,
      0.8825,
      0.1975,
      0.98,
      0.295,
      1.0775,
      0.3925,
      1.1775,
      0.49,
      1.275,
      0.5875,
      1.3725,
      0.6875
    ],
    "SoftwareVersions": "syngo_MR_E11",
    "SpacingBetweenSlices": 2,
    "StationName": "MRC35049",
    "TaskName": "wolf17",
    "TotalReadoutTime": 0.0576811,
    "TxRefAmp": 214.372,
    "dataset": "<unset>",
    "dcmmeta_affine": [
      [
        -1.9926990270614624,
        -0.12327507883310318,
        -0.11812645941972733,
        110.50194549560547
      ],
      [
        -0.10017953813076019,
        1.9647088050842285,
        -0.3603931665420532,
        -68.81082153320312
      ],
      [
        -0.1382557898759842,
        0.3531606197357178,
        1.9637116193771362,
        -46.720218658447266
      ],
      [
        0.0,
        0.0,
        0.0,
        1.0
      ]
    ],
    "dcmmeta_reorient_transform": [
      [
        0.0,
        -1.0,
        0.0,
        103.0
      ],
      [
        1.0,
        0.0,
        0.0,
        0.0
      ],
      [
        0.0,
        0.0,
        1.0,
        0.0
      ],
      [
        0.0,
        0.0,
        0.0,
        1.0
      ]
    ],
    "dcmmeta_shape": [
      104,
      104,
      60,
      501
    ],
    "dcmmeta_slice_dim": 2,
    "dcmmeta_version": 0.6,
    "global": {
      "const": {
        "AcquisitionMatrix": [
          104,
          0,
          0,
          104
        ],
        "AngioFlag": "N",
        "BitsAllocated": 16,
        "BitsStored": 16,
        "BodyPartExamined": "BRAIN",
        "Columns": 832,
        "EchoNumbers": 1,
        "EchoTime": 37.0,
        "EchoTrainLength": 104,
        "FlipAngle": 52.0,
        "HighBit": 15,
        "ImageOrientationPatient": [
          0.99634951129359,
          0.05008977051594,
          -0.0691278976585,
          -0.0616375401774,
          0.98235442082619,
          -0.1765803089932
        ],
        "ImagePositionPatient": [
          -778.27492965175,
          -885.17355987243,
          168.53090106036
        ],
        "ImageType": [
          "ORIGINAL",
          "PRIMARY",
          "M",
          "MB",
          "ND",
          "MOSAIC"
        ],
        "ImagedNucleus": "1H",
        "ImagingFrequency": 123.259191,
        "InPlanePhaseEncodingDirection": "COL",
        "MRAcquisitionType": "2D",
        "MagneticFieldStrength": 3.0,
        "Manufacturer": "SIEMENS",
        "ManufacturerModelName": "Prisma_fit",
        "Modality": "MR",
        "NumberOfAverages": 1.0,
        "NumberOfPhaseEncodingSteps": 104,
        "PercentPhaseFieldOfView": 100.0,
        "PercentSampling": 100.0,
        "PerformedProcedureStepStartTime": "115909.453000",
        "PhotometricInterpretation": "MONOCHROME2",
        "PixelBandwidth": 2290.0,
        "PixelRepresentation": 0,
        "PixelSpacing": [
          2.0,
          2.0
        ],
        "ProtocolName": "func_task-wolf17",
        "RepetitionTime": 1490.0,
        "Rows": 832,
        "SAR": 0.03091683685211,
        "SamplesPerPixel": 1,
        "ScanOptions": "FS",
        "ScanningSequence": "EP",
        "SequenceName": "epfid2d1_104",
        "SequenceVariant": [
          "SK",
          "SS"
        ],
        "SeriesDescription": "func_task-wolf17",
        "SeriesNumber": 13,
        "SeriesTime": "123830.035000",
        "SliceLocation": -39.999641221299,
        "SliceThickness": 2.0,
        "SmallestImagePixelValue": 0,
        "SoftwareVersions": "syngo MR E11",
        "SpacingBetweenSlices": 2.000000047914,
        "SpecificCharacterSet": "ISO_IR 100",
        "StudyID": "1",
        "StudyTime": "115909.383000",
        "TransmitCoilName": "Body",
        "VariableFlipAngleFlag": "N",
        "WindowCenterWidthExplanation": "Algo1",
        "dBdt": 0.0
      },
      "slices": {}
    },
    "modality": "bold",
    "session_id": "004",
    "subject_id": "04",
    "task_id": "wolf17",
    "time": {
      "samples": {
        "AcquisitionNumber": [
          1,
          2,
          3,
          4,
          5,
          6,
          7,
          8,
          9,
          10,
          11,
          12,
          13,
          14,
          15,
          16,
          17,
          18,
          19,
          20,
          21,
          22,
          23,
          24,
          25,
          26,
          27,
          28,
          29,
          30,
          31,
          32,
          33,
          34,
          35,
          36,
          37,
          38,
          39,
          40,
          41,
          42,
          43,
          44,
          45,
          46,
          47,
          48,
          49,
          50,
          51,
          52,
          53,
          54,
          55,
          56,
          57,
          58,
          59,
          60,
          61,
          62,
          63,
          64,
          65,
          66,
          67,
          68,
          69,
          70,
          71,
          72,
          73,
          74,
          75,
          76,
          77,
          78,
          79,
          80,
          81,
          82,
          83,
          84,
          85,
          86,
          87,
          88,
          89,
          90,
          91,
          92,
          93,
          94,
          95,
          96,
          97,
          98,
          99,
          100,
          101,
          102,
          103,
          104,
          105,
          106,
          107,
          108,
          109,
          110,
          111,
          112,
          113,
          114,
          115,
          116,
          117,
          118,
          119,
          120,
          121,
          122,
          123,
          124,
          125,
          126,
          127,
          128,
          129,
          130,
          131,
          132,
          133,
          134,
          135,
          136,
          137,
          138,
          139,
          140,
          141,
          142,
          143,
          144,
          145,
          146,
          147,
          148,
          149,
          150,
          151,
          152,
          153,
          154,
          155,
          156,
          157,
          158,
          159,
          160,
          161,
          162,
          163,
          164,
          165,
          166,
          167,
          168,
          169,
          170,
          171,
          172,
          173,
          174,
          175,
          176,
          177,
          178,
          179,
          180,
          181,
          182,
          183,
          184,
          185,
          186,
          187,
          188,
          189,
          190,
          191,
          192,
          193,
          194,
          195,
          196,
          197,
          198,
          199,
          200,
          201,
          202,
          203,
          204,
          205,
          206,
          207,
          208,
          209,
          210,
          211,
          212,
          213,
          214,
          215,
          216,
          217,
          218,
          219,
          220,
          221,
          222,
          223,
          224,
          225,
          226,
          227,
          228,
          229,
          230,
          231,
          232,
          233,
          234,
          235,
          236,
          237,
          238,
          239,
          240,
          241,
          242,
          243,
          244,
          245,
          246,
          247,
          248,
          249,
          250,
          251,
          252,
          253,
          254,
          255,
          256,
          257,
          258,
          259,
          260,
          261,
          262,
          263,
          264,
          265,
          266,
          267,
          268,
          269,
          270,
          271,
          272,
          273,
          274,
          275,
          276,
          277,
          278,
          279,
          280,
          281,
          282,
          283,
          284,
          285,
          286,
          287,
          288,
          289,
          290,
          291,
          292,
          293,
          294,
          295,
          296,
          297,
          298,
          299,
          300,
          301,
          302,
          303,
          304,
          305,
          306,
          307,
          308,
          309,
          310,
          311,
          312,
          313,
          314,
          315,
          316,
          317,
          318,
          319,
          320,
          321,
          322,
          323,
          324,
          325,
          326,
          327,
          328,
          329,
          330,
          331,
          332,
          333,
          334,
          335,
          336,
          337,
          338,
          339,
          340,
          341,
          342,
          343,
          344,
          345,
          346,
          347,
          348,
          349,
          350,
          351,
          352,
          353,
          354,
          355,
          356,
          357,
          358,
          359,
          360,
          361,
          362,
          363,
          364,
          365,
          366,
          367,
          368,
          369,
          370,
          371,
          372,
          373,
          374,
          375,
          376,
          377,
          378,
          379,
          380,
          381,
          382,
          383,
          384,
          385,
          386,
          387,
          388,
          389,
          390,
          391,
          392,
          393,
          394,
          395,
          396,
          397,
          398,
          399,
          400,
          401,
          402,
          403,
          404,
          405,
          406,
          407,
          408,
          409,
          410,
          411,
          412,
          413,
          414,
          415,
          416,
          417,
          418,
          419,
          420,
          421,
          422,
          423,
          424,
          425,
          426,
          427,
          428,
          429,
          430,
          431,
          432,
          433,
          434,
          435,
          436,
          437,
          438,
          439,
          440,
          441,
          442,
          443,
          444,
          445,
          446,
          447,
          448,
          449,
          450,
          451,
          452,
          453,
          454,
          455,
          456,
          457,
          458,
          459,
          460,
          461,
          462,
          463,
          464,
          465,
          466,
          467,
          468,
          469,
          470,
          471,
          472,
          473,
          474,
          475,
          476,
          477,
          478,
          479,
          480,
          481,
          482,
          483,
          484,
          485,
          486,
          487,
          488,
          489,
          490,
          491,
          492,
          493,
          494,
          495,
          496,
          497,
          498,
          499,
          500,
          501
        ],
        "AcquisitionTime": [
          "123719.897500",
          "123721.387500",
          "123722.877500",
          "123724.367500",
          "123725.857500",
          "123727.347500",
          "123728.837500",
          "123730.327500",
          "123731.817500",
          "123733.307500",
          "123734.797500",
          "123736.287500",
          "123737.777500",
          "123739.267500",
          "123740.757500",
          "123742.247500",
          "123743.737500",
          "123745.227500",
          "123746.717500",
          "123748.207500",
          "123749.697500",
          "123751.187500",
          "123752.677500",
          "123754.167500",
          "123755.657500",
          "123757.147500",
          "123758.637500",
          "123800.127500",
          "123801.617500",
          "123803.107500",
          "123804.597500",
          "123806.087500",
          "123807.577500",
          "123809.067500",
          "123810.557500",
          "123812.047500",
          "123813.537500",
          "123815.027500",
          "123816.517500",
          "123818.007500",
          "123819.497500",
          "123820.987500",
          "123822.477500",
          "123823.967500",
          "123825.457500",
          "123826.947500",
          "123828.437500",
          "123829.927500",
          "123831.417500",
          "123832.907500",
          "123834.397500",
          "123835.887500",
          "123837.377500",
          "123838.867500",
          "123840.357500",
          "123841.847500",
          "123843.337500",
          "123844.827500",
          "123846.317500",
          "123847.807500",
          "123849.297500",
          "123850.787500",
          "123852.277500",
          "123853.767500",
          "123855.257500",
          "123856.747500",
          "123858.237500",
          "123859.727500",
          "123901.217500",
          "123902.707500",
          "123904.197500",
          "123905.687500",
          "123907.177500",
          "123908.667500",
          "123910.157500",
          "123911.647500",
          "123913.137500",
          "123914.627500",
          "123916.117500",
          "123917.607500",
          "123919.097500",
          "123920.587500",
          "123922.077500",
          "123923.567500",
          "123925.057500",
          "123926.547500",
          "123928.037500",
          "123929.527500",
          "123931.017500",
          "123932.507500",
          "123933.997500",
          "123935.487500",
          "123936.977500",
          "123938.467500",
          "123939.957500",
          "123941.447500",
          "123942.937500",
          "123944.427500",
          "123945.917500",
          "123947.407500",
          "123948.897500",
          "123950.387500",
          "123951.877500",
          "123953.367500",
          "123954.857500",
          "123956.347500",
          "123957.837500",
          "123959.327500",
          "124000.817500",
          "124002.307500",
          "124003.797500",
          "124005.287500",
          "124006.777500",
          "124008.267500",
          "124009.757500",
          "124011.247500",
          "124012.737500",
          "124014.227500",
          "124015.717500",
          "124017.207500",
          "124018.697500",
          "124020.187500",
          "124021.677500",
          "124023.167500",
          "124024.657500",
          "124026.147500",
          "124027.637500",
          "124029.127500",
          "124030.617500",
          "124032.107500",
          "124033.597500",
          "124035.087500",
          "124036.577500",
          "124038.067500",
          "124039.557500",
          "124041.047500",
          "124042.537500",
          "124044.027500",
          "124045.517500",
          "124047.007500",
          "124048.497500",
          "124049.987500",
          "124051.477500",
          "124052.967500",
          "124054.457500",
          "124055.947500",
          "124057.437500",
          "124058.927500",
          "124100.417500",
          "124101.907500",
          "124103.397500",
          "124104.887500",
          "124106.377500",
          "124107.867500",
          "124109.357500",
          "124110.847500",
          "124112.337500",
          "124113.827500",
          "124115.317500",
          "124116.807500",
          "124118.297500",
          "124119.787500",
          "124121.277500",
          "124122.767500",
          "124124.257500",
          "124125.747500",
          "124127.237500",
          "124128.727500",
          "124130.217500",
          "124131.707500",
          "124133.197500",
          "124134.687500",
          "124136.177500",
          "124137.667500",
          "124139.157500",
          "124140.647500",
          "124142.137500",
          "124143.627500",
          "124145.117500",
          "124146.607500",
          "124148.097500",
          "124149.587500",
          "124151.077500",
          "124152.567500",
          "124154.057500",
          "124155.547500",
          "124157.037500",
          "124158.527500",
          "124200.017500",
          "124201.507500",
          "124202.997500",
          "124204.487500",
          "124205.977500",
          "124207.467500",
          "124208.957500",
          "124210.447500",
          "124211.937500",
          "124213.427500",
          "124214.917500",
          "124216.407500",
          "124217.897500",
          "124219.387500",
          "124220.877500",
          "124222.367500",
          "124223.857500",
          "124225.347500",
          "124226.837500",
          "124228.327500",
          "124229.817500",
          "124231.307500",
          "124232.797500",
          "124234.287500",
          "124235.777500",
          "124237.267500",
          "124238.757500",
          "124240.247500",
          "124241.737500",
          "124243.227500",
          "124244.717500",
          "124246.207500",
          "124247.697500",
          "124249.187500",
          "124250.677500",
          "124252.167500",
          "124253.657500",
          "124255.147500",
          "124256.637500",
          "124258.127500",
          "124259.617500",
          "124301.107500",
          "124302.597500",
          "124304.087500",
          "124305.577500",
          "124307.067500",
          "124308.557500",
          "124310.047500",
          "124311.537500",
          "124313.027500",
          "124314.517500",
          "124316.007500",
          "124317.497500",
          "124318.987500",
          "124320.477500",
          "124321.967500",
          "124323.457500",
          "124324.947500",
          "124326.437500",
          "124327.927500",
          "124329.417500",
          "124330.907500",
          "124332.397500",
          "124333.887500",
          "124335.377500",
          "124336.867500",
          "124338.357500",
          "124339.847500",
          "124341.337500",
          "124342.827500",
          "124344.317500",
          "124345.807500",
          "124347.297500",
          "124348.787500",
          "124350.277500",
          "124351.767500",
          "124353.257500",
          "124354.747500",
          "124356.237500",
          "124357.727500",
          "124359.217500",
          "124400.707500",
          "124402.197500",
          "124403.687500",
          "124405.177500",
          "124406.667500",
          "124408.157500",
          "124409.647500",
          "124411.137500",
          "124412.627500",
          "124414.117500",
          "124415.607500",
          "124417.097500",
          "124418.587500",
          "124420.077500",
          "124421.567500",
          "124423.057500",
          "124424.547500",
          "124426.037500",
          "124427.527500",
          "124429.017500",
          "124430.507500",
          "124431.997500",
          "124433.487500",
          "124434.977500",
          "124436.467500",
          "124437.957500",
          "124439.447500",
          "124440.937500",
          "124442.427500",
          "124443.917500",
          "124445.407500",
          "124446.897500",
          "124448.387500",
          "124449.877500",
          "124451.367500",
          "124452.857500",
          "124454.347500",
          "124455.837500",
          "124457.327500",
          "124458.817500",
          "124500.307500",
          "124501.797500",
          "124503.287500",
          "124504.777500",
          "124506.267500",
          "124507.757500",
          "124509.247500",
          "124510.737500",
          "124512.227500",
          "124513.717500",
          "124515.207500",
          "124516.697500",
          "124518.187500",
          "124519.677500",
          "124521.167500",
          "124522.657500",
          "124524.147500",
          "124525.637500",
          "124527.127500",
          "124528.617500",
          "124530.107500",
          "124531.597500",
          "124533.087500",
          "124534.577500",
          "124536.067500",
          "124537.557500",
          "124539.047500",
          "124540.537500",
          "124542.027500",
          "124543.517500",
          "124545.007500",
          "124546.497500",
          "124547.987500",
          "124549.477500",
          "124550.967500",
          "124552.457500",
          "124553.947500",
          "124555.437500",
          "124556.927500",
          "124558.417500",
          "124559.907500",
          "124601.397500",
          "124602.887500",
          "124604.377500",
          "124605.867500",
          "124607.357500",
          "124608.847500",
          "124610.337500",
          "124611.827500",
          "124613.317500",
          "124614.807500",
          "124616.297500",
          "124617.787500",
          "124619.277500",
          "124620.767500",
          "124622.257500",
          "124623.747500",
          "124625.237500",
          "124626.727500",
          "124628.217500",
          "124629.707500",
          "124631.197500",
          "124632.687500",
          "124634.177500",
          "124635.667500",
          "124637.157500",
          "124638.647500",
          "124640.137500",
          "124641.627500",
          "124643.117500",
          "124644.607500",
          "124646.097500",
          "124647.587500",
          "124649.077500",
          "124650.567500",
          "124652.057500",
          "124653.547500",
          "124655.037500",
          "124656.527500",
          "124658.017500",
          "124659.507500",
          "124700.997500",
          "124702.487500",
          "124703.977500",
          "124705.467500",
          "124706.957500",
          "124708.447500",
          "124709.937500",
          "124711.427500",
          "124712.917500",
          "124714.407500",
          "124715.897500",
          "124717.387500",
          "124718.877500",
          "124720.367500",
          "124721.857500",
          "124723.347500",
          "124724.837500",
          "124726.327500",
          "124727.817500",
          "124729.307500",
          "124730.797500",
          "124732.287500",
          "124733.777500",
          "124735.267500",
          "124736.757500",
          "124738.247500",
          "124739.737500",
          "124741.227500",
          "124742.717500",
          "124744.207500",
          "124745.697500",
          "124747.187500",
          "124748.677500",
          "124750.167500",
          "124751.657500",
          "124753.147500",
          "124754.637500",
          "124756.127500",
          "124757.617500",
          "124759.107500",
          "124800.597500",
          "124802.087500",
          "124803.577500",
          "124805.067500",
          "124806.557500",
          "124808.047500",
          "124809.537500",
          "124811.027500",
          "124812.517500",
          "124814.007500",
          "124815.497500",
          "124816.987500",
          "124818.477500",
          "124819.967500",
          "124821.457500",
          "124822.947500",
          "124824.437500",
          "124825.927500",
          "124827.417500",
          "124828.907500",
          "124830.397500",
          "124831.887500",
          "124833.377500",
          "124834.867500",
          "124836.357500",
          "124837.847500",
          "124839.337500",
          "124840.827500",
          "124842.317500",
          "124843.807500",
          "124845.297500",
          "124846.787500",
          "124848.277500",
          "124849.767500",
          "124851.257500",
          "124852.747500",
          "124854.237500",
          "124855.727500",
          "124857.217500",
          "124858.707500",
          "124900.197500",
          "124901.687500",
          "124903.177500",
          "124904.667500",
          "124906.157500",
          "124907.647500",
          "124909.137500",
          "124910.627500",
          "124912.117500",
          "124913.607500",
          "124915.097500",
          "124916.587500",
          "124918.077500",
          "124919.567500",
          "124921.057500",
          "124922.547500",
          "124924.037500",
          "124925.527500",
          "124927.017500",
          "124928.507500",
          "124929.997500",
          "124931.487500",
          "124932.977500",
          "124934.467500",
          "124935.957500",
          "124937.447500",
          "124938.937500",
          "124940.427500",
          "124941.917500",
          "124943.407500",
          "124944.897500"
        ],
        "ContentTime": [
          "123830.038000",
          "123830.047000",
          "123830.049000",
          "123830.052000",
          "123830.055000",
          "123830.058000",
          "123830.061000",
          "123830.064000",
          "123830.070000",
          "123830.073000",
          "123830.076000",
          "123830.089000",
          "123830.091000",
          "123830.094000",
          "123830.097000",
          "123830.100000",
          "123830.103000",
          "123850.012000",
          "123850.015000",
          "123850.018000",
          "123850.021000",
          "123850.024000",
          "123850.027000",
          "123850.030000",
          "123850.033000",
          "123850.036000",
          "123850.039000",
          "123850.042000",
          "123850.045000",
          "123850.048000",
          "123850.050000",
          "123850.053000",
          "123850.056000",
          "123850.059000",
          "123850.062000",
          "123850.065000",
          "123850.068000",
          "123910.012000",
          "123910.015000",
          "123910.018000",
          "123910.021000",
          "123910.024000",
          "123910.027000",
          "123910.030000",
          "123910.046000",
          "123910.049000",
          "123910.052000",
          "123910.056000",
          "123910.059000",
          "123910.062000",
          "123910.070000",
          "123910.073000",
          "123910.076000",
          "123910.079000",
          "123910.082000",
          "123910.085000",
          "123910.088000",
          "123930.012000",
          "123930.018000",
          "123930.021000",
          "123930.023000",
          "123930.026000",
          "123930.029000",
          "123930.032000",
          "123930.035000",
          "123930.038000",
          "123930.041000",
          "123930.044000",
          "123930.047000",
          "123930.050000",
          "123930.053000",
          "123930.056000",
          "123930.059000",
          "123930.062000",
          "123930.065000",
