{
  "aor": 0.0004916136919315403,
  "aqi": 0.008574609926650366,
  "bids_meta": {
    "AcquisitionMatrixPE": 104,
    "AcquisitionNumber": 1,
    "AcquisitionTime": "18:08:56.882500",
    "BandwidthPerPixelPhaseEncode": 17.17,
    "BaseResolution": 104,
    "BodyPartExamined": "BRAIN",
    "CogAtlasID": "trm_4c898da401420",
    "ConsistencyInfo": "N4_VE11C_LATEST_20160120",
    "ConversionSoftware": "dcm2niix",
    "ConversionSoftwareVersion": "v1.0.20171215 (OpenJPEG build) GCC7.3.0",
    "DerivedVendorReportedEchoSpacing": 0.000560011,
    "DeviceSerialNumber": "167006",
    "DwellTime": 2.1e-06,
    "EchoTime": 0.037,
    "EchoTrainLength": 104,
    "EffectiveEchoSpacing": 0.000560011,
    "FlipAngle": 52,
    "ImageComments": "Unaliased_MB4_PE3_LB",
    "ImageOrientationPatientDICOM": [
      0.998828,
      0.0200682,
      -0.0440425,
      -0.0341817,
      0.936734,
      -0.348369
    ],
    "ImageType": [
      "ORIGINAL",
      "PRIMARY",
      "M",
      "MB",
      "ND",
      "MOSAIC"
    ],
    "InPlanePhaseEncodingDirectionDICOM": "COL",
    "InstitutionAddress": "Chemin_Queen-Mary_4565_Montreal_District_CA_H3W_1W5",
    "InstitutionName": "IUGM",
    "InstitutionalDepartmentName": "Department",
    "MRAcquisitionType": "2D",
    "MagneticFieldStrength": 3,
    "Manufacturer": "Siemens",
    "ManufacturersModelName": "Prisma_fit",
    "Modality": "MR",
    "MultibandAccelerationFactor": 4,
    "PartialFourier": 1,
    "PatientPosition": "HFS",
    "PercentPhaseFOV": 100,
    "PhaseEncodingDirection": "j-",
    "PhaseEncodingSteps": 104,
    "PhaseResolution": 1,
    "PixelBandwidth": 2290,
    "ProcedureStepDescription": "video5_generic",
    "ProtocolName": "func_task-figures6",
    "PulseSequenceDetails": "%CustomerSeq%_cmrr_mbep2d_bold",
    "ReceiveCoilActiveElements": "HC1-7;NC1,2",
    "ReceiveCoilName": "HeadNeck_64",
    "ReconMatrixPE": 104,
    "RepetitionTime": 1.49,
    "SAR": 0.0345628,
    "ScanOptions": "FS",
    "ScanningSequence": "EP",
    "SequenceName": "epfid2d1_104",
    "SequenceVariant": "SK_SS",
    "SeriesDescription": "func_task-figures6",
    "SeriesNumber": 7,
    "ShimSetting": [
      610,
      -7226,
      -8876,
      393,
      34,
      -350,
      -3,
      44
    ],
    "SliceThickness": 2,
    "SliceTiming": [
      0,
      0.785,
      0.0975,
      0.8825,
      0.1975,
      0.98,
      0.295,
      1.0775,
      0.3925,
      1.175,
      0.49,
      1.275,
      0.5875,
      1.3725,
      0.6875,
      0,
      0.785,
      0.0975,
      0.8825,
      0.1975,
      0.98,
      0.295,
      1.0775,
      0.3925,
      1.175,
      0.49,
      1.275,
      0.5875,
      1.3725,
      0.6875,
      0,
      0.785,
      0.0975,
      0.8825,
      0.1975,
      0.98,
      0.295,
      1.0775,
      0.3925,
      1.175,
      0.49,
      1.275,
      0.5875,
      1.3725,
      0.6875,
      0,
      0.785,
      0.0975,
      0.8825,
      0.1975,
      0.98,
      0.295,
      1.0775,
      0.3925,
      1.175,
      0.49,
      1.275,
      0.5875,
      1.3725,
      0.6875
    ],
    "SoftwareVersions": "syngo_MR_E11",
    "SpacingBetweenSlices": 2,
    "StationName": "MRC35049",
    "TaskName": "figures06",
    "TotalReadoutTime": 0.0576811,
    "TxRefAmp": 239.607,
    "dataset": "<unset>",
    "dcmmeta_affine": [
      [
        -1.9976561069488525,
        -0.06836330890655518,
        -0.06852997094392776,
        107.926025390625
      ],
      [
        -0.04013632982969284,
        1.8734678030014038,
        -0.6989331841468811,
        -67.76710510253906
      ],
      [
        -0.08808504045009613,
        0.6967388391494751,
        1.8726441860198975,
        -80.17241668701172
      ],
      [
        0.0,
        0.0,
        0.0,
        1.0
      ]
    ],
    "dcmmeta_reorient_transform": [
      [
        0.0,
        -1.0,
        0.0,
        103.0
      ],
      [
        1.0,
        0.0,
        0.0,
        0.0
      ],
      [
        0.0,
        0.0,
        1.0,
        0.0
      ],
      [
        0.0,
        0.0,
        0.0,
        1.0
      ]
    ],
    "dcmmeta_shape": [
      104,
      104,
      60,
      410
    ],
    "dcmmeta_slice_dim": 2,
    "dcmmeta_version": 0.6,
    "global": {
      "const": {
        "AcquisitionMatrix": [
          104,
          0,
          0,
          104
        ],
        "AngioFlag": "N",
        "BitsAllocated": 16,
        "BitsStored": 16,
        "BodyPartExamined": "BRAIN",
        "Columns": 832,
        "EchoNumbers": 1,
        "EchoTime": 37.0,
        "EchoTrainLength": 104,
        "FlipAngle": 52.0,
        "HighBit": 15,
        "ImageOrientationPatient": [
          0.99882807590253,
          0.02006816565552,
          -0.0440425194112,
          -0.0341816557992,
          0.93673388109802,
          -0.3483694165823
        ],
        "ImagePositionPatient": [
          -803.14720018377,
          -821.75196799905,
          277.26756875922
        ],
        "ImageType": [
          "ORIGINAL",
          "PRIMARY",
          "M",
          "MB",
          "ND",
          "MOSAIC"
        ],
        "ImagedNucleus": "1H",
        "ImagingFrequency": 123.259218,
        "InPlanePhaseEncodingDirection": "COL",
        "MRAcquisitionType": "2D",
        "MagneticFieldStrength": 3.0,
        "Manufacturer": "SIEMENS",
        "ManufacturerModelName": "Prisma_fit",
        "Modality": "MR",
        "NumberOfAverages": 1.0,
        "NumberOfPhaseEncodingSteps": 104,
        "PercentPhaseFieldOfView": 100.0,
        "PercentSampling": 100.0,
        "PerformedProcedureStepStartTime": "174706.117000",
        "PhotometricInterpretation": "MONOCHROME2",
        "PixelBandwidth": 2290.0,
        "PixelRepresentation": 0,
        "PixelSpacing": [
          2.0,
          2.0
        ],
        "ProtocolName": "func_task-figures6",
        "RepetitionTime": 1490.0,
        "Rows": 832,
        "SAR": 0.0345628064105,
        "SamplesPerPixel": 1,
        "ScanOptions": "FS",
        "ScanningSequence": "EP",
        "SequenceName": "epfid2d1_104",
        "SequenceVariant": [
          "SK",
          "SS"
        ],
        "SeriesDescription": "func_task-figures6",
        "SeriesNumber": 7,
        "SeriesTime": "181018.419000",
        "SliceLocation": -55.082951258592,
        "SliceThickness": 2.0,
        "SmallestImagePixelValue": 0,
        "SoftwareVersions": "syngo MR E11",
        "SpacingBetweenSlices": 2.0000000048292,
        "SpecificCharacterSet": "ISO_IR 100",
        "StudyID": "1",
        "StudyTime": "174706.054000",
        "TransmitCoilName": "Body",
        "VariableFlipAngleFlag": "N",
        "WindowCenterWidthExplanation": "Algo1",
        "dBdt": 0.0
      },
      "slices": {}
    },
    "modality": "bold",
    "run_id": 1,
    "session_id": "003",
    "subject_id": "05",
    "task_id": "figures06",
    "time": {
      "samples": {
        "AcquisitionNumber": [
          1,
          2,
          3,
          4,
          5,
          6,
          7,
          8,
          9,
          10,
          11,
          12,
          13,
          14,
          15,
          16,
          17,
          18,
          19,
          20,
          21,
          22,
          23,
          24,
          25,
          26,
          27,
          28,
          29,
          30,
          31,
          32,
          33,
          34,
          35,
          36,
          37,
          38,
          39,
          40,
          41,
          42,
          43,
          44,
          45,
          46,
          47,
          48,
          49,
          50,
          51,
          52,
          53,
          54,
          55,
          56,
          57,
          58,
          59,
          60,
          61,
          62,
          63,
          64,
          65,
          66,
          67,
          68,
          69,
          70,
          71,
          72,
          73,
          74,
          75,
          76,
          77,
          78,
          79,
          80,
          81,
          82,
          83,
          84,
          85,
          86,
          87,
          88,
          89,
          90,
          91,
          92,
          93,
          94,
          95,
          96,
          97,
          98,
          99,
          100,
          101,
          102,
          103,
          104,
          105,
          106,
          107,
          108,
          109,
          110,
          111,
          112,
          113,
          114,
          115,
          116,
          117,
          118,
          119,
          120,
          121,
          122,
          123,
          124,
          125,
          126,
          127,
          128,
          129,
          130,
          131,
          132,
          133,
          134,
          135,
          136,
          137,
          138,
          139,
          140,
          141,
          142,
          143,
          144,
          145,
          146,
          147,
          148,
          149,
          150,
          151,
          152,
          153,
          154,
          155,
          156,
          157,
          158,
          159,
          160,
          161,
          162,
          163,
          164,
          165,
          166,
          167,
          168,
          169,
          170,
          171,
          172,
          173,
          174,
          175,
          176,
          177,
          178,
          179,
          180,
          181,
          182,
          183,
          184,
          185,
          186,
          187,
          188,
          189,
          190,
          191,
          192,
          193,
          194,
          195,
          196,
          197,
          198,
          199,
          200,
          201,
          202,
          203,
          204,
          205,
          206,
          207,
          208,
          209,
          210,
          211,
          212,
          213,
          214,
          215,
          216,
          217,
          218,
          219,
          220,
          221,
          222,
          223,
          224,
          225,
          226,
          227,
          228,
          229,
          230,
          231,
          232,
          233,
          234,
          235,
          236,
          237,
          238,
          239,
          240,
          241,
          242,
          243,
          244,
          245,
          246,
          247,
          248,
          249,
          250,
          251,
          252,
          253,
          254,
          255,
          256,
          257,
          258,
          259,
          260,
          261,
          262,
          263,
          264,
          265,
          266,
          267,
          268,
          269,
          270,
          271,
          272,
          273,
          274,
          275,
          276,
          277,
          278,
          279,
          280,
          281,
          282,
          283,
          284,
          285,
          286,
          287,
          288,
          289,
          290,
          291,
          292,
          293,
          294,
          295,
          296,
          297,
          298,
          299,
          300,
          301,
          302,
          303,
          304,
          305,
          306,
          307,
          308,
          309,
          310,
          311,
          312,
          313,
          314,
          315,
          316,
          317,
          318,
          319,
          320,
          321,
          322,
          323,
          324,
          325,
          326,
          327,
          328,
          329,
          330,
          331,
          332,
          333,
          334,
          335,
          336,
          337,
          338,
          339,
          340,
          341,
          342,
          343,
          344,
          345,
          346,
          347,
          348,
          349,
          350,
          351,
          352,
          353,
          354,
          355,
          356,
          357,
          358,
          359,
          360,
          361,
          362,
          363,
          364,
          365,
          366,
          367,
          368,
          369,
          370,
          371,
          372,
          373,
          374,
          375,
          376,
          377,
          378,
          379,
          380,
          381,
          382,
          383,
          384,
          385,
          386,
          387,
          388,
          389,
          390,
          391,
          392,
          393,
          394,
          395,
          396,
          397,
          398,
          399,
          400,
          401,
          402,
          403,
          404,
          405,
          406,
          407,
          408,
          409,
          410
        ],
        "AcquisitionTime": [
          "180856.882500",
          "180858.372500",
          "180859.862500",
          "180901.352500",
          "180902.842500",
          "180904.332500",
          "180905.822500",
          "180907.312500",
          "180908.802500",
          "180910.292500",
          "180911.782500",
          "180913.272500",
          "180914.762500",
          "180916.252500",
          "180917.742500",
          "180919.232500",
          "180920.722500",
          "180922.212500",
          "180923.702500",
          "180925.192500",
          "180926.682500",
          "180928.172500",
          "180929.662500",
          "180931.152500",
          "180932.642500",
          "180934.132500",
          "180935.622500",
          "180937.112500",
          "180938.602500",
          "180940.092500",
          "180941.582500",
          "180943.072500",
          "180944.562500",
          "180946.052500",
          "180947.542500",
          "180949.032500",
          "180950.522500",
          "180952.012500",
          "180953.502500",
          "180954.992500",
          "180956.482500",
          "180957.972500",
          "180959.462500",
          "181000.952500",
          "181002.442500",
          "181003.932500",
          "181005.422500",
          "181006.912500",
          "181008.402500",
          "181009.892500",
          "181011.382500",
          "181012.872500",
          "181014.362500",
          "181015.852500",
          "181017.342500",
          "181018.832500",
          "181020.322500",
          "181021.812500",
          "181023.302500",
          "181024.792500",
          "181026.282500",
          "181027.772500",
          "181029.262500",
          "181030.752500",
          "181032.242500",
          "181033.732500",
          "181035.222500",
          "181036.712500",
          "181038.202500",
          "181039.692500",
          "181041.182500",
          "181042.672500",
          "181044.162500",
          "181045.652500",
          "181047.142500",
          "181048.632500",
          "181050.122500",
          "181051.612500",
          "181053.102500",
          "181054.592500",
          "181056.082500",
          "181057.572500",
          "181059.062500",
          "181100.552500",
          "181102.042500",
          "181103.532500",
          "181105.022500",
          "181106.512500",
          "181108.002500",
          "181109.492500",
          "181110.982500",
          "181112.472500",
          "181113.962500",
          "181115.452500",
          "181116.942500",
          "181118.432500",
          "181119.922500",
          "181121.412500",
          "181122.902500",
          "181124.392500",
          "181125.882500",
          "181127.372500",
          "181128.862500",
          "181130.352500",
          "181131.842500",
          "181133.332500",
          "181134.822500",
          "181136.312500",
          "181137.802500",
          "181139.292500",
          "181140.782500",
          "181142.272500",
          "181143.762500",
          "181145.252500",
          "181146.742500",
          "181148.232500",
          "181149.722500",
          "181151.212500",
          "181152.702500",
          "181154.192500",
          "181155.682500",
          "181157.172500",
          "181158.662500",
          "181200.152500",
          "181201.642500",
          "181203.132500",
          "181204.622500",
          "181206.112500",
          "181207.602500",
          "181209.092500",
          "181210.582500",
          "181212.072500",
          "181213.562500",
          "181215.052500",
          "181216.542500",
          "181218.032500",
          "181219.522500",
          "181221.012500",
          "181222.502500",
          "181223.992500",
          "181225.482500",
          "181226.972500",
          "181228.462500",
          "181229.952500",
          "181231.442500",
          "181232.932500",
          "181234.422500",
          "181235.912500",
          "181237.402500",
          "181238.892500",
          "181240.382500",
          "181241.872500",
          "181243.362500",
          "181244.852500",
          "181246.342500",
          "181247.832500",
          "181249.322500",
          "181250.812500",
          "181252.302500",
          "181253.792500",
          "181255.282500",
          "181256.772500",
          "181258.262500",
          "181259.752500",
          "181301.242500",
          "181302.732500",
          "181304.222500",
          "181305.712500",
          "181307.202500",
          "181308.692500",
          "181310.182500",
          "181311.672500",
          "181313.162500",
          "181314.652500",
          "181316.142500",
          "181317.632500",
          "181319.122500",
          "181320.612500",
          "181322.102500",
          "181323.592500",
          "181325.082500",
          "181326.572500",
          "181328.062500",
          "181329.552500",
          "181331.042500",
          "181332.532500",
          "181334.022500",
          "181335.512500",
          "181337.002500",
          "181338.492500",
          "181339.982500",
          "181341.472500",
          "181342.962500",
          "181344.452500",
          "181345.942500",
          "181347.432500",
          "181348.922500",
          "181350.412500",
          "181351.902500",
          "181353.392500",
          "181354.882500",
          "181356.372500",
          "181357.862500",
          "181359.352500",
          "181400.842500",
          "181402.332500",
          "181403.822500",
          "181405.312500",
          "181406.802500",
          "181408.292500",
          "181409.782500",
          "181411.272500",
          "181412.762500",
          "181414.252500",
          "181415.742500",
          "181417.232500",
          "181418.722500",
          "181420.212500",
          "181421.702500",
          "181423.192500",
          "181424.682500",
          "181426.172500",
          "181427.662500",
          "181429.152500",
          "181430.642500",
          "181432.132500",
          "181433.622500",
          "181435.112500",
          "181436.602500",
          "181438.092500",
          "181439.582500",
          "181441.072500",
          "181442.562500",
          "181444.052500",
          "181445.542500",
          "181447.032500",
          "181448.522500",
          "181450.012500",
          "181451.502500",
          "181452.992500",
          "181454.482500",
          "181455.972500",
          "181457.462500",
          "181458.952500",
          "181500.442500",
          "181501.932500",
          "181503.422500",
          "181504.912500",
          "181506.402500",
          "181507.892500",
          "181509.382500",
          "181510.872500",
          "181512.362500",
          "181513.852500",
          "181515.342500",
          "181516.832500",
          "181518.322500",
          "181519.812500",
          "181521.302500",
          "181522.792500",
          "181524.282500",
          "181525.772500",
          "181527.262500",
          "181528.752500",
          "181530.242500",
          "181531.732500",
          "181533.222500",
          "181534.712500",
          "181536.202500",
          "181537.692500",
          "181539.182500",
          "181540.672500",
          "181542.162500",
          "181543.652500",
          "181545.142500",
          "181546.632500",
          "181548.122500",
          "181549.612500",
          "181551.102500",
          "181552.592500",
          "181554.082500",
          "181555.572500",
          "181557.062500",
          "181558.552500",
          "181600.042500",
          "181601.532500",
          "181603.022500",
          "181604.512500",
          "181606.002500",
          "181607.492500",
          "181608.982500",
          "181610.472500",
          "181611.962500",
          "181613.452500",
          "181614.942500",
          "181616.432500",
          "181617.922500",
          "181619.412500",
          "181620.902500",
          "181622.392500",
          "181623.882500",
          "181625.372500",
          "181626.862500",
          "181628.352500",
          "181629.842500",
          "181631.332500",
          "181632.822500",
          "181634.312500",
          "181635.802500",
          "181637.292500",
          "181638.782500",
          "181640.272500",
          "181641.762500",
          "181643.252500",
          "181644.742500",
          "181646.232500",
          "181647.722500",
          "181649.212500",
          "181650.702500",
          "181652.192500",
          "181653.682500",
          "181655.172500",
          "181656.662500",
          "181658.152500",
          "181659.642500",
          "181701.132500",
          "181702.622500",
          "181704.112500",
          "181705.602500",
          "181707.092500",
          "181708.582500",
          "181710.072500",
          "181711.562500",
          "181713.052500",
          "181714.542500",
          "181716.032500",
          "181717.522500",
          "181719.012500",
          "181720.502500",
          "181721.992500",
          "181723.482500",
          "181724.972500",
          "181726.462500",
          "181727.952500",
          "181729.442500",
          "181730.932500",
          "181732.422500",
          "181733.912500",
          "181735.402500",
          "181736.892500",
          "181738.382500",
          "181739.872500",
          "181741.362500",
          "181742.852500",
          "181744.342500",
          "181745.832500",
          "181747.322500",
          "181748.812500",
          "181750.302500",
          "181751.792500",
          "181753.282500",
          "181754.772500",
          "181756.262500",
          "181757.752500",
          "181759.242500",
          "181800.732500",
          "181802.222500",
          "181803.712500",
          "181805.202500",
          "181806.692500",
          "181808.182500",
          "181809.672500",
          "181811.162500",
          "181812.652500",
          "181814.142500",
          "181815.632500",
          "181817.122500",
          "181818.612500",
          "181820.102500",
          "181821.592500",
          "181823.082500",
          "181824.572500",
          "181826.062500",
          "181827.552500",
          "181829.042500",
          "181830.532500",
          "181832.022500",
          "181833.512500",
          "181835.002500",
          "181836.492500",
          "181837.982500",
          "181839.472500",
          "181840.962500",
          "181842.452500",
          "181843.942500",
          "181845.432500",
          "181846.922500",
          "181848.412500",
          "181849.902500",
          "181851.392500",
          "181852.882500",
          "181854.372500",
          "181855.862500",
          "181857.352500",
          "181858.842500",
          "181900.332500",
          "181901.822500",
          "181903.312500",
          "181904.802500",
          "181906.292500"
        ],
        "ContentTime": [
          "181018.421000",
          "181018.425000",
          "181018.428000",
          "181018.431000",
          "181018.434000",
          "181018.436000",
          "181018.439000",
          "181018.453000",
          "181018.456000",
          "181018.459000",
          "181018.462000",
          "181018.465000",
          "181018.468000",
          "181018.471000",
          "181018.473000",
          "181018.476000",
          "181018.479000",
          "181018.482000",
          "181018.485000",
          "181018.488000",
          "181018.491000",
          "181018.494000",
          "181018.497000",
          "181018.499000",
          "181018.502000",
          "181018.505000",
          "181018.508000",
          "181038.392000",
          "181038.395000",
          "181038.398000",
          "181038.400000",
          "181038.403000",
          "181038.406000",
          "181038.409000",
          "181038.412000",
          "181038.415000",
          "181038.417000",
          "181038.420000",
          "181038.423000",
          "181038.426000",
          "181038.429000",
          "181038.432000",
          "181038.435000",
          "181038.438000",
          "181038.441000",
          "181038.444000",
          "181038.446000",
          "181058.392000",
          "181058.395000",
          "181058.398000",
          "181058.401000",
          "181058.403000",
          "181058.422000",
          "181058.425000",
          "181058.428000",
          "181058.431000",
          "181058.434000",
          "181058.436000",
          "181058.439000",
          "181058.442000",
          "181058.445000",
          "181058.448000",
          "181058.451000",
          "181058.454000",
          "181058.457000",
          "181058.459000",
          "181058.462000",
          "181118.392000",
          "181118.395000",
          "181118.398000",
          "181118.401000",
          "181118.403000",
          "181118.406000",
          "181118.409000",
          "181118.412000",
          "181118.415000",
          "181118.418000",
          "181118.421000",
          "181118.424000",
          "181118.427000",
          "181118.430000",
          "181118.433000",
          "181118.436000",
          "181118.439000",
          "181118.441000",
          "181118.444000",
          "181118.447000",
          "181118.450000",
          "181158.393000",
          "181158.396000",
          "181158.399000",
          "181158.402000",
          "181158.405000",
          "181158.407000",
          "181158.410000",
          "181158.413000",
          "181158.416000",
          "181158.419000",
          "181158.422000",
          "181158.425000",
          "181158.427000",
          "181158.430000",
          "181158.433000",
          "181158.443000",
          "181158.446000",
          "181158.449000",
          "181158.452000",
          "181158.454000",
          "181158.457000",
          "181158.460000",
          "181158.463000",
          "181158.466000",
          "181158.469000",
          "181158.472000",
          "181158.475000",
          "181158.478000",
          "181158.480000",
          "181158.483000",
          "181158.486000",
          "181158.489000",
          "181158.492000",
          "181238.393000",
          "181238.396000",
          "181238.399000",
          "181238.402000",
          "181238.405000",
          "181238.407000",
          "181238.410000",
          "181238.413000",
          "181238.416000",
          "181238.419000",
          "181238.422000",
          "181238.425000",
          "181238.428000",
          "181238.431000",
          "181238.434000",
          "181238.436000",
          "181238.439000",
          "181238.442000",
          "181238.445000",
          "181238.448000",
          "181238.451000",
          "181238.454000",
          "181238.457000",
          "181238.459000",
          "181238.462000",
          "181238.465000",
          "181238.468000",
          "181318.392000",
          "181318.395000",
          "181318.398000",
          "181318.401000",
          "181318.404000",
          "181318.407000",
          "181318.410000",
          "181318.413000",
          "181318.416000",
          "181318.419000",
          "181318.422000",
          "181318.425000",
          "181318.428000",
          "181318.430000",
          "181318.433000",
          "181318.436000",
          "181318.439000",
          "181318.442000",
          "181318.445000",
          "181318.448000",
          "181318.450000",
          "181318.453000",
          "181318.456000",
          "181318.459000",
          "181318.462000",
          "181318.465000",
          "181358.393000",
          "181358.396000",
          "181358.399000",
          "181358.402000",
          "181358.405000",
          "181358.408000",
          "181358.410000",
          "181358.413000",
          "181358.416000",
          "181358.419000",
          "181358.422000",
          "181358.425000",
          "181358.428000",
          "181358.431000",
          "181358.434000",
          "181358.437000",
          "181358.439000",
          "181358.442000",
          "181358.445000",
          "181358.448000",
          "181358.451000",
          "181358.454000",
          "181358.457000",
          "181358.460000",
          "181358.462000",
          "181358.465000",
          "181358.468000",
          "181438.393000",
          "181438.396000",
          "181438.399000",
          "181438.402000",
          "181438.405000",
          "181438.407000",
          "181438.410000",
          "181438.413000",
          "181438.416000",
          "181438.419000",
          "181438.422000",
          "181438.425000",
          "181438.433000",
          "181438.436000",
          "181438.439000",
