{
  "aor": 0.00037099195710455765,
  "aqi": 0.013064225040214476,
  "bids_meta": {
    "AcquisitionMatrixPE": 104,
    "AcquisitionNumber": 1,
    "AcquisitionTime": "19:12:44.495000",
    "BandwidthPerPixelPhaseEncode": 17.17,
    "BaseResolution": 104,
    "BodyPartExamined": "BRAIN",
    "CogAtlasID": "trm_4c898da401420",
    "ConsistencyInfo": "N4_VE11C_LATEST_20160120",
    "ConversionSoftware": "dcm2niix",
    "ConversionSoftwareVersion": "v1.0.20171215 (OpenJPEG build) GCC7.3.0",
    "DerivedVendorReportedEchoSpacing": 0.000560011,
    "DeviceSerialNumber": "167006",
    "DwellTime": 2.1e-06,
    "EchoTime": 0.037,
    "EchoTrainLength": 104,
    "EffectiveEchoSpacing": 0.000560011,
    "FlipAngle": 52,
    "ImageComments": "Unaliased_MB4_PE3_LB",
    "ImageOrientationPatientDICOM": [
      0.998828,
      0.0200682,
      -0.0440425,
      -0.0341817,
      0.936734,
      -0.348369
    ],
    "ImageType": [
      "ORIGINAL",
      "PRIMARY",
      "M",
      "MB",
      "ND",
      "MOSAIC"
    ],
    "InPlanePhaseEncodingDirectionDICOM": "COL",
    "InstitutionAddress": "Chemin_Queen-Mary_4565_Montreal_District_CA_H3W_1W5",
    "InstitutionName": "IUGM",
    "InstitutionalDepartmentName": "Department",
    "MRAcquisitionType": "2D",
    "MagneticFieldStrength": 3,
    "Manufacturer": "Siemens",
    "ManufacturersModelName": "Prisma_fit",
    "Modality": "MR",
    "MultibandAccelerationFactor": 4,
    "PartialFourier": 1,
    "PatientPosition": "HFS",
    "PercentPhaseFOV": 100,
    "PhaseEncodingDirection": "j-",
    "PhaseEncodingSteps": 104,
    "PhaseResolution": 1,
    "PixelBandwidth": 2290,
    "ProcedureStepDescription": "video5_generic",
    "ProtocolName": "func_task-figures12",
    "PulseSequenceDetails": "%CustomerSeq%_cmrr_mbep2d_bold",
    "ReceiveCoilActiveElements": "HC1-7;NC1,2",
    "ReceiveCoilName": "HeadNeck_64",
    "ReconMatrixPE": 104,
    "RepetitionTime": 1.49,
    "SAR": 0.0345464,
    "ScanOptions": "FS",
    "ScanningSequence": "EP",
    "SequenceName": "epfid2d1_104",
    "SequenceVariant": "SK_SS",
    "SeriesDescription": "func_task-figures12",
    "SeriesNumber": 19,
    "ShimSetting": [
      610,
      -7226,
      -8876,
      393,
      34,
      -350,
      -3,
      44
    ],
    "SliceThickness": 2,
    "SliceTiming": [
      0,
      0.785,
      0.0975,
      0.8825,
      0.1975,
      0.98,
      0.295,
      1.0775,
      0.3925,
      1.175,
      0.49,
      1.275,
      0.5875,
      1.3725,
      0.6875,
      0,
      0.785,
      0.0975,
      0.8825,
      0.1975,
      0.98,
      0.295,
      1.0775,
      0.3925,
      1.175,
      0.49,
      1.275,
      0.5875,
      1.3725,
      0.6875,
      0,
      0.785,
      0.0975,
      0.8825,
      0.1975,
      0.98,
      0.295,
      1.0775,
      0.3925,
      1.175,
      0.49,
      1.275,
      0.5875,
      1.3725,
      0.6875,
      0,
      0.785,
      0.0975,
      0.8825,
      0.1975,
      0.98,
      0.295,
      1.0775,
      0.3925,
      1.175,
      0.49,
      1.275,
      0.5875,
      1.3725,
      0.6875
    ],
    "SoftwareVersions": "syngo_MR_E11",
    "SpacingBetweenSlices": 2,
    "StationName": "MRC35049",
    "TaskName": "figures12",
    "TotalReadoutTime": 0.0576811,
    "TxRefAmp": 239.607,
    "dataset": "<unset>",
    "dcmmeta_affine": [
      [
        -1.9976561069488525,
        -0.06836330890655518,
        -0.06852997094392776,
        107.926025390625
      ],
      [
        -0.04013632982969284,
        1.8734678030014038,
        -0.6989331841468811,
        -67.76710510253906
      ],
      [
        -0.08808504045009613,
        0.6967388391494751,
        1.8726441860198975,
        -80.17241668701172
      ],
      [
        0.0,
        0.0,
        0.0,
        1.0
      ]
    ],
    "dcmmeta_reorient_transform": [
      [
        0.0,
        -1.0,
        0.0,
        103.0
      ],
      [
        1.0,
        0.0,
        0.0,
        0.0
      ],
      [
        0.0,
        0.0,
        1.0,
        0.0
      ],
      [
        0.0,
        0.0,
        0.0,
        1.0
      ]
    ],
    "dcmmeta_shape": [
      104,
      104,
      60,
      373
    ],
    "dcmmeta_slice_dim": 2,
    "dcmmeta_version": 0.6,
    "global": {
      "const": {
        "AcquisitionMatrix": [
          104,
          0,
          0,
          104
        ],
        "AngioFlag": "N",
        "BitsAllocated": 16,
        "BitsStored": 16,
        "BodyPartExamined": "BRAIN",
        "Columns": 832,
        "EchoNumbers": 1,
        "EchoTime": 37.0,
        "EchoTrainLength": 104,
        "FlipAngle": 52.0,
        "HighBit": 15,
        "ImageOrientationPatient": [
          0.99882807590253,
          0.02006816565552,
          -0.0440425194112,
          -0.0341816557992,
          0.93673388109802,
          -0.3483694165823
        ],
        "ImagePositionPatient": [
          -803.14720018377,
          -821.75196799905,
          277.26756875922
        ],
        "ImageType": [
          "ORIGINAL",
          "PRIMARY",
          "M",
          "MB",
          "ND",
          "MOSAIC"
        ],
        "ImagedNucleus": "1H",
        "ImagingFrequency": 123.259246,
        "InPlanePhaseEncodingDirection": "COL",
        "MRAcquisitionType": "2D",
        "MagneticFieldStrength": 3.0,
        "Manufacturer": "SIEMENS",
        "ManufacturerModelName": "Prisma_fit",
        "Modality": "MR",
        "NumberOfAverages": 1.0,
        "NumberOfPhaseEncodingSteps": 104,
        "PercentPhaseFieldOfView": 100.0,
        "PercentSampling": 100.0,
        "PerformedProcedureStepStartTime": "174706.117000",
        "PhotometricInterpretation": "MONOCHROME2",
        "PixelBandwidth": 2290.0,
        "PixelRepresentation": 0,
        "PixelSpacing": [
          2.0,
          2.0
        ],
        "ProtocolName": "func_task-figures12",
        "RepetitionTime": 1490.0,
        "Rows": 832,
        "SAR": 0.03454637409241,
        "SamplesPerPixel": 1,
        "ScanOptions": "FS",
        "ScanningSequence": "EP",
        "SequenceName": "epfid2d1_104",
        "SequenceVariant": [
          "SK",
          "SS"
        ],
        "SeriesDescription": "func_task-figures12",
        "SeriesNumber": 19,
        "SeriesTime": "191358.420000",
        "SliceLocation": -55.082951258592,
        "SliceThickness": 2.0,
        "SmallestImagePixelValue": 0,
        "SoftwareVersions": "syngo MR E11",
        "SpacingBetweenSlices": 2.0000000048292,
        "SpecificCharacterSet": "ISO_IR 100",
        "StudyID": "1",
        "StudyTime": "174706.054000",
        "TransmitCoilName": "Body",
        "VariableFlipAngleFlag": "N",
        "WindowCenterWidthExplanation": "Algo1",
        "dBdt": 0.0
      },
      "slices": {}
    },
    "modality": "bold",
    "run_id": 1,
    "session_id": "003",
    "subject_id": "05",
    "task_id": "figures12",
    "time": {
      "samples": {
        "AcquisitionNumber": [
          1,
          2,
          3,
          4,
          5,
          6,
          7,
          8,
          9,
          10,
          11,
          12,
          13,
          14,
          15,
          16,
          17,
          18,
          19,
          20,
          21,
          22,
          23,
          24,
          25,
          26,
          27,
          28,
          29,
          30,
          31,
          32,
          33,
          34,
          35,
          36,
          37,
          38,
          39,
          40,
          41,
          42,
          43,
          44,
          45,
          46,
          47,
          48,
          49,
          50,
          51,
          52,
          53,
          54,
          55,
          56,
          57,
          58,
          59,
          60,
          61,
          62,
          63,
          64,
          65,
          66,
          67,
          68,
          69,
          70,
          71,
          72,
          73,
          74,
          75,
          76,
          77,
          78,
          79,
          80,
          81,
          82,
          83,
          84,
          85,
          86,
          87,
          88,
          89,
          90,
          91,
          92,
          93,
          94,
          95,
          96,
          97,
          98,
          99,
          100,
          101,
          102,
          103,
          104,
          105,
          106,
          107,
          108,
          109,
          110,
          111,
          112,
          113,
          114,
          115,
          116,
          117,
          118,
          119,
          120,
          121,
          122,
          123,
          124,
          125,
          126,
          127,
          128,
          129,
          130,
          131,
          132,
          133,
          134,
          135,
          136,
          137,
          138,
          139,
          140,
          141,
          142,
          143,
          144,
          145,
          146,
          147,
          148,
          149,
          150,
          151,
          152,
          153,
          154,
          155,
          156,
          157,
          158,
          159,
          160,
          161,
          162,
          163,
          164,
          165,
          166,
          167,
          168,
          169,
          170,
          171,
          172,
          173,
          174,
          175,
          176,
          177,
          178,
          179,
          180,
          181,
          182,
          183,
          184,
          185,
          186,
          187,
          188,
          189,
          190,
          191,
          192,
          193,
          194,
          195,
          196,
          197,
          198,
          199,
          200,
          201,
          202,
          203,
          204,
          205,
          206,
          207,
          208,
          209,
          210,
          211,
          212,
          213,
          214,
          215,
          216,
          217,
          218,
          219,
          220,
          221,
          222,
          223,
          224,
          225,
          226,
          227,
          228,
          229,
          230,
          231,
          232,
          233,
          234,
          235,
          236,
          237,
          238,
          239,
          240,
          241,
          242,
          243,
          244,
          245,
          246,
          247,
          248,
          249,
          250,
          251,
          252,
          253,
          254,
          255,
          256,
          257,
          258,
          259,
          260,
          261,
          262,
          263,
          264,
          265,
          266,
          267,
          268,
          269,
          270,
          271,
          272,
          273,
          274,
          275,
          276,
          277,
          278,
          279,
          280,
          281,
          282,
          283,
          284,
          285,
          286,
          287,
          288,
          289,
          290,
          291,
          292,
          293,
          294,
          295,
          296,
          297,
          298,
          299,
          300,
          301,
          302,
          303,
          304,
          305,
          306,
          307,
          308,
          309,
          310,
          311,
          312,
          313,
          314,
          315,
          316,
          317,
          318,
          319,
          320,
          321,
          322,
          323,
          324,
          325,
          326,
          327,
          328,
          329,
          330,
          331,
          332,
          333,
          334,
          335,
          336,
          337,
          338,
          339,
          340,
          341,
          342,
          343,
          344,
          345,
          346,
          347,
          348,
          349,
          350,
          351,
          352,
          353,
          354,
          355,
          356,
          357,
          358,
          359,
          360,
          361,
          362,
          363,
          364,
          365,
          366,
          367,
          368,
          369,
          370,
          371,
          372,
          373
        ],
        "AcquisitionTime": [
          "191244.495000",
          "191245.985000",
          "191247.475000",
          "191248.965000",
          "191250.455000",
          "191251.945000",
          "191253.435000",
          "191254.925000",
          "191256.415000",
          "191257.905000",
          "191259.395000",
          "191300.885000",
          "191302.375000",
          "191303.865000",
          "191305.355000",
          "191306.845000",
          "191308.335000",
          "191309.825000",
          "191311.315000",
          "191312.805000",
          "191314.295000",
          "191315.785000",
          "191317.275000",
          "191318.765000",
          "191320.255000",
          "191321.745000",
          "191323.235000",
          "191324.725000",
          "191326.215000",
          "191327.705000",
          "191329.195000",
          "191330.685000",
          "191332.175000",
          "191333.665000",
          "191335.155000",
          "191336.645000",
          "191338.135000",
          "191339.625000",
          "191341.115000",
          "191342.605000",
          "191344.095000",
          "191345.585000",
          "191347.075000",
          "191348.565000",
          "191350.055000",
          "191351.545000",
          "191353.035000",
          "191354.525000",
          "191356.015000",
          "191357.505000",
          "191358.995000",
          "191400.485000",
          "191401.975000",
          "191403.465000",
          "191404.955000",
          "191406.445000",
          "191407.935000",
          "191409.425000",
          "191410.915000",
          "191412.405000",
          "191413.895000",
          "191415.385000",
          "191416.875000",
          "191418.365000",
          "191419.855000",
          "191421.345000",
          "191422.835000",
          "191424.325000",
          "191425.815000",
          "191427.305000",
          "191428.795000",
          "191430.285000",
          "191431.775000",
          "191433.265000",
          "191434.755000",
          "191436.245000",
          "191437.735000",
          "191439.225000",
          "191440.715000",
          "191442.205000",
          "191443.695000",
          "191445.185000",
          "191446.675000",
          "191448.165000",
          "191449.655000",
          "191451.145000",
          "191452.635000",
          "191454.125000",
          "191455.615000",
          "191457.105000",
          "191458.595000",
          "191500.085000",
          "191501.575000",
          "191503.065000",
          "191504.555000",
          "191506.045000",
          "191507.535000",
          "191509.025000",
          "191510.515000",
          "191512.005000",
          "191513.495000",
          "191514.985000",
          "191516.475000",
          "191517.965000",
          "191519.455000",
          "191520.945000",
          "191522.435000",
          "191523.925000",
          "191525.415000",
          "191526.905000",
          "191528.395000",
          "191529.885000",
          "191531.375000",
          "191532.865000",
          "191534.355000",
          "191535.845000",
          "191537.335000",
          "191538.825000",
          "191540.315000",
          "191541.805000",
          "191543.295000",
          "191544.785000",
          "191546.275000",
          "191547.765000",
          "191549.255000",
          "191550.745000",
          "191552.235000",
          "191553.725000",
          "191555.215000",
          "191556.705000",
          "191558.195000",
          "191559.685000",
          "191601.175000",
          "191602.665000",
          "191604.155000",
          "191605.645000",
          "191607.135000",
          "191608.625000",
          "191610.115000",
          "191611.605000",
          "191613.095000",
          "191614.585000",
          "191616.075000",
          "191617.565000",
          "191619.055000",
          "191620.545000",
          "191622.035000",
          "191623.525000",
          "191625.015000",
          "191626.505000",
          "191627.995000",
          "191629.485000",
          "191630.975000",
          "191632.465000",
          "191633.955000",
          "191635.445000",
          "191636.935000",
          "191638.425000",
          "191639.915000",
          "191641.405000",
          "191642.895000",
          "191644.385000",
          "191645.875000",
          "191647.365000",
          "191648.855000",
          "191650.345000",
          "191651.835000",
          "191653.325000",
          "191654.815000",
          "191656.305000",
          "191657.795000",
          "191659.285000",
          "191700.775000",
          "191702.265000",
          "191703.755000",
          "191705.245000",
          "191706.735000",
          "191708.225000",
          "191709.715000",
          "191711.205000",
          "191712.695000",
          "191714.185000",
          "191715.675000",
          "191717.165000",
          "191718.655000",
          "191720.145000",
          "191721.635000",
          "191723.125000",
          "191724.615000",
          "191726.105000",
          "191727.595000",
          "191729.085000",
          "191730.575000",
          "191732.065000",
          "191733.555000",
          "191735.045000",
          "191736.535000",
          "191738.025000",
          "191739.515000",
          "191741.005000",
          "191742.495000",
          "191743.985000",
          "191745.475000",
          "191746.965000",
          "191748.455000",
          "191749.945000",
          "191751.435000",
          "191752.925000",
          "191754.415000",
          "191755.905000",
          "191757.395000",
          "191758.885000",
          "191800.375000",
          "191801.865000",
          "191803.355000",
          "191804.845000",
          "191806.335000",
          "191807.825000",
          "191809.315000",
          "191810.805000",
          "191812.295000",
          "191813.785000",
          "191815.275000",
          "191816.765000",
          "191818.255000",
          "191819.745000",
          "191821.235000",
          "191822.725000",
          "191824.215000",
          "191825.705000",
          "191827.195000",
          "191828.685000",
          "191830.175000",
          "191831.665000",
          "191833.155000",
          "191834.645000",
          "191836.135000",
          "191837.625000",
          "191839.115000",
          "191840.605000",
          "191842.095000",
          "191843.585000",
          "191845.075000",
          "191846.565000",
          "191848.055000",
          "191849.545000",
          "191851.035000",
          "191852.525000",
          "191854.015000",
          "191855.505000",
          "191856.995000",
          "191858.485000",
          "191859.975000",
          "191901.465000",
          "191902.955000",
          "191904.445000",
          "191905.935000",
          "191907.425000",
          "191908.915000",
          "191910.405000",
          "191911.895000",
          "191913.385000",
          "191914.875000",
          "191916.365000",
          "191917.855000",
          "191919.345000",
          "191920.835000",
          "191922.325000",
          "191923.815000",
          "191925.305000",
          "191926.795000",
          "191928.285000",
          "191929.775000",
          "191931.265000",
          "191932.755000",
          "191934.245000",
          "191935.735000",
          "191937.225000",
          "191938.715000",
          "191940.205000",
          "191941.695000",
          "191943.185000",
          "191944.675000",
          "191946.165000",
          "191947.655000",
          "191949.145000",
          "191950.635000",
          "191952.125000",
          "191953.615000",
          "191955.105000",
          "191956.595000",
          "191958.085000",
          "191959.575000",
          "192001.065000",
          "192002.555000",
          "192004.045000",
          "192005.535000",
          "192007.025000",
          "192008.515000",
          "192010.005000",
          "192011.495000",
          "192012.985000",
          "192014.475000",
          "192015.965000",
          "192017.455000",
          "192018.945000",
          "192020.435000",
          "192021.925000",
          "192023.415000",
          "192024.905000",
          "192026.395000",
          "192027.885000",
          "192029.375000",
          "192030.865000",
          "192032.355000",
          "192033.845000",
          "192035.335000",
          "192036.825000",
          "192038.315000",
          "192039.805000",
          "192041.295000",
          "192042.785000",
          "192044.275000",
          "192045.765000",
          "192047.255000",
          "192048.745000",
          "192050.235000",
          "192051.725000",
          "192053.215000",
          "192054.705000",
          "192056.195000",
          "192057.685000",
          "192059.175000",
          "192100.665000",
          "192102.155000",
          "192103.645000",
          "192105.135000",
          "192106.625000",
          "192108.115000",
          "192109.605000",
          "192111.095000",
          "192112.585000",
          "192114.075000",
          "192115.565000",
          "192117.055000",
          "192118.545000",
          "192120.035000",
          "192121.525000",
          "192123.015000",
          "192124.505000",
          "192125.995000",
          "192127.485000",
          "192128.975000",
          "192130.465000",
          "192131.955000",
          "192133.445000",
          "192134.935000",
          "192136.425000",
          "192137.915000",
          "192139.405000",
          "192140.895000",
          "192142.385000",
          "192143.875000",
          "192145.365000",
          "192146.855000",
          "192148.345000",
          "192149.835000",
          "192151.325000",
          "192152.815000",
          "192154.305000",
          "192155.795000",
          "192157.285000",
          "192158.775000"
        ],
        "ContentTime": [
          "191358.423000",
          "191358.432000",
          "191358.435000",
          "191358.438000",
          "191358.440000",
          "191358.443000",
          "191358.446000",
          "191358.453000",
          "191358.459000",
          "191358.462000",
          "191358.465000",
          "191358.468000",
          "191358.471000",
          "191358.474000",
          "191358.476000",
          "191358.479000",
          "191358.482000",
          "191358.485000",
          "191358.488000",
          "191358.491000",
          "191418.393000",
          "191418.396000",
          "191418.399000",
          "191418.402000",
          "191418.415000",
          "191418.418000",
          "191418.420000",
          "191418.423000",
          "191418.426000",
          "191418.429000",
          "191418.432000",
          "191418.435000",
          "191418.438000",
          "191418.441000",
          "191418.444000",
          "191418.447000",
          "191418.450000",
          "191418.453000",
          "191418.455000",
          "191418.458000",
          "191438.393000",
          "191438.396000",
          "191438.399000",
          "191438.423000",
          "191438.426000",
          "191438.429000",
          "191438.432000",
          "191438.435000",
          "191438.438000",
          "191438.441000",
          "191438.443000",
          "191438.446000",
          "191438.449000",
          "191438.452000",
          "191438.455000",
          "191438.458000",
          "191438.461000",
          "191438.464000",
          "191438.467000",
          "191438.470000",
          "191458.393000",
          "191458.396000",
          "191458.399000",
          "191458.402000",
          "191458.405000",
          "191458.408000",
          "191458.411000",
          "191458.414000",
          "191458.417000",
          "191458.420000",
          "191458.423000",
          "191458.425000",
          "191458.428000",
          "191458.431000",
          "191458.434000",
          "191458.437000",
          "191458.440000",
          "191458.443000",
          "191458.446000",
          "191458.449000",
          "191458.452000",
          "191518.393000",
          "191518.396000",
          "191518.399000",
          "191518.402000",
          "191518.405000",
          "191518.408000",
          "191518.410000",
          "191518.413000",
          "191518.417000",
          "191518.419000",
          "191518.422000",
          "191518.425000",
          "191518.428000",
          "191518.431000",
          "191518.434000",
          "191518.437000",
          "191518.440000",
          "191518.443000",
          "191518.446000",
          "191518.449000",
          "191558.392000",
          "191558.396000",
          "191558.399000",
          "191558.401000",
          "191558.405000",
          "191558.407000",
          "191558.410000",
          "191558.413000",
          "191558.416000",
          "191558.419000",
          "191558.422000",
          "191558.425000",
          "191558.428000",
          "191558.431000",
          "191558.433000",
          "191558.436000",
          "191558.439000",
          "191558.442000",
          "191558.445000",
          "191558.448000",
          "191558.451000",
          "191558.454000",
          "191558.457000",
          "191558.459000",
          "191558.463000",
          "191558.466000",
          "191558.468000",
          "191558.471000",
          "191638.393000",
          "191638.396000",
          "191638.399000",
          "191638.402000",
          "191638.405000",
          "191638.408000",
          "191638.411000",
          "191638.414000",
          "191638.416000",
          "191638.419000",
          "191638.423000",
          "191638.425000",
          "191638.428000",
          "191638.431000",
          "191638.434000",
          "191638.437000",
          "191638.440000",
          "191638.443000",
          "191638.446000",
          "191638.449000",
          "191638.452000",
          "191638.455000",
          "191638.458000",
          "191638.461000",
          "191638.464000",
          "191638.467000",
          "191638.470000",
          "191718.393000",
          "191718.396000",
          "191718.399000",
          "191718.402000",
          "191718.405000",
          "191718.408000",
          "191718.411000",
          "191718.414000",
          "191718.417000",
          "191718.420000",
          "191718.423000",
          "191718.426000",
          "191718.429000",
          "191718.432000",
          "191718.435000",
          "191718.438000",
          "191718.441000",
          "191718.444000",
          "191718.447000",
          "191718.450000",
          "191718.453000",
          "191718.456000",
          "191718.459000",
          "191718.461000",
          "191718.464000",
          "191718.467000",
          "191718.470000",
          "191738.392000",
          "191738.395000",
          "191738.398000",
          "191738.401000",
          "191738.404000",
          "191738.407000",
          "191738.410000",
          "191738.413000",
          "191738.416000",
          "191738.419000",
          "191738.422000",
          "191738.425000",
          "191738.428000",
          "191818.392000",
          "191818.395000",
          "191818.398000",
          "191818.401000",
          "191818.404000",
          "191818.407000",
          "191818.410000",
          "191818.413000",
          "191818.416000",
          "191818.419000",
          "191818.422000",
          "191818.425000",
          "191818.428000",
          "191818.431000",
          "191818.434000",
          "191818.437000",
          "191818.440000",
          "191818.443000",
          "191818.446000",
          "191818.449000",
          "191818.452000",
          "191818.455000",
          "191818.458000",
          "191818.469000",
          "191818.472000",
          "191818.488000",
          "191818.491000",
          "191858.393000",
          "191858.396000",
          "191858.399000",
          "191858.402000",
          "191858.405000",
          "191858.408000",
          "191858.411000",
          "191858.414000",
          "191858.417000",
          "191858.420000",
          "191858.423000",
          "191858.426000",
          "191858.429000",
          "191858.432000",
          "191858.435000",
          "191858.438000",
          "191858.441000",
          "191858.444000",
          "191858.447000",
          "191858.450000",
          "191858.453000",
          "191858.455000",
          "191858.458000",
          "191858.461000",
          "191858.465000",
          "191858.467000",
          "191858.470000",
          "191938.393000",
          "191938.396000",
          "191938.399000",
          "191938.402000",
          "191938.405000",
          "191938.408000",
          "191938.411000",
          "191938.414000",
          "191938.417000",
          "191938.420000",
          "191938.423000",
          "191938.426000",
          "191938.429000",
          "191938.432000",
          "191938.435000",
          "191938.437000",
          "191938.440000",
          "191938.443000",
          "191938.446000",
          "191938.449000",
          "191938.452000",
          "191938.455000",
          "191938.458000",
