{
  "aor": 0.0025492892156862746,
  "aqi": 0.006895882916666667,
  "bids_meta": {
    "AcquisitionMatrixPE": 104,
    "AcquisitionNumber": 1,
    "AcquisitionTime": "18:51:26.920000",
    "BandwidthPerPixelPhaseEncode": 17.17,
    "BaseResolution": 104,
    "BodyPartExamined": "BRAIN",
    "CogAtlasID": "trm_4c898da401420",
    "ConsistencyInfo": "N4_VE11C_LATEST_20160120",
    "ConversionSoftware": "dcm2niix",
    "ConversionSoftwareVersion": "v1.0.20171215 (OpenJPEG build) GCC7.3.0",
    "DerivedVendorReportedEchoSpacing": 0.000560011,
    "DeviceSerialNumber": "167006",
    "DwellTime": 2.1e-06,
    "EchoTime": 0.037,
    "EchoTrainLength": 104,
    "EffectiveEchoSpacing": 0.000560011,
    "FlipAngle": 52,
    "ImageComments": "Unaliased_MB4_PE3_LB",
    "ImageOrientationPatientDICOM": [
      0.999539,
      0.0272149,
      -0.0134844,
      -0.030364,
      0.885038,
      -0.464528
    ],
    "ImageType": [
      "ORIGINAL",
      "PRIMARY",
      "M",
      "MB",
      "ND",
      "MOSAIC"
    ],
    "InPlanePhaseEncodingDirectionDICOM": "COL",
    "InstitutionAddress": "Chemin_Queen-Mary_4565_Montreal_District_CA_H3W_1W5",
    "InstitutionName": "IUGM",
    "InstitutionalDepartmentName": "Department",
    "MRAcquisitionType": "2D",
    "MagneticFieldStrength": 3,
    "Manufacturer": "Siemens",
    "ManufacturersModelName": "Prisma_fit",
    "Modality": "MR",
    "MultibandAccelerationFactor": 4,
    "PartialFourier": 1,
    "PatientPosition": "HFS",
    "PercentPhaseFOV": 100,
    "PhaseEncodingDirection": "j-",
    "PhaseEncodingSteps": 104,
    "PhaseResolution": 1,
    "PixelBandwidth": 2290,
    "ProcedureStepDescription": "video5_generic",
    "ProtocolName": "func_task-figures10",
    "PulseSequenceDetails": "%CustomerSeq%_cmrr_mbep2d_bold",
    "ReceiveCoilActiveElements": "HC1-7;NC1,2",
    "ReceiveCoilName": "HeadNeck_64",
    "ReconMatrixPE": 104,
    "RepetitionTime": 1.49,
    "SAR": 0.0345628,
    "ScanOptions": "FS",
    "ScanningSequence": "EP",
    "SequenceName": "epfid2d1_104",
    "SequenceVariant": "SK_SS",
    "SeriesDescription": "func_task-figures10",
    "SeriesNumber": 15,
    "ShimSetting": [
      610,
      -7238,
      -8883,
      370,
      61,
      -417,
      38,
      49
    ],
    "SliceThickness": 2,
    "SliceTiming": [
      0,
      0.7825,
      0.0975,
      0.88,
      0.195,
      0.98,
      0.2925,
      1.0775,
      0.39,
      1.175,
      0.49,
      1.2725,
      0.5875,
      1.37,
      0.685,
      0,
      0.7825,
      0.0975,
      0.88,
      0.195,
      0.98,
      0.2925,
      1.0775,
      0.39,
      1.175,
      0.49,
      1.2725,
      0.5875,
      1.37,
      0.685,
      0,
      0.7825,
      0.0975,
      0.88,
      0.195,
      0.98,
      0.2925,
      1.0775,
      0.39,
      1.175,
      0.49,
      1.2725,
      0.5875,
      1.37,
      0.685,
      0,
      0.7825,
      0.0975,
      0.88,
      0.195,
      0.98,
      0.2925,
      1.0775,
      0.39,
      1.175,
      0.49,
      1.2725,
      0.5875,
      1.37,
      0.685
    ],
    "SoftwareVersions": "syngo_MR_E11",
    "SpacingBetweenSlices": 2,
    "StationName": "MRC35049",
    "TaskName": "figures10",
    "TotalReadoutTime": 0.0576811,
    "TxRefAmp": 239.607,
    "dataset": "<unset>",
    "dcmmeta_affine": [
      [
        -1.999077320098877,
        -0.06072809547185898,
        0.0014158118283376098,
        109.10775756835938
      ],
      [
        -0.05442972853779793,
        1.7700754404067993,
        -0.929446280002594,
        -58.15526580810547
      ],
      [
        -0.026968704536557198,
        0.9290559887886047,
        1.7709115743637085,
        -93.81527709960938
      ],
      [
        0.0,
        0.0,
        0.0,
        1.0
      ]
    ],
    "dcmmeta_reorient_transform": [
      [
        0.0,
        -1.0,
        0.0,
        103.0
      ],
      [
        1.0,
        0.0,
        0.0,
        0.0
      ],
      [
        0.0,
        0.0,
        1.0,
        0.0
      ],
      [
        0.0,
        0.0,
        0.0,
        1.0
      ]
    ],
    "dcmmeta_shape": [
      104,
      104,
      60,
      410
    ],
    "dcmmeta_slice_dim": 2,
    "dcmmeta_version": 0.6,
    "global": {
      "const": {
        "AcquisitionMatrix": [
          104,
          0,
          0,
          104
        ],
        "AngioFlag": "N",
        "BitsAllocated": 16,
        "BitsStored": 16,
        "BodyPartExamined": "BRAIN",
        "Columns": 832,
        "EchoNumbers": 1,
        "EchoTime": 37.0,
        "EchoTrainLength": 104,
        "FlipAngle": 52.0,
        "HighBit": 15,
        "ImageOrientationPatient": [
          0.99953865529852,
          0.02721486372997,
          -0.0134843522716,
          -0.0303640483669,
          0.88503771675029,
          -0.464528001843
        ],
        "ImagePositionPatient": [
          -808.41187792275,
          -788.28238167027,
          349.87048608178
        ],
        "ImageType": [
          "ORIGINAL",
          "PRIMARY",
          "M",
          "MB",
          "ND",
          "MOSAIC"
        ],
        "ImagedNucleus": "1H",
        "ImagingFrequency": 123.259244,
        "InPlanePhaseEncodingDirection": "COL",
        "MRAcquisitionType": "2D",
        "MagneticFieldStrength": 3.0,
        "Manufacturer": "SIEMENS",
        "ManufacturerModelName": "Prisma_fit",
        "Modality": "MR",
        "NumberOfAverages": 1.0,
        "NumberOfPhaseEncodingSteps": 104,
        "PercentPhaseFieldOfView": 100.0,
        "PercentSampling": 100.0,
        "PerformedProcedureStepStartTime": "174706.117000",
        "PhotometricInterpretation": "MONOCHROME2",
        "PixelBandwidth": 2290.0,
        "PixelRepresentation": 0,
        "PixelSpacing": [
          2.0,
          2.0
        ],
        "ProtocolName": "func_task-figures10",
        "RepetitionTime": 1490.0,
        "Rows": 832,
        "SAR": 0.0345628064105,
        "SamplesPerPixel": 1,
        "ScanOptions": "FS",
        "ScanningSequence": "EP",
        "SequenceName": "epfid2d1_104",
        "SequenceVariant": [
          "SK",
          "SS"
        ],
        "SeriesDescription": "func_task-figures10",
        "SeriesNumber": 15,
        "SeriesTime": "185259.531000",
        "SliceLocation": -55.965941091133,
        "SliceThickness": 2.0,
        "SmallestImagePixelValue": 0,
        "SoftwareVersions": "syngo MR E11",
        "SpacingBetweenSlices": 2.0000000141746,
        "SpecificCharacterSet": "ISO_IR 100",
        "StudyID": "1",
        "StudyTime": "174706.054000",
        "TransmitCoilName": "Body",
        "VariableFlipAngleFlag": "N",
        "WindowCenterWidthExplanation": "Algo1",
        "dBdt": 0.0
      },
      "slices": {}
    },
    "modality": "bold",
    "run_id": 1,
    "session_id": "003",
    "subject_id": "05",
    "task_id": "figures10",
    "time": {
      "samples": {
        "AcquisitionNumber": [
          1,
          2,
          3,
          4,
          5,
          6,
          7,
          8,
          9,
          10,
          11,
          12,
          13,
          14,
          15,
          16,
          17,
          18,
          19,
          20,
          21,
          22,
          23,
          24,
          25,
          26,
          27,
          28,
          29,
          30,
          31,
          32,
          33,
          34,
          35,
          36,
          37,
          38,
          39,
          40,
          41,
          42,
          43,
          44,
          45,
          46,
          47,
          48,
          49,
          50,
          51,
          52,
          53,
          54,
          55,
          56,
          57,
          58,
          59,
          60,
          61,
          62,
          63,
          64,
          65,
          66,
          67,
          68,
          69,
          70,
          71,
          72,
          73,
          74,
          75,
          76,
          77,
          78,
          79,
          80,
          81,
          82,
          83,
          84,
          85,
          86,
          87,
          88,
          89,
          90,
          91,
          92,
          93,
          94,
          95,
          96,
          97,
          98,
          99,
          100,
          101,
          102,
          103,
          104,
          105,
          106,
          107,
          108,
          109,
          110,
          111,
          112,
          113,
          114,
          115,
          116,
          117,
          118,
          119,
          120,
          121,
          122,
          123,
          124,
          125,
          126,
          127,
          128,
          129,
          130,
          131,
          132,
          133,
          134,
          135,
          136,
          137,
          138,
          139,
          140,
          141,
          142,
          143,
          144,
          145,
          146,
          147,
          148,
          149,
          150,
          151,
          152,
          153,
          154,
          155,
          156,
          157,
          158,
          159,
          160,
          161,
          162,
          163,
          164,
          165,
          166,
          167,
          168,
          169,
          170,
          171,
          172,
          173,
          174,
          175,
          176,
          177,
          178,
          179,
          180,
          181,
          182,
          183,
          184,
          185,
          186,
          187,
          188,
          189,
          190,
          191,
          192,
          193,
          194,
          195,
          196,
          197,
          198,
          199,
          200,
          201,
          202,
          203,
          204,
          205,
          206,
          207,
          208,
          209,
          210,
          211,
          212,
          213,
          214,
          215,
          216,
          217,
          218,
          219,
          220,
          221,
          222,
          223,
          224,
          225,
          226,
          227,
          228,
          229,
          230,
          231,
          232,
          233,
          234,
          235,
          236,
          237,
          238,
          239,
          240,
          241,
          242,
          243,
          244,
          245,
          246,
          247,
          248,
          249,
          250,
          251,
          252,
          253,
          254,
          255,
          256,
          257,
          258,
          259,
          260,
          261,
          262,
          263,
          264,
          265,
          266,
          267,
          268,
          269,
          270,
          271,
          272,
          273,
          274,
          275,
          276,
          277,
          278,
          279,
          280,
          281,
          282,
          283,
          284,
          285,
          286,
          287,
          288,
          289,
          290,
          291,
          292,
          293,
          294,
          295,
          296,
          297,
          298,
          299,
          300,
          301,
          302,
          303,
          304,
          305,
          306,
          307,
          308,
          309,
          310,
          311,
          312,
          313,
          314,
          315,
          316,
          317,
          318,
          319,
          320,
          321,
          322,
          323,
          324,
          325,
          326,
          327,
          328,
          329,
          330,
          331,
          332,
          333,
          334,
          335,
          336,
          337,
          338,
          339,
          340,
          341,
          342,
          343,
          344,
          345,
          346,
          347,
          348,
          349,
          350,
          351,
          352,
          353,
          354,
          355,
          356,
          357,
          358,
          359,
          360,
          361,
          362,
          363,
          364,
          365,
          366,
          367,
          368,
          369,
          370,
          371,
          372,
          373,
          374,
          375,
          376,
          377,
          378,
          379,
          380,
          381,
          382,
          383,
          384,
          385,
          386,
          387,
          388,
          389,
          390,
          391,
          392,
          393,
          394,
          395,
          396,
          397,
          398,
          399,
          400,
          401,
          402,
          403,
          404,
          405,
          406,
          407,
          408,
          409,
          410
        ],
        "AcquisitionTime": [
          "185126.920000",
          "185128.410000",
          "185129.900000",
          "185131.390000",
          "185132.880000",
          "185134.370000",
          "185135.860000",
          "185137.350000",
          "185138.840000",
          "185140.330000",
          "185141.820000",
          "185143.310000",
          "185144.800000",
          "185146.290000",
          "185147.780000",
          "185149.270000",
          "185150.760000",
          "185152.250000",
          "185153.740000",
          "185155.230000",
          "185156.720000",
          "185158.210000",
          "185159.700000",
          "185201.190000",
          "185202.680000",
          "185204.170000",
          "185205.660000",
          "185207.150000",
          "185208.640000",
          "185210.130000",
          "185211.620000",
          "185213.110000",
          "185214.600000",
          "185216.090000",
          "185217.580000",
          "185219.070000",
          "185220.560000",
          "185222.050000",
          "185223.540000",
          "185225.030000",
          "185226.520000",
          "185228.010000",
          "185229.500000",
          "185230.990000",
          "185232.480000",
          "185233.970000",
          "185235.460000",
          "185236.950000",
          "185238.440000",
          "185239.930000",
          "185241.420000",
          "185242.910000",
          "185244.400000",
          "185245.890000",
          "185247.380000",
          "185248.870000",
          "185250.360000",
          "185251.850000",
          "185253.340000",
          "185254.830000",
          "185256.320000",
          "185257.810000",
          "185259.300000",
          "185300.790000",
          "185302.280000",
          "185303.770000",
          "185305.260000",
          "185306.750000",
          "185308.240000",
          "185309.730000",
          "185311.220000",
          "185312.710000",
          "185314.200000",
          "185315.690000",
          "185317.180000",
          "185318.670000",
          "185320.160000",
          "185321.650000",
          "185323.140000",
          "185324.630000",
          "185326.120000",
          "185327.610000",
          "185329.100000",
          "185330.590000",
          "185332.080000",
          "185333.570000",
          "185335.060000",
          "185336.550000",
          "185338.040000",
          "185339.530000",
          "185341.020000",
          "185342.510000",
          "185344.000000",
          "185345.490000",
          "185346.980000",
          "185348.470000",
          "185349.960000",
          "185351.450000",
          "185352.940000",
          "185354.430000",
          "185355.920000",
          "185357.410000",
          "185358.900000",
          "185400.390000",
          "185401.880000",
          "185403.370000",
          "185404.860000",
          "185406.350000",
          "185407.840000",
          "185409.330000",
          "185410.820000",
          "185412.310000",
          "185413.800000",
          "185415.290000",
          "185416.780000",
          "185418.270000",
          "185419.760000",
          "185421.250000",
          "185422.740000",
          "185424.230000",
          "185425.720000",
          "185427.210000",
          "185428.700000",
          "185430.190000",
          "185431.680000",
          "185433.170000",
          "185434.660000",
          "185436.150000",
          "185437.640000",
          "185439.130000",
          "185440.620000",
          "185442.110000",
          "185443.600000",
          "185445.090000",
          "185446.580000",
          "185448.070000",
          "185449.560000",
          "185451.050000",
          "185452.540000",
          "185454.030000",
          "185455.520000",
          "185457.010000",
          "185458.500000",
          "185459.990000",
          "185501.480000",
          "185502.970000",
          "185504.460000",
          "185505.950000",
          "185507.440000",
          "185508.930000",
          "185510.420000",
          "185511.910000",
          "185513.400000",
          "185514.890000",
          "185516.380000",
          "185517.870000",
          "185519.360000",
          "185520.850000",
          "185522.340000",
          "185523.830000",
          "185525.320000",
          "185526.810000",
          "185528.300000",
          "185529.790000",
          "185531.280000",
          "185532.770000",
          "185534.260000",
          "185535.750000",
          "185537.240000",
          "185538.730000",
          "185540.220000",
          "185541.710000",
          "185543.200000",
          "185544.690000",
          "185546.180000",
          "185547.670000",
          "185549.160000",
          "185550.650000",
          "185552.140000",
          "185553.630000",
          "185555.120000",
          "185556.610000",
          "185558.100000",
          "185559.590000",
          "185601.080000",
          "185602.570000",
          "185604.060000",
          "185605.550000",
          "185607.040000",
          "185608.530000",
          "185610.020000",
          "185611.510000",
          "185613.000000",
          "185614.490000",
          "185615.980000",
          "185617.470000",
          "185618.960000",
          "185620.450000",
          "185621.940000",
          "185623.430000",
          "185624.920000",
          "185626.410000",
          "185627.900000",
          "185629.390000",
          "185630.880000",
          "185632.370000",
          "185633.860000",
          "185635.350000",
          "185636.840000",
          "185638.330000",
          "185639.820000",
          "185641.310000",
          "185642.800000",
          "185644.290000",
          "185645.780000",
          "185647.270000",
          "185648.760000",
          "185650.250000",
          "185651.740000",
          "185653.230000",
          "185654.720000",
          "185656.210000",
          "185657.700000",
          "185659.190000",
          "185700.680000",
          "185702.170000",
          "185703.660000",
          "185705.150000",
          "185706.640000",
          "185708.130000",
          "185709.620000",
          "185711.110000",
          "185712.600000",
          "185714.090000",
          "185715.580000",
          "185717.070000",
          "185718.560000",
          "185720.050000",
          "185721.540000",
          "185723.030000",
          "185724.520000",
          "185726.010000",
          "185727.500000",
          "185728.990000",
          "185730.480000",
          "185731.970000",
          "185733.460000",
          "185734.950000",
          "185736.440000",
          "185737.930000",
          "185739.420000",
          "185740.910000",
          "185742.400000",
          "185743.890000",
          "185745.380000",
          "185746.870000",
          "185748.360000",
          "185749.850000",
          "185751.340000",
          "185752.830000",
          "185754.320000",
          "185755.810000",
          "185757.300000",
          "185758.790000",
          "185800.280000",
          "185801.770000",
          "185803.260000",
          "185804.750000",
          "185806.240000",
          "185807.730000",
          "185809.220000",
          "185810.710000",
          "185812.200000",
          "185813.690000",
          "185815.180000",
          "185816.670000",
          "185818.160000",
          "185819.650000",
          "185821.140000",
          "185822.630000",
          "185824.120000",
          "185825.610000",
          "185827.100000",
          "185828.590000",
          "185830.080000",
          "185831.570000",
          "185833.060000",
          "185834.550000",
          "185836.040000",
          "185837.530000",
          "185839.020000",
          "185840.510000",
          "185842.000000",
          "185843.490000",
          "185844.980000",
          "185846.470000",
          "185847.960000",
          "185849.450000",
          "185850.940000",
          "185852.430000",
          "185853.920000",
          "185855.410000",
          "185856.900000",
          "185858.390000",
          "185859.880000",
          "185901.370000",
          "185902.860000",
          "185904.350000",
          "185905.840000",
          "185907.330000",
          "185908.820000",
          "185910.310000",
          "185911.800000",
          "185913.290000",
          "185914.780000",
          "185916.270000",
          "185917.760000",
          "185919.250000",
          "185920.740000",
          "185922.230000",
          "185923.720000",
          "185925.210000",
          "185926.700000",
          "185928.190000",
          "185929.680000",
          "185931.170000",
          "185932.660000",
          "185934.150000",
          "185935.640000",
          "185937.130000",
          "185938.620000",
          "185940.110000",
          "185941.600000",
          "185943.090000",
          "185944.580000",
          "185946.070000",
          "185947.560000",
          "185949.050000",
          "185950.540000",
          "185952.030000",
          "185953.520000",
          "185955.010000",
          "185956.500000",
          "185957.990000",
          "185959.480000",
          "190000.970000",
          "190002.460000",
          "190003.950000",
          "190005.440000",
          "190006.930000",
          "190008.420000",
          "190009.910000",
          "190011.400000",
          "190012.890000",
          "190014.380000",
          "190015.870000",
          "190017.360000",
          "190018.850000",
          "190020.340000",
          "190021.830000",
          "190023.320000",
          "190024.810000",
          "190026.300000",
          "190027.790000",
          "190029.280000",
          "190030.770000",
          "190032.260000",
          "190033.750000",
          "190035.240000",
          "190036.730000",
          "190038.220000",
          "190039.710000",
          "190041.200000",
          "190042.690000",
          "190044.180000",
          "190045.670000",
          "190047.160000",
          "190048.650000",
          "190050.140000",
          "190051.630000",
          "190053.120000",
          "190054.610000",
          "190056.100000",
          "190057.590000",
          "190059.080000",
          "190100.570000",
          "190102.060000",
          "190103.550000",
          "190105.040000",
          "190106.530000",
          "190108.020000",
          "190109.510000",
          "190111.000000",
          "190112.490000",
          "190113.980000",
          "190115.470000",
          "190116.960000",
          "190118.450000",
          "190119.940000",
          "190121.430000",
          "190122.920000",
          "190124.410000",
          "190125.900000",
          "190127.390000",
          "190128.880000",
          "190130.370000",
          "190131.860000",
          "190133.350000",
          "190134.840000",
          "190136.330000"
        ],
        "ContentTime": [
          "185259.533000",
          "185259.536000",
          "185259.539000",
          "185259.542000",
          "185259.545000",
          "185259.548000",
          "185259.551000",
          "185259.554000",
          "185259.557000",
          "185259.560000",
          "185259.563000",
          "185259.565000",
          "185259.568000",
          "185259.571000",
          "185259.574000",
          "185259.577000",
          "185259.580000",
          "185259.583000",
          "185259.586000",
          "185259.589000",
          "185259.591000",
          "185259.594000",
          "185259.597000",
          "185259.600000",
          "185259.603000",
          "185259.606000",
          "185259.609000",
          "185259.612000",
          "185259.615000",
          "185259.617000",
          "185259.620000",
          "185259.629000",
          "185259.632000",
          "185259.635000",
          "185259.638000",
          "185259.641000",
          "185259.644000",
          "185259.647000",
          "185319.501000",
          "185319.504000",
          "185319.507000",
          "185319.511000",
          "185319.523000",
          "185319.526000",
          "185319.529000",
          "185319.532000",
          "185319.535000",
          "185319.538000",
          "185319.541000",
          "185319.544000",
          "185319.547000",
          "185319.550000",
          "185319.553000",
          "185319.556000",
          "185319.559000",
          "185319.561000",
          "185319.564000",
          "185319.567000",
          "185339.501000",
          "185339.504000",
          "185339.507000",
          "185339.510000",
          "185339.512000",
          "185339.515000",
          "185339.518000",
          "185339.521000",
          "185339.524000",
          "185339.527000",
          "185339.530000",
          "185339.533000",
          "185339.536000",
          "185339.539000",
          "185339.541000",
          "185339.544000",
          "185339.547000",
          "185339.550000",
          "185339.553000",
          "185339.556000",
          "185339.559000",
          "185359.501000",
          "185359.504000",
          "185359.507000",
          "185359.510000",
          "185359.513000",
          "185359.515000",
          "185359.518000",
          "185359.521000",
          "185359.524000",
          "185359.527000",
          "185359.530000",
          "185359.533000",
          "185359.536000",
          "185359.539000",
          "185359.541000",
          "185359.544000",
          "185359.547000",
          "185359.550000",
          "185359.553000",
          "185359.556000",
          "185439.501000",
          "185439.504000",
          "185439.507000",
          "185439.510000",
          "185439.513000",
          "185439.515000",
          "185439.518000",
          "185439.532000",
          "185439.535000",
          "185439.538000",
          "185439.541000",
          "185439.544000",
          "185439.547000",
          "185439.550000",
          "185439.553000",
          "185439.556000",
          "185439.559000",
          "185439.561000",
          "185439.564000",
          "185439.567000",
          "185439.570000",
          "185439.573000",
          "185439.576000",
          "185439.579000",
          "185439.582000",
          "185439.585000",
          "185439.587000",
          "185439.590000",
          "185439.593000",
          "185519.500000",
          "185519.503000",
          "185519.506000",
          "185519.509000",
          "185519.512000",
          "185519.515000",
          "185519.518000",
          "185519.520000",
          "185519.523000",
          "185519.526000",
          "185519.529000",
          "185519.532000",
          "185519.535000",
          "185519.538000",
          "185519.541000",
          "185519.544000",
          "185519.547000",
          "185519.549000",
          "185519.552000",
          "185519.555000",
          "185519.558000",
          "185519.561000",
          "185519.564000",
          "185519.567000",
          "185519.570000",
          "185519.573000",
          "185519.575000",
          "185559.501000",
          "185559.504000",
          "185559.507000",
          "185559.510000",
          "185559.513000",
          "185559.516000",
          "185559.519000",
          "185559.522000",
          "185559.525000",
          "185559.528000",
          "185559.531000",
          "185559.533000",
          "185559.536000",
          "185559.539000",
          "185559.542000",
          "185559.545000",
          "185559.548000",
          "185559.551000",
          "185559.554000",
          "185559.557000",
          "185559.560000",
          "185559.563000",
          "185559.566000",
          "185559.569000",
          "185559.572000",
          "185559.575000",
          "185559.578000",
          "185639.501000",
          "185639.504000",
          "185639.507000",
          "185639.510000",
          "185639.513000",
          "185639.516000",
          "185639.519000",
          "185639.522000",
          "185639.525000",
          "185639.528000",
          "185639.531000",
          "185639.533000",
          "185639.536000",
          "185639.539000",
          "185639.542000",
          "185639.545000",
          "185639.548000",
          "185639.551000",
          "185639.554000",
          "185639.557000",
          "185639.560000",
          "185639.563000",
          "185639.566000",
          "185639.568000",
          "185639.571000",
          "185639.574000",
          "185639.577000",
          "185719.501000",
          "185719.504000",
          "185719.507000",
          "185719.510000",
          "185719.513000",
          "185719.515000",
          "185719.518000",
          "185719.521000",
