{
  "aor": 0.0005361613691931541,
  "aqi": 0.007160271589242054,
  "bids_meta": {
    "AcquisitionMatrixPE": 104,
    "AcquisitionNumber": 1,
    "AcquisitionTime": "18:40:49.545000",
    "BandwidthPerPixelPhaseEncode": 17.17,
    "BaseResolution": 104,
    "BodyPartExamined": "BRAIN",
    "CogAtlasID": "trm_4c898da401420",
    "ConsistencyInfo": "N4_VE11C_LATEST_20160120",
    "ConversionSoftware": "dcm2niix",
    "ConversionSoftwareVersion": "v1.0.20171215 (OpenJPEG build) GCC7.3.0",
    "DerivedVendorReportedEchoSpacing": 0.000560011,
    "DeviceSerialNumber": "167006",
    "DwellTime": 2.1e-06,
    "EchoTime": 0.037,
    "EchoTrainLength": 104,
    "EffectiveEchoSpacing": 0.000560011,
    "FlipAngle": 52,
    "ImageComments": "Unaliased_MB4_PE3_LB",
    "ImageOrientationPatientDICOM": [
      0.998828,
      0.0200682,
      -0.0440425,
      -0.0341817,
      0.936734,
      -0.348369
    ],
    "ImageType": [
      "ORIGINAL",
      "PRIMARY",
      "M",
      "MB",
      "ND",
      "MOSAIC"
    ],
    "InPlanePhaseEncodingDirectionDICOM": "COL",
    "InstitutionAddress": "Chemin_Queen-Mary_4565_Montreal_District_CA_H3W_1W5",
    "InstitutionName": "IUGM",
    "InstitutionalDepartmentName": "Department",
    "MRAcquisitionType": "2D",
    "MagneticFieldStrength": 3,
    "Manufacturer": "Siemens",
    "ManufacturersModelName": "Prisma_fit",
    "Modality": "MR",
    "MultibandAccelerationFactor": 4,
    "PartialFourier": 1,
    "PatientPosition": "HFS",
    "PercentPhaseFOV": 100,
    "PhaseEncodingDirection": "j-",
    "PhaseEncodingSteps": 104,
    "PhaseResolution": 1,
    "PixelBandwidth": 2290,
    "ProcedureStepDescription": "video5_generic",
    "ProtocolName": "func_task-figures9",
    "PulseSequenceDetails": "%CustomerSeq%_cmrr_mbep2d_bold",
    "ReceiveCoilActiveElements": "HC1-7;NC1,2",
    "ReceiveCoilName": "HeadNeck_64",
    "ReconMatrixPE": 104,
    "RepetitionTime": 1.49,
    "SAR": 0.0345628,
    "ScanOptions": "FS",
    "ScanningSequence": "EP",
    "SequenceName": "epfid2d1_104",
    "SequenceVariant": "SK_SS",
    "SeriesDescription": "func_task-figures9",
    "SeriesNumber": 13,
    "ShimSetting": [
      610,
      -7226,
      -8876,
      393,
      34,
      -350,
      -3,
      44
    ],
    "SliceThickness": 2,
    "SliceTiming": [
      0,
      0.7825,
      0.0975,
      0.8825,
      0.195,
      0.98,
      0.2925,
      1.0775,
      0.3925,
      1.175,
      0.49,
      1.2725,
      0.5875,
      1.3725,
      0.685,
      0,
      0.7825,
      0.0975,
      0.8825,
      0.195,
      0.98,
      0.2925,
      1.0775,
      0.3925,
      1.175,
      0.49,
      1.2725,
      0.5875,
      1.3725,
      0.685,
      0,
      0.7825,
      0.0975,
      0.8825,
      0.195,
      0.98,
      0.2925,
      1.0775,
      0.3925,
      1.175,
      0.49,
      1.2725,
      0.5875,
      1.3725,
      0.685,
      0,
      0.7825,
      0.0975,
      0.8825,
      0.195,
      0.98,
      0.2925,
      1.0775,
      0.3925,
      1.175,
      0.49,
      1.2725,
      0.5875,
      1.3725,
      0.685
    ],
    "SoftwareVersions": "syngo_MR_E11",
    "SpacingBetweenSlices": 2,
    "StationName": "MRC35049",
    "TaskName": "figures09",
    "TotalReadoutTime": 0.0576811,
    "TxRefAmp": 239.607,
    "dataset": "<unset>",
    "dcmmeta_affine": [
      [
        -1.9976561069488525,
        -0.06836330890655518,
        -0.06852997094392776,
        107.926025390625
      ],
      [
        -0.04013632982969284,
        1.8734678030014038,
        -0.6989331841468811,
        -67.76710510253906
      ],
      [
        -0.08808504045009613,
        0.6967388391494751,
        1.8726441860198975,
        -80.17241668701172
      ],
      [
        0.0,
        0.0,
        0.0,
        1.0
      ]
    ],
    "dcmmeta_reorient_transform": [
      [
        0.0,
        -1.0,
        0.0,
        103.0
      ],
      [
        1.0,
        0.0,
        0.0,
        0.0
      ],
      [
        0.0,
        0.0,
        1.0,
        0.0
      ],
      [
        0.0,
        0.0,
        0.0,
        1.0
      ]
    ],
    "dcmmeta_shape": [
      104,
      104,
      60,
      410
    ],
    "dcmmeta_slice_dim": 2,
    "dcmmeta_version": 0.6,
    "global": {
      "const": {
        "AcquisitionMatrix": [
          104,
          0,
          0,
          104
        ],
        "AngioFlag": "N",
        "BitsAllocated": 16,
        "BitsStored": 16,
        "BodyPartExamined": "BRAIN",
        "Columns": 832,
        "EchoNumbers": 1,
        "EchoTime": 37.0,
        "EchoTrainLength": 104,
        "FlipAngle": 52.0,
        "HighBit": 15,
        "ImageOrientationPatient": [
          0.99882807590253,
          0.02006816565552,
          -0.0440425194112,
          -0.0341816557992,
          0.93673388109802,
          -0.3483694165823
        ],
        "ImagePositionPatient": [
          -803.14720018377,
          -821.75196799905,
          277.26756875922
        ],
        "ImageType": [
          "ORIGINAL",
          "PRIMARY",
          "M",
          "MB",
          "ND",
          "MOSAIC"
        ],
        "ImagedNucleus": "1H",
        "ImagingFrequency": 123.259239,
        "InPlanePhaseEncodingDirection": "COL",
        "MRAcquisitionType": "2D",
        "MagneticFieldStrength": 3.0,
        "Manufacturer": "SIEMENS",
        "ManufacturerModelName": "Prisma_fit",
        "Modality": "MR",
        "NumberOfAverages": 1.0,
        "NumberOfPhaseEncodingSteps": 104,
        "PercentPhaseFieldOfView": 100.0,
        "PercentSampling": 100.0,
        "PerformedProcedureStepStartTime": "174706.117000",
        "PhotometricInterpretation": "MONOCHROME2",
        "PixelBandwidth": 2290.0,
        "PixelRepresentation": 0,
        "PixelSpacing": [
          2.0,
          2.0
        ],
        "ProtocolName": "func_task-figures9",
        "RepetitionTime": 1490.0,
        "Rows": 832,
        "SAR": 0.0345628064105,
        "SamplesPerPixel": 1,
        "ScanOptions": "FS",
        "ScanningSequence": "EP",
        "SequenceName": "epfid2d1_104",
        "SequenceVariant": [
          "SK",
          "SS"
        ],
        "SeriesDescription": "func_task-figures9",
        "SeriesNumber": 13,
        "SeriesTime": "184218.425000",
        "SliceLocation": -55.082951258592,
        "SliceThickness": 2.0,
        "SmallestImagePixelValue": 0,
        "SoftwareVersions": "syngo MR E11",
        "SpacingBetweenSlices": 2.0000000048292,
        "SpecificCharacterSet": "ISO_IR 100",
        "StudyID": "1",
        "StudyTime": "174706.054000",
        "TransmitCoilName": "Body",
        "VariableFlipAngleFlag": "N",
        "WindowCenterWidthExplanation": "Algo1",
        "dBdt": 0.0
      },
      "slices": {}
    },
    "modality": "bold",
    "run_id": 1,
    "session_id": "003",
    "subject_id": "05",
    "task_id": "figures09",
    "time": {
      "samples": {
        "AcquisitionNumber": [
          1,
          2,
          3,
          4,
          5,
          6,
          7,
          8,
          9,
          10,
          11,
          12,
          13,
          14,
          15,
          16,
          17,
          18,
          19,
          20,
          21,
          22,
          23,
          24,
          25,
          26,
          27,
          28,
          29,
          30,
          31,
          32,
          33,
          34,
          35,
          36,
          37,
          38,
          39,
          40,
          41,
          42,
          43,
          44,
          45,
          46,
          47,
          48,
          49,
          50,
          51,
          52,
          53,
          54,
          55,
          56,
          57,
          58,
          59,
          60,
          61,
          62,
          63,
          64,
          65,
          66,
          67,
          68,
          69,
          70,
          71,
          72,
          73,
          74,
          75,
          76,
          77,
          78,
          79,
          80,
          81,
          82,
          83,
          84,
          85,
          86,
          87,
          88,
          89,
          90,
          91,
          92,
          93,
          94,
          95,
          96,
          97,
          98,
          99,
          100,
          101,
          102,
          103,
          104,
          105,
          106,
          107,
          108,
          109,
          110,
          111,
          112,
          113,
          114,
          115,
          116,
          117,
          118,
          119,
          120,
          121,
          122,
          123,
          124,
          125,
          126,
          127,
          128,
          129,
          130,
          131,
          132,
          133,
          134,
          135,
          136,
          137,
          138,
          139,
          140,
          141,
          142,
          143,
          144,
          145,
          146,
          147,
          148,
          149,
          150,
          151,
          152,
          153,
          154,
          155,
          156,
          157,
          158,
          159,
          160,
          161,
          162,
          163,
          164,
          165,
          166,
          167,
          168,
          169,
          170,
          171,
          172,
          173,
          174,
          175,
          176,
          177,
          178,
          179,
          180,
          181,
          182,
          183,
          184,
          185,
          186,
          187,
          188,
          189,
          190,
          191,
          192,
          193,
          194,
          195,
          196,
          197,
          198,
          199,
          200,
          201,
          202,
          203,
          204,
          205,
          206,
          207,
          208,
          209,
          210,
          211,
          212,
          213,
          214,
          215,
          216,
          217,
          218,
          219,
          220,
          221,
          222,
          223,
          224,
          225,
          226,
          227,
          228,
          229,
          230,
          231,
          232,
          233,
          234,
          235,
          236,
          237,
          238,
          239,
          240,
          241,
          242,
          243,
          244,
          245,
          246,
          247,
          248,
          249,
          250,
          251,
          252,
          253,
          254,
          255,
          256,
          257,
          258,
          259,
          260,
          261,
          262,
          263,
          264,
          265,
          266,
          267,
          268,
          269,
          270,
          271,
          272,
          273,
          274,
          275,
          276,
          277,
          278,
          279,
          280,
          281,
          282,
          283,
          284,
          285,
          286,
          287,
          288,
          289,
          290,
          291,
          292,
          293,
          294,
          295,
          296,
          297,
          298,
          299,
          300,
          301,
          302,
          303,
          304,
          305,
          306,
          307,
          308,
          309,
          310,
          311,
          312,
          313,
          314,
          315,
          316,
          317,
          318,
          319,
          320,
          321,
          322,
          323,
          324,
          325,
          326,
          327,
          328,
          329,
          330,
          331,
          332,
          333,
          334,
          335,
          336,
          337,
          338,
          339,
          340,
          341,
          342,
          343,
          344,
          345,
          346,
          347,
          348,
          349,
          350,
          351,
          352,
          353,
          354,
          355,
          356,
          357,
          358,
          359,
          360,
          361,
          362,
          363,
          364,
          365,
          366,
          367,
          368,
          369,
          370,
          371,
          372,
          373,
          374,
          375,
          376,
          377,
          378,
          379,
          380,
          381,
          382,
          383,
          384,
          385,
          386,
          387,
          388,
          389,
          390,
          391,
          392,
          393,
          394,
          395,
          396,
          397,
          398,
          399,
          400,
          401,
          402,
          403,
          404,
          405,
          406,
          407,
          408,
          409,
          410
        ],
        "AcquisitionTime": [
          "184049.545000",
          "184051.035000",
          "184052.525000",
          "184054.015000",
          "184055.505000",
          "184056.995000",
          "184058.485000",
          "184059.975000",
          "184101.465000",
          "184102.955000",
          "184104.445000",
          "184105.935000",
          "184107.425000",
          "184108.915000",
          "184110.405000",
          "184111.895000",
          "184113.385000",
          "184114.875000",
          "184116.365000",
          "184117.855000",
          "184119.345000",
          "184120.835000",
          "184122.325000",
          "184123.815000",
          "184125.305000",
          "184126.795000",
          "184128.285000",
          "184129.775000",
          "184131.265000",
          "184132.755000",
          "184134.245000",
          "184135.735000",
          "184137.225000",
          "184138.715000",
          "184140.205000",
          "184141.695000",
          "184143.185000",
          "184144.675000",
          "184146.165000",
          "184147.655000",
          "184149.145000",
          "184150.635000",
          "184152.125000",
          "184153.615000",
          "184155.105000",
          "184156.595000",
          "184158.085000",
          "184159.575000",
          "184201.065000",
          "184202.555000",
          "184204.045000",
          "184205.535000",
          "184207.025000",
          "184208.515000",
          "184210.005000",
          "184211.495000",
          "184212.985000",
          "184214.475000",
          "184215.965000",
          "184217.455000",
          "184218.945000",
          "184220.435000",
          "184221.925000",
          "184223.415000",
          "184224.905000",
          "184226.395000",
          "184227.885000",
          "184229.375000",
          "184230.865000",
          "184232.355000",
          "184233.845000",
          "184235.335000",
          "184236.825000",
          "184238.315000",
          "184239.805000",
          "184241.295000",
          "184242.785000",
          "184244.275000",
          "184245.765000",
          "184247.255000",
          "184248.745000",
          "184250.235000",
          "184251.725000",
          "184253.215000",
          "184254.705000",
          "184256.195000",
          "184257.685000",
          "184259.175000",
          "184300.665000",
          "184302.155000",
          "184303.645000",
          "184305.135000",
          "184306.625000",
          "184308.115000",
          "184309.605000",
          "184311.095000",
          "184312.585000",
          "184314.075000",
          "184315.565000",
          "184317.055000",
          "184318.545000",
          "184320.035000",
          "184321.525000",
          "184323.015000",
          "184324.505000",
          "184325.995000",
          "184327.485000",
          "184328.975000",
          "184330.465000",
          "184331.955000",
          "184333.445000",
          "184334.935000",
          "184336.425000",
          "184337.915000",
          "184339.405000",
          "184340.895000",
          "184342.385000",
          "184343.875000",
          "184345.365000",
          "184346.855000",
          "184348.345000",
          "184349.835000",
          "184351.325000",
          "184352.815000",
          "184354.305000",
          "184355.795000",
          "184357.285000",
          "184358.775000",
          "184400.265000",
          "184401.755000",
          "184403.245000",
          "184404.735000",
          "184406.225000",
          "184407.715000",
          "184409.205000",
          "184410.695000",
          "184412.185000",
          "184413.675000",
          "184415.165000",
          "184416.655000",
          "184418.145000",
          "184419.635000",
          "184421.125000",
          "184422.615000",
          "184424.105000",
          "184425.595000",
          "184427.085000",
          "184428.575000",
          "184430.065000",
          "184431.555000",
          "184433.045000",
          "184434.535000",
          "184436.025000",
          "184437.515000",
          "184439.005000",
          "184440.495000",
          "184441.985000",
          "184443.475000",
          "184444.965000",
          "184446.455000",
          "184447.945000",
          "184449.435000",
          "184450.925000",
          "184452.415000",
          "184453.905000",
          "184455.395000",
          "184456.885000",
          "184458.375000",
          "184459.865000",
          "184501.355000",
          "184502.845000",
          "184504.335000",
          "184505.825000",
          "184507.315000",
          "184508.805000",
          "184510.295000",
          "184511.785000",
          "184513.275000",
          "184514.765000",
          "184516.255000",
          "184517.745000",
          "184519.235000",
          "184520.725000",
          "184522.215000",
          "184523.705000",
          "184525.195000",
          "184526.685000",
          "184528.175000",
          "184529.665000",
          "184531.155000",
          "184532.645000",
          "184534.135000",
          "184535.625000",
          "184537.115000",
          "184538.605000",
          "184540.095000",
          "184541.585000",
          "184543.075000",
          "184544.565000",
          "184546.055000",
          "184547.545000",
          "184549.035000",
          "184550.525000",
          "184552.015000",
          "184553.505000",
          "184554.995000",
          "184556.485000",
          "184557.975000",
          "184559.465000",
          "184600.955000",
          "184602.445000",
          "184603.935000",
          "184605.425000",
          "184606.915000",
          "184608.405000",
          "184609.895000",
          "184611.385000",
          "184612.875000",
          "184614.365000",
          "184615.855000",
          "184617.345000",
          "184618.835000",
          "184620.325000",
          "184621.815000",
          "184623.305000",
          "184624.795000",
          "184626.285000",
          "184627.775000",
          "184629.265000",
          "184630.755000",
          "184632.245000",
          "184633.735000",
          "184635.225000",
          "184636.715000",
          "184638.205000",
          "184639.695000",
          "184641.185000",
          "184642.675000",
          "184644.165000",
          "184645.655000",
          "184647.145000",
          "184648.635000",
          "184650.125000",
          "184651.615000",
          "184653.105000",
          "184654.595000",
          "184656.085000",
          "184657.575000",
          "184659.065000",
          "184700.555000",
          "184702.045000",
          "184703.535000",
          "184705.025000",
          "184706.515000",
          "184708.005000",
          "184709.495000",
          "184710.985000",
          "184712.475000",
          "184713.965000",
          "184715.455000",
          "184716.945000",
          "184718.435000",
          "184719.925000",
          "184721.415000",
          "184722.905000",
          "184724.395000",
          "184725.885000",
          "184727.375000",
          "184728.865000",
          "184730.355000",
          "184731.845000",
          "184733.335000",
          "184734.825000",
          "184736.315000",
          "184737.805000",
          "184739.295000",
          "184740.785000",
          "184742.275000",
          "184743.765000",
          "184745.255000",
          "184746.745000",
          "184748.235000",
          "184749.725000",
          "184751.215000",
          "184752.705000",
          "184754.195000",
          "184755.685000",
          "184757.175000",
          "184758.665000",
          "184800.155000",
          "184801.645000",
          "184803.135000",
          "184804.625000",
          "184806.115000",
          "184807.605000",
          "184809.095000",
          "184810.585000",
          "184812.075000",
          "184813.565000",
          "184815.055000",
          "184816.545000",
          "184818.035000",
          "184819.525000",
          "184821.015000",
          "184822.505000",
          "184823.995000",
          "184825.485000",
          "184826.975000",
          "184828.465000",
          "184829.955000",
          "184831.445000",
          "184832.935000",
          "184834.425000",
          "184835.915000",
          "184837.405000",
          "184838.895000",
          "184840.385000",
          "184841.875000",
          "184843.365000",
          "184844.855000",
          "184846.345000",
          "184847.835000",
          "184849.325000",
          "184850.815000",
          "184852.305000",
          "184853.795000",
          "184855.285000",
          "184856.775000",
          "184858.265000",
          "184859.755000",
          "184901.245000",
          "184902.735000",
          "184904.225000",
          "184905.715000",
          "184907.205000",
          "184908.695000",
          "184910.185000",
          "184911.675000",
          "184913.165000",
          "184914.655000",
          "184916.145000",
          "184917.635000",
          "184919.125000",
          "184920.615000",
          "184922.105000",
          "184923.595000",
          "184925.085000",
          "184926.575000",
          "184928.065000",
          "184929.555000",
          "184931.045000",
          "184932.535000",
          "184934.025000",
          "184935.515000",
          "184937.005000",
          "184938.495000",
          "184939.985000",
          "184941.475000",
          "184942.965000",
          "184944.455000",
          "184945.945000",
          "184947.435000",
          "184948.925000",
          "184950.415000",
          "184951.905000",
          "184953.395000",
          "184954.885000",
          "184956.375000",
          "184957.865000",
          "184959.355000",
          "185000.845000",
          "185002.335000",
          "185003.825000",
          "185005.315000",
          "185006.805000",
          "185008.295000",
          "185009.785000",
          "185011.275000",
          "185012.765000",
          "185014.255000",
          "185015.745000",
          "185017.235000",
          "185018.725000",
          "185020.215000",
          "185021.705000",
          "185023.195000",
          "185024.685000",
          "185026.175000",
          "185027.665000",
          "185029.155000",
          "185030.645000",
          "185032.135000",
          "185033.625000",
          "185035.115000",
          "185036.605000",
          "185038.095000",
          "185039.585000",
          "185041.075000",
          "185042.565000",
          "185044.055000",
          "185045.545000",
          "185047.035000",
          "185048.525000",
          "185050.015000",
          "185051.505000",
          "185052.995000",
          "185054.485000",
          "185055.975000",
          "185057.465000",
          "185058.955000"
        ],
        "ContentTime": [
          "184218.427000",
          "184218.431000",
          "184218.433000",
          "184218.436000",
          "184218.439000",
          "184218.442000",
          "184218.445000",
          "184218.448000",
          "184218.451000",
          "184218.454000",
          "184218.457000",
          "184218.460000",
          "184218.462000",
          "184218.465000",
          "184218.468000",
          "184218.471000",
          "184218.474000",
          "184218.477000",
          "184218.480000",
          "184218.482000",
          "184218.485000",
          "184218.488000",
          "184218.495000",
          "184218.498000",
          "184218.501000",
          "184218.504000",
          "184218.507000",
          "184218.510000",
          "184218.512000",
          "184218.515000",
          "184218.518000",
          "184218.521000",
          "184218.524000",
          "184218.527000",
          "184218.530000",
          "184238.393000",
          "184238.396000",
          "184238.399000",
          "184238.402000",
          "184238.405000",
          "184238.408000",
          "184238.411000",
          "184238.413000",
          "184238.416000",
          "184238.419000",
          "184238.422000",
          "184238.432000",
          "184238.434000",
          "184238.437000",
          "184238.440000",
          "184238.443000",
          "184238.446000",
          "184238.449000",
          "184238.452000",
          "184238.455000",
          "184258.392000",
          "184258.395000",
          "184258.408000",
          "184258.410000",
          "184258.413000",
          "184258.416000",
          "184258.420000",
          "184258.423000",
          "184258.426000",
          "184258.429000",
          "184258.432000",
          "184258.435000",
          "184258.438000",
          "184258.441000",
          "184258.444000",
          "184258.446000",
          "184258.449000",
          "184258.452000",
          "184258.455000",
          "184258.458000",
          "184318.392000",
          "184318.395000",
          "184318.398000",
          "184318.401000",
          "184318.404000",
          "184318.407000",
          "184318.409000",
          "184318.412000",
          "184318.426000",
          "184318.429000",
          "184318.431000",
          "184318.434000",
          "184318.437000",
          "184318.440000",
          "184318.443000",
          "184318.446000",
          "184318.449000",
          "184318.452000",
          "184318.455000",
          "184318.458000",
          "184358.393000",
          "184358.396000",
          "184358.399000",
          "184358.402000",
          "184358.405000",
          "184358.407000",
          "184358.410000",
          "184358.413000",
          "184358.416000",
          "184358.419000",
          "184358.422000",
          "184358.425000",
          "184358.427000",
          "184358.430000",
          "184358.433000",
          "184358.436000",
          "184358.439000",
          "184358.442000",
          "184358.445000",
          "184358.448000",
          "184358.450000",
          "184358.453000",
          "184358.457000",
          "184358.459000",
          "184358.462000",
          "184358.465000",
          "184358.468000",
          "184358.471000",
          "184358.474000",
          "184358.477000",
          "184358.480000",
          "184438.393000",
          "184438.396000",
          "184438.399000",
          "184438.402000",
          "184438.405000",
          "184438.408000",
          "184438.411000",
          "184438.414000",
          "184438.417000",
          "184438.420000",
          "184438.423000",
          "184438.426000",
          "184438.429000",
          "184438.432000",
          "184438.434000",
          "184438.437000",
          "184438.440000",
          "184438.443000",
          "184438.446000",
          "184438.449000",
          "184438.471000",
          "184438.474000",
          "184438.476000",
          "184438.479000",
          "184438.482000",
          "184438.485000",
          "184438.488000",
          "184518.392000",
          "184518.395000",
          "184518.398000",
          "184518.401000",
          "184518.404000",
          "184518.407000",
          "184518.409000",
          "184518.412000",
          "184518.415000",
          "184518.418000",
          "184518.421000",
          "184518.424000",
          "184518.427000",
          "184518.430000",
          "184518.433000",
          "184518.435000",
          "184518.438000",
          "184518.441000",
          "184518.444000",
          "184518.447000",
          "184518.450000",
          "184518.453000",
          "184518.456000",
          "184518.459000",
          "184518.462000",
          "184518.464000",
          "184558.392000",
          "184558.395000",
          "184558.398000",
          "184558.401000",
          "184558.404000",
          "184558.407000",
          "184558.411000",
          "184558.414000",
          "184558.417000",
          "184558.420000",
          "184558.423000",
          "184558.426000",
          "184558.429000",
          "184558.432000",
          "184558.435000",
          "184558.438000",
          "184558.441000",
          "184558.444000",
          "184558.447000",
          "184558.450000",
          "184558.454000",
          "184558.457000",
          "184558.460000",
          "184558.463000",
          "184558.466000",
          "184558.469000",
          "184558.472000",
          "184638.393000",
          "184638.396000",
          "184638.399000",
          "184638.413000",
          "184638.415000",
          "184638.418000",
          "184638.421000",
          "184638.424000",
          "184638.427000",
          "184638.430000",
