{
  "aor": 0.0009145965770171149,
  "aqi": 0.00835259271393643,
  "bids_meta": {
    "AcquisitionMatrixPE": 104,
    "AcquisitionNumber": 1,
    "AcquisitionTime": "15:10:13.057500",
    "BandwidthPerPixelPhaseEncode": 17.17,
    "BaseResolution": 104,
    "BodyPartExamined": "BRAIN",
    "CogAtlasID": "trm_4c898da401420",
    "ConsistencyInfo": "N4_VE11C_LATEST_20160120",
    "ConversionSoftware": "dcm2niix",
    "ConversionSoftwareVersion": "v1.0.20171215 (OpenJPEG build) GCC7.3.0",
    "DerivedVendorReportedEchoSpacing": 0.000560011,
    "DeviceSerialNumber": "167006",
    "DwellTime": 2.1e-06,
    "EchoTime": 0.037,
    "EchoTrainLength": 104,
    "EffectiveEchoSpacing": 0.000560011,
    "FlipAngle": 52,
    "ImageComments": "Unaliased_MB4_PE3_LB",
    "ImageOrientationPatientDICOM": [
      0.998379,
      0.049394,
      -0.0282868,
      -0.0568669,
      0.887064,
      -0.45813
    ],
    "ImageType": [
      "ORIGINAL",
      "PRIMARY",
      "M",
      "MB",
      "ND",
      "MOSAIC"
    ],
    "InPlanePhaseEncodingDirectionDICOM": "COL",
    "InstitutionAddress": "Chemin_Queen-Mary_4565_Montreal_District_CA_H3W_1W5",
    "InstitutionName": "IUGM",
    "InstitutionalDepartmentName": "Department",
    "MRAcquisitionType": "2D",
    "MagneticFieldStrength": 3,
    "Manufacturer": "Siemens",
    "ManufacturersModelName": "Prisma_fit",
    "Modality": "MR",
    "MultibandAccelerationFactor": 4,
    "PartialFourier": 1,
    "PatientPosition": "HFS",
    "PercentPhaseFOV": 100,
    "PhaseEncodingDirection": "j-",
    "PhaseEncodingSteps": 104,
    "PhaseResolution": 1,
    "PixelBandwidth": 2290,
    "ProcedureStepDescription": "video5_generic",
    "ProtocolName": "func_task-life4",
    "PulseSequenceDetails": "%CustomerSeq%_cmrr_mbep2d_bold",
    "ReceiveCoilActiveElements": "HC1-7;NC1,2",
    "ReceiveCoilName": "HeadNeck_64",
    "ReconMatrixPE": 104,
    "RepetitionTime": 1.49,
    "SAR": 0.037892,
    "ScanOptions": "FS",
    "ScanningSequence": "EP",
    "SequenceName": "epfid2d1_104",
    "SequenceVariant": "SK_SS",
    "SeriesDescription": "func_task-life4",
    "SeriesNumber": 13,
    "ShimSetting": [
      618,
      -7200,
      -8879,
      401,
      14,
      -157,
      6,
      -30
    ],
    "SliceThickness": 2,
    "SliceTiming": [
      0,
      0.7825,
      0.0975,
      0.88,
      0.195,
      0.98,
      0.2925,
      1.0775,
      0.39,
      1.175,
      0.49,
      1.2725,
      0.5875,
      1.37,
      0.685,
      0,
      0.7825,
      0.0975,
      0.88,
      0.195,
      0.98,
      0.2925,
      1.0775,
      0.39,
      1.175,
      0.49,
      1.2725,
      0.5875,
      1.37,
      0.685,
      0,
      0.7825,
      0.0975,
      0.88,
      0.195,
      0.98,
      0.2925,
      1.0775,
      0.39,
      1.175,
      0.49,
      1.2725,
      0.5875,
      1.37,
      0.685,
      0,
      0.7825,
      0.0975,
      0.88,
      0.195,
      0.98,
      0.2925,
      1.0775,
      0.39,
      1.175,
      0.49,
      1.2725,
      0.5875,
      1.37,
      0.685
    ],
    "SoftwareVersions": "syngo_MR_E11",
    "SpacingBetweenSlices": 2,
    "StationName": "MRC35049",
    "TaskName": "life04",
    "TotalReadoutTime": 0.0576811,
    "TxRefAmp": 249.571,
    "dataset": "<unset>",
    "dcmmeta_affine": [
      [
        -1.9967575073242188,
        -0.11373377591371536,
        -0.004926599096506834,
        110.98065185546875
      ],
      [
        -0.09878801554441452,
        1.7741280794143677,
        -0.9179925322532654,
        -47.486881256103516
      ],
      [
        -0.05657358840107918,
        0.9162608981132507,
        1.776869535446167,
        -90.69851684570312
      ],
      [
        0.0,
        0.0,
        0.0,
        1.0
      ]
    ],
    "dcmmeta_reorient_transform": [
      [
        0.0,
        -1.0,
        0.0,
        103.0
      ],
      [
        1.0,
        0.0,
        0.0,
        0.0
      ],
      [
        0.0,
        0.0,
        1.0,
        0.0
      ],
      [
        0.0,
        0.0,
        0.0,
        1.0
      ]
    ],
    "dcmmeta_shape": [
      104,
      104,
      60,
      409
    ],
    "dcmmeta_slice_dim": 2,
    "dcmmeta_version": 0.6,
    "global": {
      "const": {
        "AcquisitionMatrix": [
          104,
          0,
          0,
          104
        ],
        "AngioFlag": "N",
        "BitsAllocated": 16,
        "BitsStored": 16,
        "BodyPartExamined": "BRAIN",
        "Columns": 832,
        "EchoNumbers": 1,
        "EchoTime": 37.0,
        "EchoTrainLength": 104,
        "FlipAngle": 52.0,
        "HighBit": 15,
        "ImageOrientationPatient": [
          0.99837873034863,
          0.04939400855337,
          -0.0282867938531,
          -0.0568668879332,
          0.8870640656601,
          -0.4581304404549
        ],
        "ImagePositionPatient": [
          -784.68669777549,
          -816.98979575464,
          357.7880976845
        ],
        "ImageType": [
          "ORIGINAL",
          "PRIMARY",
          "M",
          "MB",
          "ND",
          "MOSAIC"
        ],
        "ImagedNucleus": "1H",
        "ImagingFrequency": 123.25924,
        "InPlanePhaseEncodingDirection": "COL",
        "MRAcquisitionType": "2D",
        "MagneticFieldStrength": 3.0,
        "Manufacturer": "SIEMENS",
        "ManufacturerModelName": "Prisma_fit",
        "Modality": "MR",
        "NumberOfAverages": 1.0,
        "NumberOfPhaseEncodingSteps": 104,
        "PercentPhaseFieldOfView": 100.0,
        "PercentSampling": 100.0,
        "PerformedProcedureStepStartTime": "142646.848000",
        "PhotometricInterpretation": "MONOCHROME2",
        "PixelBandwidth": 2290.0,
        "PixelRepresentation": 0,
        "PixelSpacing": [
          2.0,
          2.0
        ],
        "ProtocolName": "func_task-life4",
        "RepetitionTime": 1490.0,
        "Rows": 832,
        "SAR": 0.03789201121217,
        "SamplesPerPixel": 1,
        "ScanOptions": "FS",
        "ScanningSequence": "EP",
        "SequenceName": "epfid2d1_104",
        "SequenceVariant": [
          "SK",
          "SS"
        ],
        "SeriesDescription": "func_task-life4",
        "SeriesNumber": 13,
        "SeriesTime": "151135.375000",
        "SliceLocation": -59.056797169156,
        "SliceThickness": 2.0,
        "SmallestImagePixelValue": 0,
        "SoftwareVersions": "syngo MR E11",
        "SpacingBetweenSlices": 1.9999999920743,
        "SpecificCharacterSet": "ISO_IR 100",
        "StudyID": "1",
        "StudyTime": "142646.738000",
        "TransmitCoilName": "Body",
        "VariableFlipAngleFlag": "N",
        "WindowCenterWidthExplanation": "Algo1",
        "dBdt": 0.0
      },
      "slices": {}
    },
    "modality": "bold",
    "run_id": 2,
    "session_id": "009",
    "subject_id": "02",
    "task_id": "life04",
    "time": {
      "samples": {
        "AcquisitionNumber": [
          1,
          2,
          3,
          4,
          5,
          6,
          7,
          8,
          9,
          10,
          11,
          12,
          13,
          14,
          15,
          16,
          17,
          18,
          19,
          20,
          21,
          22,
          23,
          24,
          25,
          26,
          27,
          28,
          29,
          30,
          31,
          32,
          33,
          34,
          35,
          36,
          37,
          38,
          39,
          40,
          41,
          42,
          43,
          44,
          45,
          46,
          47,
          48,
          49,
          50,
          51,
          52,
          53,
          54,
          55,
          56,
          57,
          58,
          59,
          60,
          61,
          62,
          63,
          64,
          65,
          66,
          67,
          68,
          69,
          70,
          71,
          72,
          73,
          74,
          75,
          76,
          77,
          78,
          79,
          80,
          81,
          82,
          83,
          84,
          85,
          86,
          87,
          88,
          89,
          90,
          91,
          92,
          93,
          94,
          95,
          96,
          97,
          98,
          99,
          100,
          101,
          102,
          103,
          104,
          105,
          106,
          107,
          108,
          109,
          110,
          111,
          112,
          113,
          114,
          115,
          116,
          117,
          118,
          119,
          120,
          121,
          122,
          123,
          124,
          125,
          126,
          127,
          128,
          129,
          130,
          131,
          132,
          133,
          134,
          135,
          136,
          137,
          138,
          139,
          140,
          141,
          142,
          143,
          144,
          145,
          146,
          147,
          148,
          149,
          150,
          151,
          152,
          153,
          154,
          155,
          156,
          157,
          158,
          159,
          160,
          161,
          162,
          163,
          164,
          165,
          166,
          167,
          168,
          169,
          170,
          171,
          172,
          173,
          174,
          175,
          176,
          177,
          178,
          179,
          180,
          181,
          182,
          183,
          184,
          185,
          186,
          187,
          188,
          189,
          190,
          191,
          192,
          193,
          194,
          195,
          196,
          197,
          198,
          199,
          200,
          201,
          202,
          203,
          204,
          205,
          206,
          207,
          208,
          209,
          210,
          211,
          212,
          213,
          214,
          215,
          216,
          217,
          218,
          219,
          220,
          221,
          222,
          223,
          224,
          225,
          226,
          227,
          228,
          229,
          230,
          231,
          232,
          233,
          234,
          235,
          236,
          237,
          238,
          239,
          240,
          241,
          242,
          243,
          244,
          245,
          246,
          247,
          248,
          249,
          250,
          251,
          252,
          253,
          254,
          255,
          256,
          257,
          258,
          259,
          260,
          261,
          262,
          263,
          264,
          265,
          266,
          267,
          268,
          269,
          270,
          271,
          272,
          273,
          274,
          275,
          276,
          277,
          278,
          279,
          280,
          281,
          282,
          283,
          284,
          285,
          286,
          287,
          288,
          289,
          290,
          291,
          292,
          293,
          294,
          295,
          296,
          297,
          298,
          299,
          300,
          301,
          302,
          303,
          304,
          305,
          306,
          307,
          308,
          309,
          310,
          311,
          312,
          313,
          314,
          315,
          316,
          317,
          318,
          319,
          320,
          321,
          322,
          323,
          324,
          325,
          326,
          327,
          328,
          329,
          330,
          331,
          332,
          333,
          334,
          335,
          336,
          337,
          338,
          339,
          340,
          341,
          342,
          343,
          344,
          345,
          346,
          347,
          348,
          349,
          350,
          351,
          352,
          353,
          354,
          355,
          356,
          357,
          358,
          359,
          360,
          361,
          362,
          363,
          364,
          365,
          366,
          367,
          368,
          369,
          370,
          371,
          372,
          373,
          374,
          375,
          376,
          377,
          378,
          379,
          380,
          381,
          382,
          383,
          384,
          385,
          386,
          387,
          388,
          389,
          390,
          391,
          392,
          393,
          394,
          395,
          396,
          397,
          398,
          399,
          400,
          401,
          402,
          403,
          404,
          405,
          406,
          407,
          408,
          409
        ],
        "AcquisitionTime": [
          "151013.057500",
          "151014.547500",
          "151016.037500",
          "151017.527500",
          "151019.017500",
          "151020.507500",
          "151021.997500",
          "151023.487500",
          "151024.977500",
          "151026.467500",
          "151027.957500",
          "151029.447500",
          "151030.937500",
          "151032.427500",
          "151033.917500",
          "151035.407500",
          "151036.897500",
          "151038.387500",
          "151039.877500",
          "151041.367500",
          "151042.857500",
          "151044.347500",
          "151045.837500",
          "151047.327500",
          "151048.817500",
          "151050.307500",
          "151051.797500",
          "151053.287500",
          "151054.777500",
          "151056.267500",
          "151057.757500",
          "151059.247500",
          "151100.737500",
          "151102.227500",
          "151103.717500",
          "151105.207500",
          "151106.697500",
          "151108.187500",
          "151109.677500",
          "151111.167500",
          "151112.657500",
          "151114.147500",
          "151115.637500",
          "151117.127500",
          "151118.617500",
          "151120.107500",
          "151121.597500",
          "151123.087500",
          "151124.577500",
          "151126.067500",
          "151127.557500",
          "151129.047500",
          "151130.537500",
          "151132.027500",
          "151133.517500",
          "151135.007500",
          "151136.497500",
          "151137.987500",
          "151139.477500",
          "151140.967500",
          "151142.457500",
          "151143.947500",
          "151145.437500",
          "151146.927500",
          "151148.417500",
          "151149.907500",
          "151151.397500",
          "151152.887500",
          "151154.377500",
          "151155.867500",
          "151157.357500",
          "151158.847500",
          "151200.337500",
          "151201.827500",
          "151203.317500",
          "151204.807500",
          "151206.297500",
          "151207.787500",
          "151209.277500",
          "151210.767500",
          "151212.257500",
          "151213.747500",
          "151215.237500",
          "151216.727500",
          "151218.217500",
          "151219.707500",
          "151221.197500",
          "151222.687500",
          "151224.177500",
          "151225.667500",
          "151227.157500",
          "151228.647500",
          "151230.137500",
          "151231.627500",
          "151233.117500",
          "151234.607500",
          "151236.097500",
          "151237.587500",
          "151239.077500",
          "151240.567500",
          "151242.057500",
          "151243.547500",
          "151245.037500",
          "151246.527500",
          "151248.017500",
          "151249.507500",
          "151250.997500",
          "151252.487500",
          "151253.977500",
          "151255.467500",
          "151256.957500",
          "151258.447500",
          "151259.937500",
          "151301.427500",
          "151302.917500",
          "151304.407500",
          "151305.897500",
          "151307.387500",
          "151308.877500",
          "151310.367500",
          "151311.857500",
          "151313.347500",
          "151314.837500",
          "151316.327500",
          "151317.817500",
          "151319.307500",
          "151320.797500",
          "151322.287500",
          "151323.777500",
          "151325.267500",
          "151326.757500",
          "151328.247500",
          "151329.737500",
          "151331.227500",
          "151332.717500",
          "151334.207500",
          "151335.697500",
          "151337.187500",
          "151338.677500",
          "151340.167500",
          "151341.657500",
          "151343.147500",
          "151344.637500",
          "151346.127500",
          "151347.617500",
          "151349.107500",
          "151350.597500",
          "151352.087500",
          "151353.577500",
          "151355.067500",
          "151356.557500",
          "151358.047500",
          "151359.537500",
          "151401.027500",
          "151402.517500",
          "151404.007500",
          "151405.497500",
          "151406.987500",
          "151408.477500",
          "151409.967500",
          "151411.457500",
          "151412.947500",
          "151414.437500",
          "151415.927500",
          "151417.417500",
          "151418.907500",
          "151420.397500",
          "151421.887500",
          "151423.377500",
          "151424.867500",
          "151426.357500",
          "151427.847500",
          "151429.337500",
          "151430.827500",
          "151432.317500",
          "151433.807500",
          "151435.297500",
          "151436.787500",
          "151438.277500",
          "151439.767500",
          "151441.257500",
          "151442.747500",
          "151444.237500",
          "151445.727500",
          "151447.217500",
          "151448.707500",
          "151450.197500",
          "151451.687500",
          "151453.177500",
          "151454.667500",
          "151456.157500",
          "151457.647500",
          "151459.137500",
          "151500.627500",
          "151502.117500",
          "151503.607500",
          "151505.097500",
          "151506.587500",
          "151508.077500",
          "151509.567500",
          "151511.057500",
          "151512.547500",
          "151514.037500",
          "151515.527500",
          "151517.017500",
          "151518.507500",
          "151519.997500",
          "151521.487500",
          "151522.977500",
          "151524.467500",
          "151525.957500",
          "151527.447500",
          "151528.937500",
          "151530.427500",
          "151531.917500",
          "151533.407500",
          "151534.897500",
          "151536.387500",
          "151537.877500",
          "151539.367500",
          "151540.857500",
          "151542.347500",
          "151543.837500",
          "151545.327500",
          "151546.817500",
          "151548.307500",
          "151549.797500",
          "151551.287500",
          "151552.777500",
          "151554.267500",
          "151555.757500",
          "151557.247500",
          "151558.737500",
          "151600.227500",
          "151601.717500",
          "151603.207500",
          "151604.697500",
          "151606.187500",
          "151607.677500",
          "151609.167500",
          "151610.657500",
          "151612.147500",
          "151613.637500",
          "151615.127500",
          "151616.617500",
          "151618.107500",
          "151619.597500",
          "151621.087500",
          "151622.577500",
          "151624.067500",
          "151625.557500",
          "151627.047500",
          "151628.537500",
          "151630.027500",
          "151631.517500",
          "151633.007500",
          "151634.497500",
          "151635.987500",
          "151637.477500",
          "151638.967500",
          "151640.457500",
          "151641.947500",
          "151643.437500",
          "151644.927500",
          "151646.417500",
          "151647.907500",
          "151649.397500",
          "151650.887500",
          "151652.377500",
          "151653.867500",
          "151655.357500",
          "151656.847500",
          "151658.337500",
          "151659.827500",
          "151701.317500",
          "151702.807500",
          "151704.297500",
          "151705.787500",
          "151707.277500",
          "151708.767500",
          "151710.257500",
          "151711.747500",
          "151713.237500",
          "151714.727500",
          "151716.217500",
          "151717.707500",
          "151719.197500",
          "151720.687500",
          "151722.177500",
          "151723.667500",
          "151725.157500",
          "151726.647500",
          "151728.137500",
          "151729.627500",
          "151731.117500",
          "151732.607500",
          "151734.097500",
          "151735.587500",
          "151737.077500",
          "151738.567500",
          "151740.057500",
          "151741.547500",
          "151743.037500",
          "151744.527500",
          "151746.017500",
          "151747.507500",
          "151748.997500",
          "151750.487500",
          "151751.977500",
          "151753.467500",
          "151754.957500",
          "151756.447500",
          "151757.937500",
          "151759.427500",
          "151800.917500",
          "151802.407500",
          "151803.897500",
          "151805.387500",
          "151806.877500",
          "151808.367500",
          "151809.857500",
          "151811.347500",
          "151812.837500",
          "151814.327500",
          "151815.817500",
          "151817.307500",
          "151818.797500",
          "151820.287500",
          "151821.777500",
          "151823.267500",
          "151824.757500",
          "151826.247500",
          "151827.737500",
          "151829.227500",
          "151830.717500",
          "151832.207500",
          "151833.697500",
          "151835.187500",
          "151836.677500",
          "151838.167500",
          "151839.657500",
          "151841.147500",
          "151842.637500",
          "151844.127500",
          "151845.617500",
          "151847.107500",
          "151848.597500",
          "151850.087500",
          "151851.577500",
          "151853.067500",
          "151854.557500",
          "151856.047500",
          "151857.537500",
          "151859.027500",
          "151900.517500",
          "151902.007500",
          "151903.497500",
          "151904.987500",
          "151906.477500",
          "151907.967500",
          "151909.457500",
          "151910.947500",
          "151912.437500",
          "151913.927500",
          "151915.417500",
          "151916.907500",
          "151918.397500",
          "151919.887500",
          "151921.377500",
          "151922.867500",
          "151924.357500",
          "151925.847500",
          "151927.337500",
          "151928.827500",
          "151930.317500",
          "151931.807500",
          "151933.297500",
          "151934.787500",
          "151936.277500",
          "151937.767500",
          "151939.257500",
          "151940.747500",
          "151942.237500",
          "151943.727500",
          "151945.217500",
          "151946.707500",
          "151948.197500",
          "151949.687500",
          "151951.177500",
          "151952.667500",
          "151954.157500",
          "151955.647500",
          "151957.137500",
          "151958.627500",
          "152000.117500",
          "152001.607500",
          "152003.097500",
          "152004.587500",
          "152006.077500",
          "152007.567500",
          "152009.057500",
          "152010.547500",
          "152012.037500",
          "152013.527500",
          "152015.017500",
          "152016.507500",
          "152017.997500",
          "152019.487500",
          "152020.977500"
        ],
        "ContentTime": [
          "151135.378000",
          "151135.387000",
          "151135.390000",
          "151135.393000",
          "151135.396000",
          "151135.398000",
          "151135.401000",
          "151135.404000",
          "151135.407000",
          "151135.410000",
          "151135.413000",
          "151135.416000",
          "151135.419000",
          "151135.422000",
          "151135.425000",
          "151135.428000",
          "151135.431000",
          "151135.434000",
          "151135.436000",
          "151135.439000",
          "151135.442000",
          "151135.453000",
          "151135.456000",
          "151135.459000",
          "151135.462000",
          "151135.465000",
          "151135.468000",
          "151155.338000",
          "151155.341000",
          "151155.345000",
          "151155.348000",
          "151155.351000",
          "151155.354000",
          "151155.357000",
          "151155.360000",
          "151155.363000",
          "151155.366000",
          "151155.369000",
          "151155.372000",
          "151155.377000",
          "151155.380000",
          "151155.383000",
          "151155.386000",
          "151155.389000",
          "151155.392000",
          "151155.395000",
          "151155.398000",
          "151215.338000",
          "151215.341000",
          "151215.344000",
          "151215.347000",
          "151215.350000",
          "151215.353000",
          "151215.356000",
          "151215.359000",
          "151215.361000",
          "151215.364000",
          "151215.367000",
          "151215.370000",
          "151215.373000",
          "151215.376000",
          "151215.385000",
          "151215.388000",
          "151215.390000",
          "151215.393000",
          "151215.396000",
          "151215.399000",
          "151235.338000",
          "151235.341000",
          "151235.344000",
          "151235.347000",
          "151235.350000",
          "151235.353000",
          "151235.356000",
          "151235.363000",
          "151235.366000",
          "151235.369000",
          "151235.372000",
          "151235.375000",
          "151235.378000",
          "151235.381000",
          "151235.384000",
          "151235.387000",
          "151235.389000",
          "151235.392000",
          "151235.395000",
          "151235.398000",
          "151235.401000",
          "151255.339000",
          "151255.342000",
          "151255.345000",
          "151255.348000",
          "151255.351000",
          "151255.354000",
          "151255.357000",
          "151255.360000",
          "151255.363000",
          "151255.366000",
          "151255.369000",
          "151255.371000",
          "151255.374000",
          "151255.377000",
          "151255.380000",
          "151255.383000",
          "151255.386000",
          "151255.389000",
          "151255.392000",
          "151255.395000",
          "151335.338000",
          "151335.341000",
          "151335.344000",
          "151335.347000",
          "151335.350000",
          "151335.353000",
          "151335.356000",
          "151335.359000",
          "151335.362000",
          "151335.364000",
          "151335.367000",
          "151335.370000",
          "151335.377000",
          "151335.380000",
          "151335.383000",
          "151335.386000",
          "151335.389000",
          "151335.392000",
          "151335.395000",
          "151335.398000",
          "151335.401000",
          "151335.418000",
          "151335.421000",
          "151335.424000",
          "151335.427000",
          "151335.430000",
          "151335.433000",
          "151415.338000",
          "151415.341000",
          "151415.344000",
          "151415.347000",
          "151415.350000",
          "151415.353000",
          "151415.356000",
          "151415.359000",
          "151415.362000",
          "151415.365000",
          "151415.368000",
          "151415.371000",
          "151415.374000",
          "151415.377000",
          "151415.380000",
          "151415.383000",
          "151415.386000",
          "151415.388000",
          "151415.391000",
          "151415.394000",
          "151415.397000",
          "151415.401000",
          "151415.404000",
          "151415.407000",
          "151415.410000",
          "151415.413000",
          "151455.338000",
          "151455.341000",
          "151455.344000",
          "151455.347000",
          "151455.350000",
          "151455.353000",
          "151455.356000",
          "151455.359000",
          "151455.362000",
          "151455.364000",
          "151455.367000",
          "151455.370000",
          "151455.373000",
          "151455.376000",
          "151455.379000",
          "151455.382000",
          "151455.385000",
          "151455.388000",
          "151455.391000",
          "151455.394000",
          "151455.397000",
          "151455.400000",
          "151455.402000",
          "151455.405000",
          "151455.408000",
          "151455.411000",
          "151455.414000",
          "151535.339000",
          "151535.342000",
          "151535.345000",
          "151535.348000",
          "151535.351000",
          "151535.354000",
          "151535.357000",
          "151535.360000",
          "151535.363000",
          "151535.366000",
          "151535.369000",
          "151535.372000",
          "151535.374000",
          "151535.377000",
          "151535.380000",
          "151535.392000",
          "151535.395000",
          "151535.398000",
          "151535.400000",
          "151535.403000",
          "151535.406000",
          "151535.409000",
          "151535.412000",
          "151535.415000",
          "151535.418000",
          "151535.421000",
          "151535.424000",
          "151615.338000",
          "151615.341000",
          "151615.344000",
          "151615.347000",
