{
  "aor": 0.0010218461538461538,
  "aqi": 0.007448434230769231,
  "bids_meta": {
    "AcquisitionMatrixPE": 104,
    "AcquisitionNumber": 1,
    "AcquisitionTime": "15:20:53.915000",
    "BandwidthPerPixelPhaseEncode": 17.17,
    "BaseResolution": 104,
    "BodyPartExamined": "BRAIN",
    "CogAtlasID": "trm_4c898da401420",
    "ConsistencyInfo": "N4_VE11C_LATEST_20160120",
    "ConversionSoftware": "dcm2niix",
    "ConversionSoftwareVersion": "v1.0.20171215 (OpenJPEG build) GCC7.3.0",
    "DerivedVendorReportedEchoSpacing": 0.000560011,
    "DeviceSerialNumber": "167006",
    "DwellTime": 2.1e-06,
    "EchoTime": 0.037,
    "EchoTrainLength": 104,
    "EffectiveEchoSpacing": 0.000560011,
    "FlipAngle": 52,
    "ImageComments": "Unaliased_MB4_PE3_LB",
    "ImageOrientationPatientDICOM": [
      0.998379,
      0.049394,
      -0.0282868,
      -0.0568669,
      0.887064,
      -0.45813
    ],
    "ImageType": [
      "ORIGINAL",
      "PRIMARY",
      "M",
      "MB",
      "ND",
      "MOSAIC"
    ],
    "InPlanePhaseEncodingDirectionDICOM": "COL",
    "InstitutionAddress": "Chemin_Queen-Mary_4565_Montreal_District_CA_H3W_1W5",
    "InstitutionName": "IUGM",
    "InstitutionalDepartmentName": "Department",
    "MRAcquisitionType": "2D",
    "MagneticFieldStrength": 3,
    "Manufacturer": "Siemens",
    "ManufacturersModelName": "Prisma_fit",
    "Modality": "MR",
    "MultibandAccelerationFactor": 4,
    "PartialFourier": 1,
    "PatientPosition": "HFS",
    "PercentPhaseFOV": 100,
    "PhaseEncodingDirection": "j-",
    "PhaseEncodingSteps": 104,
    "PhaseResolution": 1,
    "PixelBandwidth": 2290,
    "ProcedureStepDescription": "video5_generic",
    "ProtocolName": "func_task-life5",
    "PulseSequenceDetails": "%CustomerSeq%_cmrr_mbep2d_bold",
    "ReceiveCoilActiveElements": "HC1-7;NC1,2",
    "ReceiveCoilName": "HeadNeck_64",
    "ReconMatrixPE": 104,
    "RepetitionTime": 1.49,
    "SAR": 0.0378836,
    "ScanOptions": "FS",
    "ScanningSequence": "EP",
    "SequenceName": "epfid2d1_104",
    "SequenceVariant": "SK_SS",
    "SeriesDescription": "func_task-life5",
    "SeriesNumber": 15,
    "ShimSetting": [
      618,
      -7200,
      -8879,
      401,
      14,
      -157,
      6,
      -30
    ],
    "SliceThickness": 2,
    "SliceTiming": [
      0,
      0.785,
      0.1,
      0.8825,
      0.1975,
      0.98,
      0.295,
      1.08,
      0.3925,
      1.1775,
      0.49,
      1.275,
      0.59,
      1.3725,
      0.6875,
      0,
      0.785,
      0.1,
      0.8825,
      0.1975,
      0.98,
      0.295,
      1.08,
      0.3925,
      1.1775,
      0.49,
      1.275,
      0.59,
      1.3725,
      0.6875,
      0,
      0.785,
      0.1,
      0.8825,
      0.1975,
      0.98,
      0.295,
      1.08,
      0.3925,
      1.1775,
      0.49,
      1.275,
      0.59,
      1.3725,
      0.6875,
      0,
      0.785,
      0.1,
      0.8825,
      0.1975,
      0.98,
      0.295,
      1.08,
      0.3925,
      1.1775,
      0.49,
      1.275,
      0.59,
      1.3725,
      0.6875
    ],
    "SoftwareVersions": "syngo_MR_E11",
    "SpacingBetweenSlices": 2,
    "StationName": "MRC35049",
    "TaskName": "life05",
    "TotalReadoutTime": 0.0576811,
    "TxRefAmp": 249.571,
    "dataset": "<unset>",
    "dcmmeta_affine": [
      [
        -1.9967575073242188,
        -0.11373377591371536,
        -0.004926599096506834,
        110.98065185546875
      ],
      [
        -0.09878801554441452,
        1.7741280794143677,
        -0.9179925322532654,
        -47.486881256103516
      ],
      [
        -0.05657358840107918,
        0.9162608981132507,
        1.776869535446167,
        -90.69851684570312
      ],
      [
        0.0,
        0.0,
        0.0,
        1.0
      ]
    ],
    "dcmmeta_reorient_transform": [
      [
        0.0,
        -1.0,
        0.0,
        103.0
      ],
      [
        1.0,
        0.0,
        0.0,
        0.0
      ],
      [
        0.0,
        0.0,
        1.0,
        0.0
      ],
      [
        0.0,
        0.0,
        0.0,
        1.0
      ]
    ],
    "dcmmeta_shape": [
      104,
      104,
      60,
      391
    ],
    "dcmmeta_slice_dim": 2,
    "dcmmeta_version": 0.6,
    "global": {
      "const": {
        "AcquisitionMatrix": [
          104,
          0,
          0,
          104
        ],
        "AngioFlag": "N",
        "BitsAllocated": 16,
        "BitsStored": 16,
        "BodyPartExamined": "BRAIN",
        "Columns": 832,
        "EchoNumbers": 1,
        "EchoTime": 37.0,
        "EchoTrainLength": 104,
        "FlipAngle": 52.0,
        "HighBit": 15,
        "ImageOrientationPatient": [
          0.99837873034863,
          0.04939400855337,
          -0.0282867938531,
          -0.0568668879332,
          0.8870640656601,
          -0.4581304404549
        ],
        "ImagePositionPatient": [
          -784.68669777549,
          -816.98979575464,
          357.7880976845
        ],
        "ImageType": [
          "ORIGINAL",
          "PRIMARY",
          "M",
          "MB",
          "ND",
          "MOSAIC"
        ],
        "ImagedNucleus": "1H",
        "ImagingFrequency": 123.259242,
        "InPlanePhaseEncodingDirection": "COL",
        "MRAcquisitionType": "2D",
        "MagneticFieldStrength": 3.0,
        "Manufacturer": "SIEMENS",
        "ManufacturerModelName": "Prisma_fit",
        "Modality": "MR",
        "NumberOfAverages": 1.0,
        "NumberOfPhaseEncodingSteps": 104,
        "PercentPhaseFieldOfView": 100.0,
        "PercentSampling": 100.0,
        "PerformedProcedureStepStartTime": "142646.848000",
        "PhotometricInterpretation": "MONOCHROME2",
        "PixelBandwidth": 2290.0,
        "PixelRepresentation": 0,
        "PixelSpacing": [
          2.0,
          2.0
        ],
        "ProtocolName": "func_task-life5",
        "RepetitionTime": 1490.0,
        "Rows": 832,
        "SAR": 0.03788362222063,
        "SamplesPerPixel": 1,
        "ScanOptions": "FS",
        "ScanningSequence": "EP",
        "SequenceName": "epfid2d1_104",
        "SequenceVariant": [
          "SK",
          "SS"
        ],
        "SeriesDescription": "func_task-life5",
        "SeriesNumber": 15,
        "SeriesTime": "152209.132000",
        "SliceLocation": -59.056797169156,
        "SliceThickness": 2.0,
        "SmallestImagePixelValue": 0,
        "SoftwareVersions": "syngo MR E11",
        "SpacingBetweenSlices": 1.9999999920743,
        "SpecificCharacterSet": "ISO_IR 100",
        "StudyID": "1",
        "StudyTime": "142646.738000",
        "TransmitCoilName": "Body",
        "VariableFlipAngleFlag": "N",
        "WindowCenterWidthExplanation": "Algo1",
        "dBdt": 0.0
      },
      "slices": {}
    },
    "modality": "bold",
    "run_id": 2,
    "session_id": "009",
    "subject_id": "02",
    "task_id": "life05",
    "time": {
      "samples": {
        "AcquisitionNumber": [
          1,
          2,
          3,
          4,
          5,
          6,
          7,
          8,
          9,
          10,
          11,
          12,
          13,
          14,
          15,
          16,
          17,
          18,
          19,
          20,
          21,
          22,
          23,
          24,
          25,
          26,
          27,
          28,
          29,
          30,
          31,
          32,
          33,
          34,
          35,
          36,
          37,
          38,
          39,
          40,
          41,
          42,
          43,
          44,
          45,
          46,
          47,
          48,
          49,
          50,
          51,
          52,
          53,
          54,
          55,
          56,
          57,
          58,
          59,
          60,
          61,
          62,
          63,
          64,
          65,
          66,
          67,
          68,
          69,
          70,
          71,
          72,
          73,
          74,
          75,
          76,
          77,
          78,
          79,
          80,
          81,
          82,
          83,
          84,
          85,
          86,
          87,
          88,
          89,
          90,
          91,
          92,
          93,
          94,
          95,
          96,
          97,
          98,
          99,
          100,
          101,
          102,
          103,
          104,
          105,
          106,
          107,
          108,
          109,
          110,
          111,
          112,
          113,
          114,
          115,
          116,
          117,
          118,
          119,
          120,
          121,
          122,
          123,
          124,
          125,
          126,
          127,
          128,
          129,
          130,
          131,
          132,
          133,
          134,
          135,
          136,
          137,
          138,
          139,
          140,
          141,
          142,
          143,
          144,
          145,
          146,
          147,
          148,
          149,
          150,
          151,
          152,
          153,
          154,
          155,
          156,
          157,
          158,
          159,
          160,
          161,
          162,
          163,
          164,
          165,
          166,
          167,
          168,
          169,
          170,
          171,
          172,
          173,
          174,
          175,
          176,
          177,
          178,
          179,
          180,
          181,
          182,
          183,
          184,
          185,
          186,
          187,
          188,
          189,
          190,
          191,
          192,
          193,
          194,
          195,
          196,
          197,
          198,
          199,
          200,
          201,
          202,
          203,
          204,
          205,
          206,
          207,
          208,
          209,
          210,
          211,
          212,
          213,
          214,
          215,
          216,
          217,
          218,
          219,
          220,
          221,
          222,
          223,
          224,
          225,
          226,
          227,
          228,
          229,
          230,
          231,
          232,
          233,
          234,
          235,
          236,
          237,
          238,
          239,
          240,
          241,
          242,
          243,
          244,
          245,
          246,
          247,
          248,
          249,
          250,
          251,
          252,
          253,
          254,
          255,
          256,
          257,
          258,
          259,
          260,
          261,
          262,
          263,
          264,
          265,
          266,
          267,
          268,
          269,
          270,
          271,
          272,
          273,
          274,
          275,
          276,
          277,
          278,
          279,
          280,
          281,
          282,
          283,
          284,
          285,
          286,
          287,
          288,
          289,
          290,
          291,
          292,
          293,
          294,
          295,
          296,
          297,
          298,
          299,
          300,
          301,
          302,
          303,
          304,
          305,
          306,
          307,
          308,
          309,
          310,
          311,
          312,
          313,
          314,
          315,
          316,
          317,
          318,
          319,
          320,
          321,
          322,
          323,
          324,
          325,
          326,
          327,
          328,
          329,
          330,
          331,
          332,
          333,
          334,
          335,
          336,
          337,
          338,
          339,
          340,
          341,
          342,
          343,
          344,
          345,
          346,
          347,
          348,
          349,
          350,
          351,
          352,
          353,
          354,
          355,
          356,
          357,
          358,
          359,
          360,
          361,
          362,
          363,
          364,
          365,
          366,
          367,
          368,
          369,
          370,
          371,
          372,
          373,
          374,
          375,
          376,
          377,
          378,
          379,
          380,
          381,
          382,
          383,
          384,
          385,
          386,
          387,
          388,
          389,
          390,
          391
        ],
        "AcquisitionTime": [
          "152053.915000",
          "152055.405000",
          "152056.895000",
          "152058.385000",
          "152059.875000",
          "152101.365000",
          "152102.855000",
          "152104.345000",
          "152105.835000",
          "152107.325000",
          "152108.815000",
          "152110.305000",
          "152111.795000",
          "152113.285000",
          "152114.775000",
          "152116.265000",
          "152117.755000",
          "152119.245000",
          "152120.735000",
          "152122.225000",
          "152123.715000",
          "152125.205000",
          "152126.695000",
          "152128.185000",
          "152129.675000",
          "152131.165000",
          "152132.655000",
          "152134.145000",
          "152135.635000",
          "152137.125000",
          "152138.615000",
          "152140.105000",
          "152141.595000",
          "152143.085000",
          "152144.575000",
          "152146.065000",
          "152147.555000",
          "152149.045000",
          "152150.535000",
          "152152.025000",
          "152153.515000",
          "152155.005000",
          "152156.495000",
          "152157.985000",
          "152159.475000",
          "152200.965000",
          "152202.455000",
          "152203.945000",
          "152205.435000",
          "152206.925000",
          "152208.415000",
          "152209.905000",
          "152211.395000",
          "152212.885000",
          "152214.375000",
          "152215.865000",
          "152217.355000",
          "152218.845000",
          "152220.335000",
          "152221.825000",
          "152223.315000",
          "152224.805000",
          "152226.295000",
          "152227.785000",
          "152229.275000",
          "152230.765000",
          "152232.255000",
          "152233.745000",
          "152235.235000",
          "152236.725000",
          "152238.215000",
          "152239.705000",
          "152241.195000",
          "152242.685000",
          "152244.175000",
          "152245.665000",
          "152247.155000",
          "152248.645000",
          "152250.135000",
          "152251.625000",
          "152253.115000",
          "152254.605000",
          "152256.095000",
          "152257.585000",
          "152259.075000",
          "152300.565000",
          "152302.055000",
          "152303.545000",
          "152305.035000",
          "152306.525000",
          "152308.015000",
          "152309.505000",
          "152310.995000",
          "152312.485000",
          "152313.975000",
          "152315.465000",
          "152316.955000",
          "152318.445000",
          "152319.935000",
          "152321.425000",
          "152322.915000",
          "152324.405000",
          "152325.895000",
          "152327.385000",
          "152328.875000",
          "152330.365000",
          "152331.855000",
          "152333.345000",
          "152334.835000",
          "152336.325000",
          "152337.815000",
          "152339.305000",
          "152340.795000",
          "152342.285000",
          "152343.775000",
          "152345.265000",
          "152346.755000",
          "152348.245000",
          "152349.735000",
          "152351.225000",
          "152352.715000",
          "152354.205000",
          "152355.695000",
          "152357.185000",
          "152358.675000",
          "152400.165000",
          "152401.655000",
          "152403.145000",
          "152404.635000",
          "152406.125000",
          "152407.615000",
          "152409.105000",
          "152410.595000",
          "152412.085000",
          "152413.575000",
          "152415.065000",
          "152416.555000",
          "152418.045000",
          "152419.535000",
          "152421.025000",
          "152422.515000",
          "152424.005000",
          "152425.495000",
          "152426.985000",
          "152428.475000",
          "152429.965000",
          "152431.455000",
          "152432.945000",
          "152434.435000",
          "152435.925000",
          "152437.415000",
          "152438.905000",
          "152440.395000",
          "152441.885000",
          "152443.375000",
          "152444.865000",
          "152446.355000",
          "152447.845000",
          "152449.335000",
          "152450.825000",
          "152452.315000",
          "152453.805000",
          "152455.295000",
          "152456.785000",
          "152458.275000",
          "152459.765000",
          "152501.255000",
          "152502.745000",
          "152504.235000",
          "152505.725000",
          "152507.215000",
          "152508.705000",
          "152510.195000",
          "152511.685000",
          "152513.175000",
          "152514.665000",
          "152516.155000",
          "152517.645000",
          "152519.135000",
          "152520.625000",
          "152522.115000",
          "152523.605000",
          "152525.095000",
          "152526.585000",
          "152528.075000",
          "152529.565000",
          "152531.055000",
          "152532.545000",
          "152534.035000",
          "152535.525000",
          "152537.015000",
          "152538.505000",
          "152539.995000",
          "152541.485000",
          "152542.975000",
          "152544.465000",
          "152545.955000",
          "152547.445000",
          "152548.935000",
          "152550.425000",
          "152551.915000",
          "152553.405000",
          "152554.895000",
          "152556.385000",
          "152557.875000",
          "152559.365000",
          "152600.855000",
          "152602.345000",
          "152603.835000",
          "152605.325000",
          "152606.815000",
          "152608.305000",
          "152609.795000",
          "152611.285000",
          "152612.775000",
          "152614.265000",
          "152615.755000",
          "152617.245000",
          "152618.735000",
          "152620.225000",
          "152621.715000",
          "152623.205000",
          "152624.695000",
          "152626.185000",
          "152627.675000",
          "152629.165000",
          "152630.655000",
          "152632.145000",
          "152633.635000",
          "152635.125000",
          "152636.615000",
          "152638.105000",
          "152639.595000",
          "152641.085000",
          "152642.575000",
          "152644.065000",
          "152645.555000",
          "152647.045000",
          "152648.535000",
          "152650.025000",
          "152651.515000",
          "152653.005000",
          "152654.495000",
          "152655.985000",
          "152657.475000",
          "152658.965000",
          "152700.455000",
          "152701.945000",
          "152703.435000",
          "152704.925000",
          "152706.415000",
          "152707.905000",
          "152709.395000",
          "152710.885000",
          "152712.375000",
          "152713.865000",
          "152715.355000",
          "152716.845000",
          "152718.335000",
          "152719.825000",
          "152721.315000",
          "152722.805000",
          "152724.295000",
          "152725.785000",
          "152727.275000",
          "152728.765000",
          "152730.255000",
          "152731.745000",
          "152733.235000",
          "152734.725000",
          "152736.215000",
          "152737.705000",
          "152739.195000",
          "152740.685000",
          "152742.175000",
          "152743.665000",
          "152745.155000",
          "152746.645000",
          "152748.135000",
          "152749.625000",
          "152751.115000",
          "152752.605000",
          "152754.095000",
          "152755.585000",
          "152757.075000",
          "152758.565000",
          "152800.055000",
          "152801.545000",
          "152803.035000",
          "152804.525000",
          "152806.015000",
          "152807.505000",
          "152808.995000",
          "152810.485000",
          "152811.975000",
          "152813.465000",
          "152814.955000",
          "152816.445000",
          "152817.935000",
          "152819.425000",
          "152820.915000",
          "152822.405000",
          "152823.895000",
          "152825.385000",
          "152826.875000",
          "152828.365000",
          "152829.855000",
          "152831.345000",
          "152832.835000",
          "152834.325000",
          "152835.815000",
          "152837.305000",
          "152838.795000",
          "152840.285000",
          "152841.775000",
          "152843.265000",
          "152844.755000",
          "152846.245000",
          "152847.735000",
          "152849.225000",
          "152850.715000",
          "152852.205000",
          "152853.695000",
          "152855.185000",
          "152856.675000",
          "152858.165000",
          "152859.655000",
          "152901.145000",
          "152902.635000",
          "152904.125000",
          "152905.615000",
          "152907.105000",
          "152908.595000",
          "152910.085000",
          "152911.575000",
          "152913.065000",
          "152914.555000",
          "152916.045000",
          "152917.535000",
          "152919.025000",
          "152920.515000",
          "152922.005000",
          "152923.495000",
          "152924.985000",
          "152926.475000",
          "152927.965000",
          "152929.455000",
          "152930.945000",
          "152932.435000",
          "152933.925000",
          "152935.415000",
          "152936.905000",
          "152938.395000",
          "152939.885000",
          "152941.375000",
          "152942.865000",
          "152944.355000",
          "152945.845000",
          "152947.335000",
          "152948.825000",
          "152950.315000",
          "152951.805000",
          "152953.295000",
          "152954.785000",
          "152956.275000",
          "152957.765000",
          "152959.255000",
          "153000.745000",
          "153002.235000",
          "153003.725000",
          "153005.215000",
          "153006.705000",
          "153008.195000",
          "153009.685000",
          "153011.175000",
          "153012.665000",
          "153014.155000",
          "153015.645000",
          "153017.135000",
          "153018.625000",
          "153020.115000",
          "153021.605000",
          "153023.095000",
          "153024.585000",
          "153026.075000",
          "153027.565000",
          "153029.055000",
          "153030.545000",
          "153032.035000",
          "153033.525000",
          "153035.015000"
        ],
        "ContentTime": [
          "152209.135000",
          "152209.139000",
          "152209.142000",
          "152209.145000",
          "152209.151000",
          "152209.154000",
          "152209.157000",
          "152209.160000",
          "152209.163000",
          "152209.166000",
          "152209.173000",
          "152209.176000",
          "152209.179000",
          "152209.182000",
          "152209.185000",
          "152209.188000",
          "152209.191000",
          "152209.194000",
          "152209.197000",
          "152209.200000",
          "152209.203000",
          "152229.099000",
          "152229.102000",
          "152229.105000",
          "152229.108000",
          "152229.111000",
          "152229.114000",
          "152229.116000",
          "152229.119000",
          "152229.122000",
          "152229.125000",
          "152229.128000",
          "152229.131000",
          "152229.134000",
          "152229.137000",
          "152229.140000",
          "152229.143000",
          "152229.146000",
          "152229.149000",
          "152229.152000",
          "152229.155000",
          "152249.099000",
          "152249.102000",
          "152249.105000",
          "152249.113000",
          "152249.116000",
          "152249.119000",
          "152249.122000",
          "152249.125000",
          "152249.128000",
          "152249.131000",
          "152249.134000",
          "152249.137000",
          "152249.140000",
          "152249.143000",
          "152249.146000",
          "152249.148000",
          "152249.151000",
          "152249.154000",
          "152249.162000",
          "152249.165000",
          "152249.168000",
          "152309.100000",
          "152309.103000",
          "152309.126000",
          "152309.129000",
          "152309.132000",
          "152309.135000",
          "152309.138000",
          "152309.141000",
          "152309.144000",
          "152309.147000",
          "152309.150000",
          "152309.152000",
          "152309.155000",
          "152309.158000",
          "152309.161000",
          "152309.164000",
          "152309.167000",
          "152309.170000",
          "152309.173000",
          "152309.176000",
          "152329.100000",
          "152329.103000",
          "152329.106000",
          "152329.109000",
          "152329.112000",
          "152329.115000",
          "152329.118000",
          "152329.120000",
          "152329.123000",
          "152329.126000",
          "152329.129000",
          "152329.132000",
          "152329.135000",
          "152329.138000",
          "152329.141000",
          "152329.144000",
          "152329.147000",
          "152329.150000",
          "152329.153000",
          "152329.155000",
          "152409.100000",
          "152409.103000",
          "152409.106000",
          "152409.109000",
          "152409.112000",
          "152409.115000",
          "152409.118000",
          "152409.121000",
          "152409.124000",
          "152409.127000",
          "152409.130000",
          "152409.132000",
          "152409.135000",
          "152409.138000",
          "152409.145000",
          "152409.148000",
          "152409.151000",
          "152409.154000",
          "152409.157000",
          "152409.160000",
          "152409.163000",
          "152409.166000",
          "152409.169000",
          "152409.172000",
          "152409.175000",
          "152409.177000",
          "152409.180000",
          "152409.183000",
          "152449.099000",
          "152449.102000",
          "152449.105000",
          "152449.108000",
          "152449.111000",
          "152449.114000",
          "152449.117000",
          "152449.120000",
          "152449.123000",
          "152449.126000",
          "152449.129000",
          "152449.131000",
          "152449.135000",
          "152449.138000",
          "152449.140000",
          "152449.143000",
          "152449.146000",
          "152449.149000",
          "152449.152000",
          "152449.155000",
          "152449.158000",
          "152449.161000",
          "152449.164000",
          "152449.167000",
          "152449.170000",
          "152449.173000",
          "152449.176000",
          "152529.100000",
          "152529.103000",
          "152529.106000",
          "152529.109000",
          "152529.112000",
          "152529.115000",
          "152529.118000",
          "152529.121000",
          "152529.123000",
          "152529.126000",
          "152529.129000",
          "152529.132000",
          "152529.135000",
          "152529.138000",
          "152529.141000",
          "152529.144000",
          "152529.147000",
          "152529.150000",
          "152529.152000",
          "152529.155000",
          "152529.158000",
          "152529.161000",
          "152529.164000",
          "152529.167000",
          "152529.170000",
          "152529.173000",
          "152529.176000",
          "152609.100000",
          "152609.103000",
          "152609.106000",
          "152609.109000",
          "152609.112000",
          "152609.115000",
          "152609.118000",
          "152609.120000",
          "152609.123000",
          "152609.126000",
          "152609.129000",
          "152609.132000",
          "152609.135000",
          "152609.138000",
          "152609.141000",
          "152609.144000",
          "152609.147000",
          "152609.150000",
          "152609.153000",
          "152609.156000",
          "152609.159000",
          "152609.162000",
          "152609.165000",
          "152609.168000",
          "152609.170000",
          "152609.173000",
          "152609.176000",
          "152649.100000",
          "152649.103000",
          "152649.106000",
          "152649.109000",
          "152649.112000",
          "152649.115000",
          "152649.118000",
          "152649.121000",
          "152649.124000",
          "152649.127000",
          "152649.130000",
          "152649.132000",
          "152649.135000",
          "152649.138000",
          "152649.141000",
          "152649.144000",
          "152649.147000",
          "152649.150000",
          "152649.153000",
          "152649.156000",
          "152649.159000",
          "152649.162000",
          "152649.165000",
          "152649.168000",
          "152649.171000",
          "152649.173000",
          "152649.176000",
          "152729.100000",
          "152729.103000",
          "152729.106000",
          "152729.109000",
          "152729.112000",
          "152729.115000",
          "152729.118000",
          "152729.121000",
          "152729.124000",
