{
  "aor": 0.0004914460784313725,
  "aqi": 0.011402646960784316,
  "bids_meta": {
    "AcquisitionMatrixPE": 104,
    "AcquisitionNumber": 1,
    "AcquisitionTime": "14:38:35.632500",
    "BandwidthPerPixelPhaseEncode": 17.17,
    "BaseResolution": 104,
    "BodyPartExamined": "BRAIN",
    "CogAtlasID": "trm_4c898da401420",
    "ConsistencyInfo": "N4_VE11C_LATEST_20160120",
    "ConversionSoftware": "dcm2niix",
    "ConversionSoftwareVersion": "v1.0.20171215 (OpenJPEG build) GCC7.3.0",
    "DerivedVendorReportedEchoSpacing": 0.000560011,
    "DeviceSerialNumber": "167006",
    "DwellTime": 2.1e-06,
    "EchoTime": 0.037,
    "EchoTrainLength": 104,
    "EffectiveEchoSpacing": 0.000560011,
    "FlipAngle": 52,
    "ImageComments": "Unaliased_MB4_PE3_LB",
    "ImageOrientationPatientDICOM": [
      0.998379,
      0.049394,
      -0.0282868,
      -0.0568669,
      0.887064,
      -0.45813
    ],
    "ImageType": [
      "ORIGINAL",
      "PRIMARY",
      "M",
      "MB",
      "ND",
      "MOSAIC"
    ],
    "InPlanePhaseEncodingDirectionDICOM": "COL",
    "InstitutionAddress": "Chemin_Queen-Mary_4565_Montreal_District_CA_H3W_1W5",
    "InstitutionName": "IUGM",
    "InstitutionalDepartmentName": "Department",
    "MRAcquisitionType": "2D",
    "MagneticFieldStrength": 3,
    "Manufacturer": "Siemens",
    "ManufacturersModelName": "Prisma_fit",
    "Modality": "MR",
    "MultibandAccelerationFactor": 4,
    "PartialFourier": 1,
    "PatientPosition": "HFS",
    "PercentPhaseFOV": 100,
    "PhaseEncodingDirection": "j-",
    "PhaseEncodingSteps": 104,
    "PhaseResolution": 1,
    "PixelBandwidth": 2290,
    "ProcedureStepDescription": "video5_generic",
    "ProtocolName": "func_task-life1",
    "PulseSequenceDetails": "%CustomerSeq%_cmrr_mbep2d_bold",
    "ReceiveCoilActiveElements": "HC1-7;NC1,2",
    "ReceiveCoilName": "HeadNeck_64",
    "ReconMatrixPE": 104,
    "RepetitionTime": 1.49,
    "SAR": 0.037892,
    "ScanOptions": "FS",
    "ScanningSequence": "EP",
    "SequenceName": "epfid2d1_104",
    "SequenceVariant": "SK_SS",
    "SeriesDescription": "func_task-life1",
    "SeriesNumber": 7,
    "ShimSetting": [
      618,
      -7200,
      -8879,
      401,
      14,
      -157,
      6,
      -30
    ],
    "SliceThickness": 2,
    "SliceTiming": [
      0,
      0.7825,
      0.0975,
      0.88,
      0.195,
      0.9775,
      0.2925,
      1.0775,
      0.39,
      1.175,
      0.49,
      1.2725,
      0.5875,
      1.37,
      0.685,
      0,
      0.7825,
      0.0975,
      0.88,
      0.195,
      0.9775,
      0.2925,
      1.0775,
      0.39,
      1.175,
      0.49,
      1.2725,
      0.5875,
      1.37,
      0.685,
      0,
      0.7825,
      0.0975,
      0.88,
      0.195,
      0.9775,
      0.2925,
      1.0775,
      0.39,
      1.175,
      0.49,
      1.2725,
      0.5875,
      1.37,
      0.685,
      0,
      0.7825,
      0.0975,
      0.88,
      0.195,
      0.9775,
      0.2925,
      1.0775,
      0.39,
      1.175,
      0.49,
      1.2725,
      0.5875,
      1.37,
      0.685
    ],
    "SoftwareVersions": "syngo_MR_E11",
    "SpacingBetweenSlices": 2,
    "StationName": "MRC35049",
    "TaskName": "life01",
    "TotalReadoutTime": 0.0576811,
    "TxRefAmp": 249.571,
    "dataset": "<unset>",
    "dcmmeta_affine": [
      [
        -1.9967575073242188,
        -0.11373377591371536,
        -0.004926599096506834,
        110.98065185546875
      ],
      [
        -0.09878801554441452,
        1.7741280794143677,
        -0.9179925322532654,
        -47.486881256103516
      ],
      [
        -0.05657358840107918,
        0.9162608981132507,
        1.776869535446167,
        -90.69851684570312
      ],
      [
        0.0,
        0.0,
        0.0,
        1.0
      ]
    ],
    "dcmmeta_reorient_transform": [
      [
        0.0,
        -1.0,
        0.0,
        103.0
      ],
      [
        1.0,
        0.0,
        0.0,
        0.0
      ],
      [
        0.0,
        0.0,
        1.0,
        0.0
      ],
      [
        0.0,
        0.0,
        0.0,
        1.0
      ]
    ],
    "dcmmeta_shape": [
      104,
      104,
      60,
      409
    ],
    "dcmmeta_slice_dim": 2,
    "dcmmeta_version": 0.6,
    "global": {
      "const": {
        "AcquisitionMatrix": [
          104,
          0,
          0,
          104
        ],
        "AngioFlag": "N",
        "BitsAllocated": 16,
        "BitsStored": 16,
        "BodyPartExamined": "BRAIN",
        "Columns": 832,
        "EchoNumbers": 1,
        "EchoTime": 37.0,
        "EchoTrainLength": 104,
        "FlipAngle": 52.0,
        "HighBit": 15,
        "ImageOrientationPatient": [
          0.99837873034863,
          0.04939400855337,
          -0.0282867938531,
          -0.0568668879332,
          0.8870640656601,
          -0.4581304404549
        ],
        "ImagePositionPatient": [
          -784.68669777549,
          -816.98979575464,
          357.7880976845
        ],
        "ImageType": [
          "ORIGINAL",
          "PRIMARY",
          "M",
          "MB",
          "ND",
          "MOSAIC"
        ],
        "ImagedNucleus": "1H",
        "ImagingFrequency": 123.259224,
        "InPlanePhaseEncodingDirection": "COL",
        "MRAcquisitionType": "2D",
        "MagneticFieldStrength": 3.0,
        "Manufacturer": "SIEMENS",
        "ManufacturerModelName": "Prisma_fit",
        "Modality": "MR",
        "NumberOfAverages": 1.0,
        "NumberOfPhaseEncodingSteps": 104,
        "PercentPhaseFieldOfView": 100.0,
        "PercentSampling": 100.0,
        "PerformedProcedureStepStartTime": "142646.848000",
        "PhotometricInterpretation": "MONOCHROME2",
        "PixelBandwidth": 2290.0,
        "PixelRepresentation": 0,
        "PixelSpacing": [
          2.0,
          2.0
        ],
        "ProtocolName": "func_task-life1",
        "RepetitionTime": 1490.0,
        "Rows": 832,
        "SAR": 0.03789201121217,
        "SamplesPerPixel": 1,
        "ScanOptions": "FS",
        "ScanningSequence": "EP",
        "SequenceName": "epfid2d1_104",
        "SequenceVariant": [
          "SK",
          "SS"
        ],
        "SeriesDescription": "func_task-life1",
        "SeriesNumber": 7,
        "SeriesTime": "143955.361000",
        "SliceLocation": -59.056797169156,
        "SliceThickness": 2.0,
        "SmallestImagePixelValue": 0,
        "SoftwareVersions": "syngo MR E11",
        "SpacingBetweenSlices": 1.9999999920743,
        "SpecificCharacterSet": "ISO_IR 100",
        "StudyID": "1",
        "StudyTime": "142646.738000",
        "TransmitCoilName": "Body",
        "VariableFlipAngleFlag": "N",
        "WindowCenterWidthExplanation": "Algo1",
        "dBdt": 0.0
      },
      "slices": {}
    },
    "modality": "bold",
    "run_id": 2,
    "session_id": "009",
    "subject_id": "02",
    "task_id": "life01",
    "time": {
      "samples": {
        "AcquisitionNumber": [
          1,
          2,
          3,
          4,
          5,
          6,
          7,
          8,
          9,
          10,
          11,
          12,
          13,
          14,
          15,
          16,
          17,
          18,
          19,
          20,
          21,
          22,
          23,
          24,
          25,
          26,
          27,
          28,
          29,
          30,
          31,
          32,
          33,
          34,
          35,
          36,
          37,
          38,
          39,
          40,
          41,
          42,
          43,
          44,
          45,
          46,
          47,
          48,
          49,
          50,
          51,
          52,
          53,
          54,
          55,
          56,
          57,
          58,
          59,
          60,
          61,
          62,
          63,
          64,
          65,
          66,
          67,
          68,
          69,
          70,
          71,
          72,
          73,
          74,
          75,
          76,
          77,
          78,
          79,
          80,
          81,
          82,
          83,
          84,
          85,
          86,
          87,
          88,
          89,
          90,
          91,
          92,
          93,
          94,
          95,
          96,
          97,
          98,
          99,
          100,
          101,
          102,
          103,
          104,
          105,
          106,
          107,
          108,
          109,
          110,
          111,
          112,
          113,
          114,
          115,
          116,
          117,
          118,
          119,
          120,
          121,
          122,
          123,
          124,
          125,
          126,
          127,
          128,
          129,
          130,
          131,
          132,
          133,
          134,
          135,
          136,
          137,
          138,
          139,
          140,
          141,
          142,
          143,
          144,
          145,
          146,
          147,
          148,
          149,
          150,
          151,
          152,
          153,
          154,
          155,
          156,
          157,
          158,
          159,
          160,
          161,
          162,
          163,
          164,
          165,
          166,
          167,
          168,
          169,
          170,
          171,
          172,
          173,
          174,
          175,
          176,
          177,
          178,
          179,
          180,
          181,
          182,
          183,
          184,
          185,
          186,
          187,
          188,
          189,
          190,
          191,
          192,
          193,
          194,
          195,
          196,
          197,
          198,
          199,
          200,
          201,
          202,
          203,
          204,
          205,
          206,
          207,
          208,
          209,
          210,
          211,
          212,
          213,
          214,
          215,
          216,
          217,
          218,
          219,
          220,
          221,
          222,
          223,
          224,
          225,
          226,
          227,
          228,
          229,
          230,
          231,
          232,
          233,
          234,
          235,
          236,
          237,
          238,
          239,
          240,
          241,
          242,
          243,
          244,
          245,
          246,
          247,
          248,
          249,
          250,
          251,
          252,
          253,
          254,
          255,
          256,
          257,
          258,
          259,
          260,
          261,
          262,
          263,
          264,
          265,
          266,
          267,
          268,
          269,
          270,
          271,
          272,
          273,
          274,
          275,
          276,
          277,
          278,
          279,
          280,
          281,
          282,
          283,
          284,
          285,
          286,
          287,
          288,
          289,
          290,
          291,
          292,
          293,
          294,
          295,
          296,
          297,
          298,
          299,
          300,
          301,
          302,
          303,
          304,
          305,
          306,
          307,
          308,
          309,
          310,
          311,
          312,
          313,
          314,
          315,
          316,
          317,
          318,
          319,
          320,
          321,
          322,
          323,
          324,
          325,
          326,
          327,
          328,
          329,
          330,
          331,
          332,
          333,
          334,
          335,
          336,
          337,
          338,
          339,
          340,
          341,
          342,
          343,
          344,
          345,
          346,
          347,
          348,
          349,
          350,
          351,
          352,
          353,
          354,
          355,
          356,
          357,
          358,
          359,
          360,
          361,
          362,
          363,
          364,
          365,
          366,
          367,
          368,
          369,
          370,
          371,
          372,
          373,
          374,
          375,
          376,
          377,
          378,
          379,
          380,
          381,
          382,
          383,
          384,
          385,
          386,
          387,
          388,
          389,
          390,
          391,
          392,
          393,
          394,
          395,
          396,
          397,
          398,
          399,
          400,
          401,
          402,
          403,
          404,
          405,
          406,
          407,
          408,
          409
        ],
        "AcquisitionTime": [
          "143835.632500",
          "143837.122500",
          "143838.612500",
          "143840.102500",
          "143841.592500",
          "143843.082500",
          "143844.572500",
          "143846.062500",
          "143847.552500",
          "143849.042500",
          "143850.532500",
          "143852.022500",
          "143853.512500",
          "143855.002500",
          "143856.492500",
          "143857.982500",
          "143859.472500",
          "143900.962500",
          "143902.452500",
          "143903.942500",
          "143905.432500",
          "143906.922500",
          "143908.412500",
          "143909.902500",
          "143911.392500",
          "143912.882500",
          "143914.372500",
          "143915.862500",
          "143917.352500",
          "143918.842500",
          "143920.332500",
          "143921.822500",
          "143923.312500",
          "143924.802500",
          "143926.292500",
          "143927.782500",
          "143929.272500",
          "143930.762500",
          "143932.252500",
          "143933.742500",
          "143935.232500",
          "143936.722500",
          "143938.212500",
          "143939.702500",
          "143941.192500",
          "143942.682500",
          "143944.172500",
          "143945.662500",
          "143947.152500",
          "143948.642500",
          "143950.132500",
          "143951.622500",
          "143953.112500",
          "143954.602500",
          "143956.092500",
          "143957.582500",
          "143959.072500",
          "144000.562500",
          "144002.052500",
          "144003.542500",
          "144005.032500",
          "144006.522500",
          "144008.012500",
          "144009.502500",
          "144010.992500",
          "144012.482500",
          "144013.972500",
          "144015.462500",
          "144016.952500",
          "144018.442500",
          "144019.932500",
          "144021.422500",
          "144022.912500",
          "144024.402500",
          "144025.892500",
          "144027.382500",
          "144028.872500",
          "144030.362500",
          "144031.852500",
          "144033.342500",
          "144034.832500",
          "144036.322500",
          "144037.812500",
          "144039.302500",
          "144040.792500",
          "144042.282500",
          "144043.772500",
          "144045.262500",
          "144046.752500",
          "144048.242500",
          "144049.732500",
          "144051.222500",
          "144052.712500",
          "144054.202500",
          "144055.692500",
          "144057.182500",
          "144058.672500",
          "144100.162500",
          "144101.652500",
          "144103.142500",
          "144104.632500",
          "144106.122500",
          "144107.612500",
          "144109.102500",
          "144110.592500",
          "144112.082500",
          "144113.572500",
          "144115.062500",
          "144116.552500",
          "144118.042500",
          "144119.532500",
          "144121.022500",
          "144122.512500",
          "144124.002500",
          "144125.492500",
          "144126.982500",
          "144128.472500",
          "144129.962500",
          "144131.452500",
          "144132.942500",
          "144134.432500",
          "144135.922500",
          "144137.412500",
          "144138.902500",
          "144140.392500",
          "144141.882500",
          "144143.372500",
          "144144.862500",
          "144146.352500",
          "144147.842500",
          "144149.332500",
          "144150.822500",
          "144152.312500",
          "144153.802500",
          "144155.292500",
          "144156.782500",
          "144158.272500",
          "144159.762500",
          "144201.252500",
          "144202.742500",
          "144204.232500",
          "144205.722500",
          "144207.212500",
          "144208.702500",
          "144210.192500",
          "144211.682500",
          "144213.172500",
          "144214.662500",
          "144216.152500",
          "144217.642500",
          "144219.132500",
          "144220.622500",
          "144222.112500",
          "144223.602500",
          "144225.092500",
          "144226.582500",
          "144228.072500",
          "144229.562500",
          "144231.052500",
          "144232.542500",
          "144234.032500",
          "144235.522500",
          "144237.012500",
          "144238.502500",
          "144239.992500",
          "144241.482500",
          "144242.972500",
          "144244.462500",
          "144245.952500",
          "144247.442500",
          "144248.932500",
          "144250.422500",
          "144251.912500",
          "144253.402500",
          "144254.892500",
          "144256.382500",
          "144257.872500",
          "144259.362500",
          "144300.852500",
          "144302.342500",
          "144303.832500",
          "144305.322500",
          "144306.812500",
          "144308.302500",
          "144309.792500",
          "144311.282500",
          "144312.772500",
          "144314.262500",
          "144315.752500",
          "144317.242500",
          "144318.732500",
          "144320.222500",
          "144321.712500",
          "144323.202500",
          "144324.692500",
          "144326.182500",
          "144327.672500",
          "144329.162500",
          "144330.652500",
          "144332.142500",
          "144333.632500",
          "144335.122500",
          "144336.612500",
          "144338.102500",
          "144339.592500",
          "144341.082500",
          "144342.572500",
          "144344.062500",
          "144345.552500",
          "144347.042500",
          "144348.532500",
          "144350.022500",
          "144351.512500",
          "144353.002500",
          "144354.492500",
          "144355.982500",
          "144357.472500",
          "144358.962500",
          "144400.452500",
          "144401.942500",
          "144403.432500",
          "144404.922500",
          "144406.412500",
          "144407.902500",
          "144409.392500",
          "144410.882500",
          "144412.372500",
          "144413.862500",
          "144415.352500",
          "144416.842500",
          "144418.332500",
          "144419.822500",
          "144421.312500",
          "144422.802500",
          "144424.292500",
          "144425.782500",
          "144427.272500",
          "144428.762500",
          "144430.252500",
          "144431.742500",
          "144433.232500",
          "144434.722500",
          "144436.212500",
          "144437.702500",
          "144439.192500",
          "144440.682500",
          "144442.172500",
          "144443.662500",
          "144445.152500",
          "144446.642500",
          "144448.132500",
          "144449.622500",
          "144451.112500",
          "144452.602500",
          "144454.092500",
          "144455.582500",
          "144457.072500",
          "144458.562500",
          "144500.052500",
          "144501.542500",
          "144503.032500",
          "144504.522500",
          "144506.012500",
          "144507.502500",
          "144508.992500",
          "144510.482500",
          "144511.972500",
          "144513.462500",
          "144514.952500",
          "144516.442500",
          "144517.932500",
          "144519.422500",
          "144520.912500",
          "144522.402500",
          "144523.892500",
          "144525.382500",
          "144526.872500",
          "144528.362500",
          "144529.852500",
          "144531.342500",
          "144532.832500",
          "144534.322500",
          "144535.812500",
          "144537.302500",
          "144538.792500",
          "144540.282500",
          "144541.772500",
          "144543.262500",
          "144544.752500",
          "144546.242500",
          "144547.732500",
          "144549.222500",
          "144550.712500",
          "144552.202500",
          "144553.692500",
          "144555.182500",
          "144556.672500",
          "144558.162500",
          "144559.652500",
          "144601.142500",
          "144602.632500",
          "144604.122500",
          "144605.612500",
          "144607.102500",
          "144608.592500",
          "144610.082500",
          "144611.572500",
          "144613.062500",
          "144614.552500",
          "144616.042500",
          "144617.532500",
          "144619.022500",
          "144620.512500",
          "144622.002500",
          "144623.492500",
          "144624.982500",
          "144626.472500",
          "144627.962500",
          "144629.452500",
          "144630.942500",
          "144632.432500",
          "144633.922500",
          "144635.412500",
          "144636.902500",
          "144638.392500",
          "144639.882500",
          "144641.372500",
          "144642.862500",
          "144644.352500",
          "144645.842500",
          "144647.332500",
          "144648.822500",
          "144650.312500",
          "144651.802500",
          "144653.292500",
          "144654.782500",
          "144656.272500",
          "144657.762500",
          "144659.252500",
          "144700.742500",
          "144702.232500",
          "144703.722500",
          "144705.212500",
          "144706.702500",
          "144708.192500",
          "144709.682500",
          "144711.172500",
          "144712.662500",
          "144714.152500",
          "144715.642500",
          "144717.132500",
          "144718.622500",
          "144720.112500",
          "144721.602500",
          "144723.092500",
          "144724.582500",
          "144726.072500",
          "144727.562500",
          "144729.052500",
          "144730.542500",
          "144732.032500",
          "144733.522500",
          "144735.012500",
          "144736.502500",
          "144737.992500",
          "144739.482500",
          "144740.972500",
          "144742.462500",
          "144743.952500",
          "144745.442500",
          "144746.932500",
          "144748.422500",
          "144749.912500",
          "144751.402500",
          "144752.892500",
          "144754.382500",
          "144755.872500",
          "144757.362500",
          "144758.852500",
          "144800.342500",
          "144801.832500",
          "144803.322500",
          "144804.812500",
          "144806.302500",
          "144807.792500",
          "144809.282500",
          "144810.772500",
          "144812.262500",
          "144813.752500",
          "144815.242500",
          "144816.732500",
          "144818.222500",
          "144819.712500",
          "144821.202500",
          "144822.692500",
          "144824.182500",
          "144825.672500",
          "144827.162500",
          "144828.652500",
          "144830.142500",
          "144831.632500",
          "144833.122500",
          "144834.612500",
          "144836.102500",
          "144837.592500",
          "144839.082500",
          "144840.572500",
          "144842.062500",
          "144843.552500"
        ],
        "ContentTime": [
          "143955.364000",
          "143955.368000",
          "143955.370000",
          "143955.373000",
          "143955.376000",
          "143955.379000",
          "143955.382000",
          "143955.385000",
          "143955.388000",
          "143955.391000",
          "143955.394000",
          "143955.397000",
          "143955.400000",
          "143955.403000",
          "143955.406000",
          "143955.409000",
          "143955.411000",
          "143955.414000",
          "143955.417000",
          "143955.420000",
          "143955.423000",
          "143955.426000",
          "143955.429000",
          "143955.432000",
          "143955.437000",
          "144015.338000",
          "144015.341000",
          "144015.344000",
          "144015.347000",
          "144015.350000",
          "144015.353000",
          "144015.356000",
          "144015.358000",
          "144015.361000",
          "144015.364000",
          "144015.367000",
          "144015.370000",
          "144015.373000",
          "144015.376000",
          "144015.379000",
          "144015.382000",
          "144015.385000",
          "144015.388000",
          "144015.390000",
          "144015.393000",
          "144035.339000",
          "144035.342000",
          "144035.345000",
          "144035.348000",
          "144035.351000",
          "144035.354000",
          "144035.357000",
          "144035.359000",
          "144035.362000",
          "144035.365000",
          "144035.368000",
          "144035.388000",
          "144035.391000",
          "144035.394000",
          "144035.397000",
          "144035.400000",
          "144035.403000",
          "144035.406000",
          "144035.409000",
          "144035.419000",
          "144055.339000",
          "144055.342000",
          "144055.345000",
          "144055.348000",
          "144055.351000",
          "144055.354000",
          "144055.356000",
          "144055.359000",
          "144055.362000",
          "144055.365000",
          "144055.368000",
          "144055.371000",
          "144055.374000",
          "144055.377000",
          "144055.380000",
          "144055.383000",
          "144055.386000",
          "144055.389000",
          "144055.392000",
          "144055.395000",
          "144115.338000",
          "144115.341000",
          "144115.344000",
          "144115.347000",
          "144115.350000",
          "144115.353000",
          "144115.356000",
          "144115.359000",
          "144115.361000",
          "144115.364000",
          "144115.367000",
          "144115.370000",
          "144115.373000",
          "144115.376000",
          "144115.379000",
          "144115.382000",
          "144115.385000",
          "144115.388000",
          "144115.391000",
          "144115.393000",
          "144115.396000",
          "144155.338000",
          "144155.341000",
          "144155.344000",
          "144155.347000",
          "144155.350000",
          "144155.353000",
          "144155.360000",
          "144155.364000",
          "144155.367000",
          "144155.369000",
          "144155.372000",
          "144155.375000",
          "144155.378000",
          "144155.381000",
          "144155.384000",
          "144155.387000",
          "144155.390000",
          "144155.393000",
          "144155.396000",
          "144155.399000",
          "144155.402000",
          "144155.405000",
          "144155.408000",
          "144155.411000",
          "144155.413000",
          "144155.416000",
          "144155.419000",
          "144235.338000",
          "144235.341000",
          "144235.344000",
          "144235.347000",
          "144235.350000",
          "144235.353000",
          "144235.356000",
          "144235.359000",
          "144235.362000",
          "144235.365000",
          "144235.368000",
          "144235.378000",
          "144235.381000",
          "144235.384000",
          "144235.387000",
          "144235.390000",
          "144235.393000",
          "144235.396000",
          "144235.399000",
          "144235.402000",
          "144235.405000",
          "144235.408000",
          "144235.411000",
          "144235.414000",
          "144235.417000",
          "144235.420000",
          "144235.423000",
          "144315.339000",
          "144315.351000",
          "144315.354000",
          "144315.357000",
          "144315.359000",
          "144315.362000",
          "144315.365000",
          "144315.368000",
          "144315.371000",
          "144315.374000",
          "144315.377000",
          "144315.380000",
          "144315.383000",
          "144315.386000",
          "144315.389000",
          "144315.392000",
          "144315.395000",
          "144315.398000",
          "144315.401000",
          "144315.404000",
          "144315.407000",
          "144315.409000",
          "144315.412000",
          "144315.415000",
          "144315.418000",
          "144315.421000",
          "144315.424000",
          "144355.338000",
          "144355.341000",
          "144355.344000",
          "144355.347000",
          "144355.350000",
          "144355.353000",
          "144355.356000",
          "144355.359000",
          "144355.362000",
          "144355.365000",
          "144355.368000",
          "144355.371000",
          "144355.374000",
          "144355.377000",
          "144355.380000",
          "144355.383000",
          "144355.385000",
          "144355.388000",
          "144355.391000",
          "144355.394000",
          "144355.397000",
          "144355.400000",
          "144355.403000",
          "144355.406000",
          "144355.409000",
          "144355.412000",
          "144355.415000",
          "144435.338000",
          "144435.341000",
          "144435.344000",
          "144435.347000",
          "144435.350000",
