{
  "aor": 0.0010001243781094528,
  "aqi": 0.006906901293532338,
  "bids_meta": {
    "AcquisitionMatrixPE": 104,
    "AcquisitionNumber": 1,
    "AcquisitionTime": "11:22:32.650000",
    "BandwidthPerPixelPhaseEncode": 17.17,
    "BaseResolution": 104,
    "BodyPartExamined": "BRAIN",
    "CogAtlasID": "trm_4c898da401420",
    "ConsistencyInfo": "N4_VE11C_LATEST_20160120",
    "ConversionSoftware": "dcm2niix",
    "ConversionSoftwareVersion": "v1.0.20171215 (OpenJPEG build) GCC7.3.0",
    "DerivedVendorReportedEchoSpacing": 0.000560011,
    "DeviceSerialNumber": "167006",
    "DwellTime": 2.1e-06,
    "EchoTime": 0.037,
    "EchoTrainLength": 104,
    "EffectiveEchoSpacing": 0.000560011,
    "FlipAngle": 52,
    "ImageComments": "Unaliased_MB4_PE3_LB",
    "ImageOrientationPatientDICOM": [
      0.999732,
      0.00883063,
      -0.0214048,
      -0.0177994,
      0.884342,
      -0.466501
    ],
    "ImageType": [
      "ORIGINAL",
      "PRIMARY",
      "M",
      "MB",
      "ND",
      "MOSAIC"
    ],
    "InPlanePhaseEncodingDirectionDICOM": "COL",
    "InstitutionAddress": "Chemin_Queen-Mary_4565_Montreal_District_CA_H3W_1W5",
    "InstitutionName": "IUGM",
    "InstitutionalDepartmentName": "Department",
    "MRAcquisitionType": "2D",
    "MagneticFieldStrength": 3,
    "Manufacturer": "Siemens",
    "ManufacturersModelName": "Prisma_fit",
    "Modality": "MR",
    "MultibandAccelerationFactor": 4,
    "PartialFourier": 1,
    "PatientPosition": "HFS",
    "PercentPhaseFOV": 100,
    "PhaseEncodingDirection": "j-",
    "PhaseEncodingSteps": 104,
    "PhaseResolution": 1,
    "PixelBandwidth": 2290,
    "ProcedureStepDescription": "video5_generic",
    "ProtocolName": "func_task-bourne10",
    "PulseSequenceDetails": "%CustomerSeq%_cmrr_mbep2d_bold",
    "ReceiveCoilActiveElements": "HC1-7;NC1,2",
    "ReceiveCoilName": "HeadNeck_64",
    "ReconMatrixPE": 104,
    "RepetitionTime": 1.49,
    "SAR": 0.035737,
    "ScanOptions": "FS",
    "ScanningSequence": "EP",
    "SequenceName": "epfid2d1_104",
    "SequenceVariant": "SK_SS",
    "SeriesDescription": "func_task-bourne10",
    "SeriesNumber": 15,
    "ShimSetting": [
      616,
      -7175,
      -8874,
      362,
      -27,
      -113,
      -29,
      -27
    ],
    "SliceThickness": 2,
    "SliceTiming": [
      0,
      0.7825,
      0.0975,
      0.8825,
      0.195,
      0.98,
      0.2925,
      1.0775,
      0.3925,
      1.175,
      0.49,
      1.2725,
      0.5875,
      1.3725,
      0.685,
      0,
      0.7825,
      0.0975,
      0.8825,
      0.195,
      0.98,
      0.2925,
      1.0775,
      0.3925,
      1.175,
      0.49,
      1.2725,
      0.5875,
      1.3725,
      0.685,
      0,
      0.7825,
      0.0975,
      0.8825,
      0.195,
      0.98,
      0.2925,
      1.0775,
      0.3925,
      1.175,
      0.49,
      1.2725,
      0.5875,
      1.3725,
      0.685,
      0,
      0.7825,
      0.0975,
      0.8825,
      0.195,
      0.98,
      0.2925,
      1.0775,
      0.3925,
      1.175,
      0.49,
      1.2725,
      0.5875,
      1.3725,
      0.685
    ],
    "SoftwareVersions": "syngo_MR_E11",
    "SpacingBetweenSlices": 2,
    "StationName": "MRC35049",
    "TaskName": "bourne10",
    "TotalReadoutTime": 0.0576811,
    "TxRefAmp": 248.528,
    "dataset": "<unset>",
    "dcmmeta_affine": [
      [
        -1.9994637966156006,
        -0.03559885919094086,
        -0.029619330540299416,
        108.64227294921875
      ],
      [
        -0.017661264166235924,
        1.7686831951141357,
        -0.9335137009620667,
        -60.67439651489258
      ],
      [
        -0.0428096167743206,
        0.9330018758773804,
        1.7685233354568481,
        -96.05810546875
      ],
      [
        0.0,
        0.0,
        0.0,
        1.0
      ]
    ],
    "dcmmeta_reorient_transform": [
      [
        0.0,
        -1.0,
        0.0,
        103.0
      ],
      [
        1.0,
        0.0,
        0.0,
        0.0
      ],
      [
        0.0,
        0.0,
        1.0,
        0.0
      ],
      [
        0.0,
        0.0,
        0.0,
        1.0
      ]
    ],
    "dcmmeta_shape": [
      104,
      104,
      60,
      405
    ],
    "dcmmeta_slice_dim": 2,
    "dcmmeta_version": 0.6,
    "global": {
      "const": {
        "AcquisitionMatrix": [
          104,
          0,
          0,
          104
        ],
        "AngioFlag": "N",
        "BitsAllocated": 16,
        "BitsStored": 16,
        "BodyPartExamined": "BRAIN",
        "Columns": 832,
        "EchoNumbers": 1,
        "EchoTime": 37.0,
        "EchoTrainLength": 104,
        "FlipAngle": 52.0,
        "HighBit": 15,
        "ImageOrientationPatient": [
          0.99973189110709,
          0.00883063168396,
          -0.021404808981,
          -0.0177994303892,
          0.88434159931485,
          -0.4665009281867
        ],
        "ImagePositionPatient": [
          -819.82242491295,
          -771.72935783652,
          355.23646248366
        ],
        "ImageType": [
          "ORIGINAL",
          "PRIMARY",
          "M",
          "MB",
          "ND",
          "MOSAIC"
        ],
        "ImagedNucleus": "1H",
        "ImagingFrequency": 123.259314,
        "InPlanePhaseEncodingDirection": "COL",
        "MRAcquisitionType": "2D",
        "MagneticFieldStrength": 3.0,
        "Manufacturer": "SIEMENS",
        "ManufacturerModelName": "Prisma_fit",
        "Modality": "MR",
        "NumberOfAverages": 1.0,
        "NumberOfPhaseEncodingSteps": 104,
        "PercentPhaseFieldOfView": 100.0,
        "PercentSampling": 100.0,
        "PerformedProcedureStepStartTime": "103131.729000",
        "PhotometricInterpretation": "MONOCHROME2",
        "PixelBandwidth": 2290.0,
        "PixelRepresentation": 0,
        "PixelSpacing": [
          2.0,
          2.0
        ],
        "ProtocolName": "func_task-bourne10",
        "RepetitionTime": 1490.0,
        "Rows": 832,
        "SAR": 0.03573701393159,
        "SamplesPerPixel": 1,
        "ScanOptions": "FS",
        "ScanningSequence": "EP",
        "SequenceName": "epfid2d1_104",
        "SequenceVariant": [
          "SK",
          "SS"
        ],
        "SeriesDescription": "func_task-bourne10",
        "SeriesNumber": 15,
        "SeriesTime": "112352.672000",
        "SliceLocation": -58.229267574019,
        "SliceThickness": 2.0,
        "SmallestImagePixelValue": 0,
        "SoftwareVersions": "syngo MR E11",
        "SpacingBetweenSlices": 2.0000000342053,
        "SpecificCharacterSet": "ISO_IR 100",
        "StudyID": "1",
        "StudyTime": "103131.647000",
        "TransmitCoilName": "Body",
        "VariableFlipAngleFlag": "N",
        "WindowCenterWidthExplanation": "Algo1",
        "dBdt": 0.0
      },
      "slices": {}
    },
    "modality": "bold",
    "session_id": "005",
    "subject_id": "02",
    "task_id": "bourne10",
    "time": {
      "samples": {
        "AcquisitionNumber": [
          1,
          2,
          3,
          4,
          5,
          6,
          7,
          8,
          9,
          10,
          11,
          12,
          13,
          14,
          15,
          16,
          17,
          18,
          19,
          20,
          21,
          22,
          23,
          24,
          25,
          26,
          27,
          28,
          29,
          30,
          31,
          32,
          33,
          34,
          35,
          36,
          37,
          38,
          39,
          40,
          41,
          42,
          43,
          44,
          45,
          46,
          47,
          48,
          49,
          50,
          51,
          52,
          53,
          54,
          55,
          56,
          57,
          58,
          59,
          60,
          61,
          62,
          63,
          64,
          65,
          66,
          67,
          68,
          69,
          70,
          71,
          72,
          73,
          74,
          75,
          76,
          77,
          78,
          79,
          80,
          81,
          82,
          83,
          84,
          85,
          86,
          87,
          88,
          89,
          90,
          91,
          92,
          93,
          94,
          95,
          96,
          97,
          98,
          99,
          100,
          101,
          102,
          103,
          104,
          105,
          106,
          107,
          108,
          109,
          110,
          111,
          112,
          113,
          114,
          115,
          116,
          117,
          118,
          119,
          120,
          121,
          122,
          123,
          124,
          125,
          126,
          127,
          128,
          129,
          130,
          131,
          132,
          133,
          134,
          135,
          136,
          137,
          138,
          139,
          140,
          141,
          142,
          143,
          144,
          145,
          146,
          147,
          148,
          149,
          150,
          151,
          152,
          153,
          154,
          155,
          156,
          157,
          158,
          159,
          160,
          161,
          162,
          163,
          164,
          165,
          166,
          167,
          168,
          169,
          170,
          171,
          172,
          173,
          174,
          175,
          176,
          177,
          178,
          179,
          180,
          181,
          182,
          183,
          184,
          185,
          186,
          187,
          188,
          189,
          190,
          191,
          192,
          193,
          194,
          195,
          196,
          197,
          198,
          199,
          200,
          201,
          202,
          203,
          204,
          205,
          206,
          207,
          208,
          209,
          210,
          211,
          212,
          213,
          214,
          215,
          216,
          217,
          218,
          219,
          220,
          221,
          222,
          223,
          224,
          225,
          226,
          227,
          228,
          229,
          230,
          231,
          232,
          233,
          234,
          235,
          236,
          237,
          238,
          239,
          240,
          241,
          242,
          243,
          244,
          245,
          246,
          247,
          248,
          249,
          250,
          251,
          252,
          253,
          254,
          255,
          256,
          257,
          258,
          259,
          260,
          261,
          262,
          263,
          264,
          265,
          266,
          267,
          268,
          269,
          270,
          271,
          272,
          273,
          274,
          275,
          276,
          277,
          278,
          279,
          280,
          281,
          282,
          283,
          284,
          285,
          286,
          287,
          288,
          289,
          290,
          291,
          292,
          293,
          294,
          295,
          296,
          297,
          298,
          299,
          300,
          301,
          302,
          303,
          304,
          305,
          306,
          307,
          308,
          309,
          310,
          311,
          312,
          313,
          314,
          315,
          316,
          317,
          318,
          319,
          320,
          321,
          322,
          323,
          324,
          325,
          326,
          327,
          328,
          329,
          330,
          331,
          332,
          333,
          334,
          335,
          336,
          337,
          338,
          339,
          340,
          341,
          342,
          343,
          344,
          345,
          346,
          347,
          348,
          349,
          350,
          351,
          352,
          353,
          354,
          355,
          356,
          357,
          358,
          359,
          360,
          361,
          362,
          363,
          364,
          365,
          366,
          367,
          368,
          369,
          370,
          371,
          372,
          373,
          374,
          375,
          376,
          377,
          378,
          379,
          380,
          381,
          382,
          383,
          384,
          385,
          386,
          387,
          388,
          389,
          390,
          391,
          392,
          393,
          394,
          395,
          396,
          397,
          398,
          399,
          400,
          401,
          402,
          403,
          404,
          405
        ],
        "AcquisitionTime": [
          "112232.650000",
          "112234.140000",
          "112235.630000",
          "112237.120000",
          "112238.610000",
          "112240.100000",
          "112241.590000",
          "112243.080000",
          "112244.570000",
          "112246.060000",
          "112247.550000",
          "112249.040000",
          "112250.530000",
          "112252.020000",
          "112253.510000",
          "112255.000000",
          "112256.490000",
          "112257.980000",
          "112259.470000",
          "112300.960000",
          "112302.450000",
          "112303.940000",
          "112305.430000",
          "112306.920000",
          "112308.410000",
          "112309.900000",
          "112311.390000",
          "112312.880000",
          "112314.370000",
          "112315.860000",
          "112317.350000",
          "112318.840000",
          "112320.330000",
          "112321.820000",
          "112323.310000",
          "112324.800000",
          "112326.290000",
          "112327.780000",
          "112329.270000",
          "112330.760000",
          "112332.250000",
          "112333.740000",
          "112335.230000",
          "112336.720000",
          "112338.210000",
          "112339.700000",
          "112341.190000",
          "112342.680000",
          "112344.170000",
          "112345.660000",
          "112347.150000",
          "112348.640000",
          "112350.130000",
          "112351.620000",
          "112353.110000",
          "112354.600000",
          "112356.090000",
          "112357.580000",
          "112359.070000",
          "112400.560000",
          "112402.050000",
          "112403.540000",
          "112405.030000",
          "112406.520000",
          "112408.010000",
          "112409.500000",
          "112410.990000",
          "112412.480000",
          "112413.970000",
          "112415.460000",
          "112416.950000",
          "112418.440000",
          "112419.930000",
          "112421.420000",
          "112422.910000",
          "112424.400000",
          "112425.890000",
          "112427.380000",
          "112428.870000",
          "112430.360000",
          "112431.850000",
          "112433.340000",
          "112434.830000",
          "112436.320000",
          "112437.810000",
          "112439.300000",
          "112440.790000",
          "112442.280000",
          "112443.770000",
          "112445.260000",
          "112446.750000",
          "112448.240000",
          "112449.730000",
          "112451.220000",
          "112452.710000",
          "112454.200000",
          "112455.690000",
          "112457.180000",
          "112458.670000",
          "112500.160000",
          "112501.650000",
          "112503.140000",
          "112504.630000",
          "112506.120000",
          "112507.610000",
          "112509.100000",
          "112510.590000",
          "112512.080000",
          "112513.570000",
          "112515.060000",
          "112516.550000",
          "112518.040000",
          "112519.530000",
          "112521.020000",
          "112522.510000",
          "112524.000000",
          "112525.490000",
          "112526.980000",
          "112528.470000",
          "112529.960000",
          "112531.450000",
          "112532.940000",
          "112534.430000",
          "112535.920000",
          "112537.410000",
          "112538.900000",
          "112540.390000",
          "112541.880000",
          "112543.370000",
          "112544.860000",
          "112546.350000",
          "112547.840000",
          "112549.330000",
          "112550.820000",
          "112552.310000",
          "112553.800000",
          "112555.290000",
          "112556.780000",
          "112558.270000",
          "112559.760000",
          "112601.250000",
          "112602.740000",
          "112604.230000",
          "112605.720000",
          "112607.210000",
          "112608.700000",
          "112610.190000",
          "112611.680000",
          "112613.170000",
          "112614.660000",
          "112616.150000",
          "112617.640000",
          "112619.130000",
          "112620.620000",
          "112622.110000",
          "112623.600000",
          "112625.090000",
          "112626.580000",
          "112628.070000",
          "112629.560000",
          "112631.050000",
          "112632.540000",
          "112634.030000",
          "112635.520000",
          "112637.010000",
          "112638.500000",
          "112639.990000",
          "112641.480000",
          "112642.970000",
          "112644.460000",
          "112645.950000",
          "112647.440000",
          "112648.930000",
          "112650.420000",
          "112651.910000",
          "112653.400000",
          "112654.890000",
          "112656.380000",
          "112657.870000",
          "112659.360000",
          "112700.850000",
          "112702.340000",
          "112703.830000",
          "112705.320000",
          "112706.810000",
          "112708.300000",
          "112709.790000",
          "112711.280000",
          "112712.770000",
          "112714.260000",
          "112715.750000",
          "112717.240000",
          "112718.730000",
          "112720.220000",
          "112721.710000",
          "112723.200000",
          "112724.690000",
          "112726.180000",
          "112727.670000",
          "112729.160000",
          "112730.650000",
          "112732.140000",
          "112733.630000",
          "112735.120000",
          "112736.610000",
          "112738.100000",
          "112739.590000",
          "112741.080000",
          "112742.570000",
          "112744.060000",
          "112745.550000",
          "112747.040000",
          "112748.530000",
          "112750.020000",
          "112751.510000",
          "112753.000000",
          "112754.490000",
          "112755.980000",
          "112757.470000",
          "112758.960000",
          "112800.450000",
          "112801.940000",
          "112803.430000",
          "112804.920000",
          "112806.410000",
          "112807.900000",
          "112809.390000",
          "112810.880000",
          "112812.370000",
          "112813.860000",
          "112815.350000",
          "112816.840000",
          "112818.330000",
          "112819.820000",
          "112821.310000",
          "112822.800000",
          "112824.290000",
          "112825.780000",
          "112827.270000",
          "112828.760000",
          "112830.250000",
          "112831.740000",
          "112833.230000",
          "112834.720000",
          "112836.210000",
          "112837.700000",
          "112839.190000",
          "112840.680000",
          "112842.170000",
          "112843.660000",
          "112845.150000",
          "112846.640000",
          "112848.130000",
          "112849.620000",
          "112851.110000",
          "112852.600000",
          "112854.090000",
          "112855.580000",
          "112857.070000",
          "112858.560000",
          "112900.050000",
          "112901.540000",
          "112903.030000",
          "112904.520000",
          "112906.010000",
          "112907.500000",
          "112908.990000",
          "112910.480000",
          "112911.970000",
          "112913.460000",
          "112914.950000",
          "112916.440000",
          "112917.930000",
          "112919.420000",
          "112920.910000",
          "112922.400000",
          "112923.890000",
          "112925.380000",
          "112926.870000",
          "112928.360000",
          "112929.850000",
          "112931.340000",
          "112932.830000",
          "112934.320000",
          "112935.810000",
          "112937.300000",
          "112938.790000",
          "112940.280000",
          "112941.770000",
          "112943.260000",
          "112944.750000",
          "112946.240000",
          "112947.730000",
          "112949.220000",
          "112950.710000",
          "112952.200000",
          "112953.690000",
          "112955.180000",
          "112956.670000",
          "112958.160000",
          "112959.650000",
          "113001.140000",
          "113002.630000",
          "113004.120000",
          "113005.610000",
          "113007.100000",
          "113008.590000",
          "113010.080000",
          "113011.570000",
          "113013.060000",
          "113014.550000",
          "113016.040000",
          "113017.530000",
          "113019.020000",
          "113020.510000",
          "113022.000000",
          "113023.490000",
          "113024.980000",
          "113026.470000",
          "113027.960000",
          "113029.450000",
          "113030.940000",
          "113032.430000",
          "113033.920000",
          "113035.410000",
          "113036.900000",
          "113038.390000",
          "113039.880000",
          "113041.370000",
          "113042.860000",
          "113044.350000",
          "113045.840000",
          "113047.330000",
          "113048.820000",
          "113050.310000",
          "113051.800000",
          "113053.290000",
          "113054.780000",
          "113056.270000",
          "113057.760000",
          "113059.250000",
          "113100.740000",
          "113102.230000",
          "113103.720000",
          "113105.210000",
          "113106.700000",
          "113108.190000",
          "113109.680000",
          "113111.170000",
          "113112.660000",
          "113114.150000",
          "113115.640000",
          "113117.130000",
          "113118.620000",
          "113120.110000",
          "113121.600000",
          "113123.090000",
          "113124.580000",
          "113126.070000",
          "113127.560000",
          "113129.050000",
          "113130.540000",
          "113132.030000",
          "113133.520000",
          "113135.010000",
          "113136.500000",
          "113137.990000",
          "113139.480000",
          "113140.970000",
          "113142.460000",
          "113143.950000",
          "113145.440000",
          "113146.930000",
          "113148.420000",
          "113149.910000",
          "113151.400000",
          "113152.890000",
          "113154.380000",
          "113155.870000",
          "113157.360000",
          "113158.850000",
          "113200.340000",
          "113201.830000",
          "113203.320000",
          "113204.810000",
          "113206.300000",
          "113207.790000",
          "113209.280000",
          "113210.770000",
          "113212.260000",
          "113213.750000",
          "113215.240000",
          "113216.730000",
          "113218.220000",
          "113219.710000",
          "113221.200000",
          "113222.690000",
          "113224.180000",
          "113225.670000",
          "113227.160000",
          "113228.650000",
          "113230.140000",
          "113231.630000",
          "113233.120000",
          "113234.610000"
        ],
        "ContentTime": [
          "112352.674000",
          "112352.678000",
          "112352.688000",
          "112352.699000",
          "112352.701000",
          "112352.704000",
          "112352.707000",
          "112352.710000",
          "112352.713000",
          "112352.716000",
          "112352.719000",
          "112352.722000",
          "112352.725000",
          "112352.728000",
          "112352.730000",
          "112352.733000",
          "112352.736000",
          "112352.739000",
          "112352.742000",
          "112352.745000",
          "112352.748000",
          "112352.751000",
          "112352.754000",
          "112352.757000",
          "112352.760000",
          "112352.785000",
          "112412.629000",
          "112412.632000",
          "112412.635000",
          "112412.638000",
          "112412.641000",
          "112412.644000",
          "112412.646000",
          "112412.649000",
          "112412.652000",
          "112412.655000",
          "112412.658000",
          "112412.664000",
          "112412.667000",
          "112412.669000",
          "112412.672000",
          "112412.675000",
          "112412.678000",
          "112412.681000",
          "112412.684000",
          "112412.687000",
          "112432.629000",
          "112432.632000",
          "112432.635000",
          "112432.638000",
          "112432.641000",
          "112432.644000",
          "112432.647000",
          "112432.649000",
          "112432.652000",
          "112432.655000",
          "112432.658000",
          "112432.661000",
          "112432.664000",
          "112432.667000",
          "112432.670000",
          "112432.672000",
          "112432.675000",
          "112432.678000",
          "112432.687000",
          "112432.689000",
          "112452.630000",
          "112452.633000",
          "112452.636000",
          "112452.639000",
          "112452.642000",
          "112452.645000",
          "112452.647000",
          "112452.650000",
          "112452.653000",
          "112452.656000",
          "112452.659000",
          "112452.662000",
          "112452.665000",
          "112452.668000",
          "112452.671000",
          "112452.673000",
          "112452.676000",
          "112452.680000",
          "112452.683000",
          "112452.686000",
          "112512.629000",
          "112512.632000",
          "112512.635000",
          "112512.638000",
          "112512.641000",
          "112512.644000",
          "112512.647000",
          "112512.649000",
          "112512.652000",
          "112512.655000",
          "112512.658000",
          "112512.661000",
          "112512.664000",
          "112512.667000",
          "112512.670000",
          "112512.673000",
          "112512.676000",
          "112512.679000",
          "112512.681000",
          "112512.684000",
          "112552.629000",
          "112552.632000",
          "112552.635000",
          "112552.638000",
          "112552.641000",
          "112552.644000",
          "112552.647000",
          "112552.650000",
          "112552.653000",
          "112552.656000",
          "112552.658000",
          "112552.661000",
          "112552.664000",
          "112552.667000",
          "112552.670000",
          "112552.673000",
          "112552.676000",
          "112552.679000",
          "112552.682000",
          "112552.685000",
          "112552.688000",
          "112552.691000",
          "112552.693000",
          "112552.696000",
          "112552.704000",
          "112552.707000",
          "112552.710000",
          "112632.629000",
          "112632.632000",
          "112632.635000",
          "112632.638000",
          "112632.641000",
          "112632.644000",
          "112632.647000",
          "112632.650000",
          "112632.652000",
          "112632.655000",
          "112632.658000",
          "112632.661000",
          "112632.664000",
          "112632.667000",
          "112632.670000",
          "112632.673000",
          "112632.676000",
          "112632.679000",
          "112632.682000",
          "112632.685000",
          "112632.687000",
          "112632.690000",
          "112632.693000",
          "112632.696000",
          "112632.699000",
          "112632.702000",
          "112632.705000",
          "112712.630000",
          "112712.633000",
          "112712.636000",
          "112712.639000",
          "112712.642000",
          "112712.645000",
          "112712.648000",
          "112712.651000",
          "112712.654000",
          "112712.657000",
          "112712.659000",
          "112712.662000",
          "112712.665000",
          "112712.668000",
          "112712.671000",
          "112712.674000",
          "112712.677000",
          "112712.680000",
          "112712.683000",
          "112712.686000",
          "112712.689000",
          "112712.691000",
          "112712.694000",
          "112712.697000",
          "112712.700000",
          "112712.703000",
          "112712.706000",
          "112752.629000",
          "112752.632000",
          "112752.635000",
          "112752.638000",
          "112752.641000",
          "112752.644000",
          "112752.647000",
          "112752.649000",
          "112752.653000",
          "112752.656000",
          "112752.658000",
          "112752.661000",
          "112752.664000",
          "112752.667000",
          "112752.670000",
          "112752.673000",
          "112752.676000",
          "112752.679000",
          "112752.682000",
          "112752.685000",
          "112752.688000",
          "112752.691000",
          "112752.693000",
          "112752.696000",
          "112752.699000",
          "112752.702000",
          "112752.705000",
          "112832.629000",
          "112832.632000",
          "112832.635000",
          "112832.638000",
          "112832.641000",
          "112832.644000",
          "112832.647000",
          "112832.669000",
          "112832.671000",
          "112832.674000",
