{
  "aor": 0.0008222772277227722,
  "aqi": 0.0072926100990099016,
  "bids_meta": {
    "AcquisitionMatrixPE": 104,
    "AcquisitionNumber": 1,
    "AcquisitionTime": "10:40:20.727500",
    "BandwidthPerPixelPhaseEncode": 17.17,
    "BaseResolution": 104,
    "BodyPartExamined": "BRAIN",
    "CogAtlasID": "trm_4c898da401420",
    "ConsistencyInfo": "N4_VE11C_LATEST_20160120",
    "ConversionSoftware": "dcm2niix",
    "ConversionSoftwareVersion": "v1.0.20171215 (OpenJPEG build) GCC7.3.0",
    "DerivedVendorReportedEchoSpacing": 0.000560011,
    "DeviceSerialNumber": "167006",
    "DwellTime": 2.1e-06,
    "EchoTime": 0.037,
    "EchoTrainLength": 104,
    "EffectiveEchoSpacing": 0.000560011,
    "FlipAngle": 52,
    "ImageComments": "Unaliased_MB4_PE3_LB",
    "ImageOrientationPatientDICOM": [
      0.999732,
      0.00883063,
      -0.0214048,
      -0.0177994,
      0.884342,
      -0.466501
    ],
    "ImageType": [
      "ORIGINAL",
      "PRIMARY",
      "M",
      "MB",
      "ND",
      "MOSAIC"
    ],
    "InPlanePhaseEncodingDirectionDICOM": "COL",
    "InstitutionAddress": "Chemin_Queen-Mary_4565_Montreal_District_CA_H3W_1W5",
    "InstitutionName": "IUGM",
    "InstitutionalDepartmentName": "Department",
    "MRAcquisitionType": "2D",
    "MagneticFieldStrength": 3,
    "Manufacturer": "Siemens",
    "ManufacturersModelName": "Prisma_fit",
    "Modality": "MR",
    "MultibandAccelerationFactor": 4,
    "PartialFourier": 1,
    "PatientPosition": "HFS",
    "PercentPhaseFOV": 100,
    "PhaseEncodingDirection": "j-",
    "PhaseEncodingSteps": 104,
    "PhaseResolution": 1,
    "PixelBandwidth": 2290,
    "ProcedureStepDescription": "video5_generic",
    "ProtocolName": "func_task-bourne6",
    "PulseSequenceDetails": "%CustomerSeq%_cmrr_mbep2d_bold",
    "ReceiveCoilActiveElements": "HC1-7;NC1,2",
    "ReceiveCoilName": "HeadNeck_64",
    "ReconMatrixPE": 104,
    "RepetitionTime": 1.49,
    "SAR": 0.035737,
    "ScanOptions": "FS",
    "ScanningSequence": "EP",
    "SequenceName": "epfid2d1_104",
    "SequenceVariant": "SK_SS",
    "SeriesDescription": "func_task-bourne6",
    "SeriesNumber": 7,
    "ShimSetting": [
      616,
      -7175,
      -8874,
      362,
      -27,
      -113,
      -29,
      -27
    ],
    "SliceThickness": 2,
    "SliceTiming": [
      0,
      0.7825,
      0.0975,
      0.88,
      0.195,
      0.9775,
      0.2925,
      1.0775,
      0.39,
      1.175,
      0.4875,
      1.2725,
      0.5875,
      1.37,
      0.685,
      0,
      0.7825,
      0.0975,
      0.88,
      0.195,
      0.9775,
      0.2925,
      1.0775,
      0.39,
      1.175,
      0.4875,
      1.2725,
      0.5875,
      1.37,
      0.685,
      0,
      0.7825,
      0.0975,
      0.88,
      0.195,
      0.9775,
      0.2925,
      1.0775,
      0.39,
      1.175,
      0.4875,
      1.2725,
      0.5875,
      1.37,
      0.685,
      0,
      0.7825,
      0.0975,
      0.88,
      0.195,
      0.9775,
      0.2925,
      1.0775,
      0.39,
      1.175,
      0.4875,
      1.2725,
      0.5875,
      1.37,
      0.685
    ],
    "SoftwareVersions": "syngo_MR_E11",
    "SpacingBetweenSlices": 2,
    "StationName": "MRC35049",
    "TaskName": "bourne06",
    "TotalReadoutTime": 0.0576811,
    "TxRefAmp": 248.528,
    "dataset": "<unset>",
    "dcmmeta_affine": [
      [
        -1.9994637966156006,
        -0.03559885919094086,
        -0.029619330540299416,
        108.64227294921875
      ],
      [
        -0.017661264166235924,
        1.7686831951141357,
        -0.9335137009620667,
        -60.67439651489258
      ],
      [
        -0.0428096167743206,
        0.9330018758773804,
        1.7685233354568481,
        -96.05810546875
      ],
      [
        0.0,
        0.0,
        0.0,
        1.0
      ]
    ],
    "dcmmeta_reorient_transform": [
      [
        0.0,
        -1.0,
        0.0,
        103.0
      ],
      [
        1.0,
        0.0,
        0.0,
        0.0
      ],
      [
        0.0,
        0.0,
        1.0,
        0.0
      ],
      [
        0.0,
        0.0,
        0.0,
        1.0
      ]
    ],
    "dcmmeta_shape": [
      104,
      104,
      60,
      405
    ],
    "dcmmeta_slice_dim": 2,
    "dcmmeta_version": 0.6,
    "global": {
      "const": {
        "AcquisitionMatrix": [
          104,
          0,
          0,
          104
        ],
        "AngioFlag": "N",
        "BitsAllocated": 16,
        "BitsStored": 16,
        "BodyPartExamined": "BRAIN",
        "Columns": 832,
        "EchoNumbers": 1,
        "EchoTime": 37.0,
        "EchoTrainLength": 104,
        "FlipAngle": 52.0,
        "HighBit": 15,
        "ImageOrientationPatient": [
          0.99973189110709,
          0.00883063168396,
          -0.021404808981,
          -0.0177994303892,
          0.88434159931485,
          -0.4665009281867
        ],
        "ImagePositionPatient": [
          -819.82242491295,
          -771.72935783652,
          355.23646248366
        ],
        "ImageType": [
          "ORIGINAL",
          "PRIMARY",
          "M",
          "MB",
          "ND",
          "MOSAIC"
        ],
        "ImagedNucleus": "1H",
        "ImagingFrequency": 123.259297,
        "InPlanePhaseEncodingDirection": "COL",
        "MRAcquisitionType": "2D",
        "MagneticFieldStrength": 3.0,
        "Manufacturer": "SIEMENS",
        "ManufacturerModelName": "Prisma_fit",
        "Modality": "MR",
        "NumberOfAverages": 1.0,
        "NumberOfPhaseEncodingSteps": 104,
        "PercentPhaseFieldOfView": 100.0,
        "PercentSampling": 100.0,
        "PerformedProcedureStepStartTime": "103131.729000",
        "PhotometricInterpretation": "MONOCHROME2",
        "PixelBandwidth": 2290.0,
        "PixelRepresentation": 0,
        "PixelSpacing": [
          2.0,
          2.0
        ],
        "ProtocolName": "func_task-bourne6",
        "RepetitionTime": 1490.0,
        "Rows": 832,
        "SAR": 0.03573701393159,
        "SamplesPerPixel": 1,
        "ScanOptions": "FS",
        "ScanningSequence": "EP",
        "SequenceName": "epfid2d1_104",
        "SequenceVariant": [
          "SK",
          "SS"
        ],
        "SeriesDescription": "func_task-bourne6",
        "SeriesNumber": 7,
        "SeriesTime": "104138.023000",
        "SliceLocation": -58.229267574019,
        "SliceThickness": 2.0,
        "SmallestImagePixelValue": 0,
        "SoftwareVersions": "syngo MR E11",
        "SpacingBetweenSlices": 2.0000000342053,
        "SpecificCharacterSet": "ISO_IR 100",
        "StudyID": "1",
        "StudyTime": "103131.647000",
        "TransmitCoilName": "Body",
        "VariableFlipAngleFlag": "N",
        "WindowCenterWidthExplanation": "Algo1",
        "dBdt": 0.0
      },
      "slices": {}
    },
    "modality": "bold",
    "session_id": "005",
    "subject_id": "02",
    "task_id": "bourne06",
    "time": {
      "samples": {
        "AcquisitionNumber": [
          1,
          2,
          3,
          4,
          5,
          6,
          7,
          8,
          9,
          10,
          11,
          12,
          13,
          14,
          15,
          16,
          17,
          18,
          19,
          20,
          21,
          22,
          23,
          24,
          25,
          26,
          27,
          28,
          29,
          30,
          31,
          32,
          33,
          34,
          35,
          36,
          37,
          38,
          39,
          40,
          41,
          42,
          43,
          44,
          45,
          46,
          47,
          48,
          49,
          50,
          51,
          52,
          53,
          54,
          55,
          56,
          57,
          58,
          59,
          60,
          61,
          62,
          63,
          64,
          65,
          66,
          67,
          68,
          69,
          70,
          71,
          72,
          73,
          74,
          75,
          76,
          77,
          78,
          79,
          80,
          81,
          82,
          83,
          84,
          85,
          86,
          87,
          88,
          89,
          90,
          91,
          92,
          93,
          94,
          95,
          96,
          97,
          98,
          99,
          100,
          101,
          102,
          103,
          104,
          105,
          106,
          107,
          108,
          109,
          110,
          111,
          112,
          113,
          114,
          115,
          116,
          117,
          118,
          119,
          120,
          121,
          122,
          123,
          124,
          125,
          126,
          127,
          128,
          129,
          130,
          131,
          132,
          133,
          134,
          135,
          136,
          137,
          138,
          139,
          140,
          141,
          142,
          143,
          144,
          145,
          146,
          147,
          148,
          149,
          150,
          151,
          152,
          153,
          154,
          155,
          156,
          157,
          158,
          159,
          160,
          161,
          162,
          163,
          164,
          165,
          166,
          167,
          168,
          169,
          170,
          171,
          172,
          173,
          174,
          175,
          176,
          177,
          178,
          179,
          180,
          181,
          182,
          183,
          184,
          185,
          186,
          187,
          188,
          189,
          190,
          191,
          192,
          193,
          194,
          195,
          196,
          197,
          198,
          199,
          200,
          201,
          202,
          203,
          204,
          205,
          206,
          207,
          208,
          209,
          210,
          211,
          212,
          213,
          214,
          215,
          216,
          217,
          218,
          219,
          220,
          221,
          222,
          223,
          224,
          225,
          226,
          227,
          228,
          229,
          230,
          231,
          232,
          233,
          234,
          235,
          236,
          237,
          238,
          239,
          240,
          241,
          242,
          243,
          244,
          245,
          246,
          247,
          248,
          249,
          250,
          251,
          252,
          253,
          254,
          255,
          256,
          257,
          258,
          259,
          260,
          261,
          262,
          263,
          264,
          265,
          266,
          267,
          268,
          269,
          270,
          271,
          272,
          273,
          274,
          275,
          276,
          277,
          278,
          279,
          280,
          281,
          282,
          283,
          284,
          285,
          286,
          287,
          288,
          289,
          290,
          291,
          292,
          293,
          294,
          295,
          296,
          297,
          298,
          299,
          300,
          301,
          302,
          303,
          304,
          305,
          306,
          307,
          308,
          309,
          310,
          311,
          312,
          313,
          314,
          315,
          316,
          317,
          318,
          319,
          320,
          321,
          322,
          323,
          324,
          325,
          326,
          327,
          328,
          329,
          330,
          331,
          332,
          333,
          334,
          335,
          336,
          337,
          338,
          339,
          340,
          341,
          342,
          343,
          344,
          345,
          346,
          347,
          348,
          349,
          350,
          351,
          352,
          353,
          354,
          355,
          356,
          357,
          358,
          359,
          360,
          361,
          362,
          363,
          364,
          365,
          366,
          367,
          368,
          369,
          370,
          371,
          372,
          373,
          374,
          375,
          376,
          377,
          378,
          379,
          380,
          381,
          382,
          383,
          384,
          385,
          386,
          387,
          388,
          389,
          390,
          391,
          392,
          393,
          394,
          395,
          396,
          397,
          398,
          399,
          400,
          401,
          402,
          403,
          404,
          405
        ],
        "AcquisitionTime": [
          "104020.727500",
          "104022.217500",
          "104023.707500",
          "104025.197500",
          "104026.687500",
          "104028.177500",
          "104029.667500",
          "104031.157500",
          "104032.647500",
          "104034.137500",
          "104035.627500",
          "104037.117500",
          "104038.607500",
          "104040.097500",
          "104041.587500",
          "104043.077500",
          "104044.567500",
          "104046.057500",
          "104047.547500",
          "104049.037500",
          "104050.527500",
          "104052.017500",
          "104053.507500",
          "104054.997500",
          "104056.487500",
          "104057.977500",
          "104059.467500",
          "104100.957500",
          "104102.447500",
          "104103.937500",
          "104105.427500",
          "104106.917500",
          "104108.407500",
          "104109.897500",
          "104111.387500",
          "104112.877500",
          "104114.367500",
          "104115.857500",
          "104117.347500",
          "104118.837500",
          "104120.327500",
          "104121.817500",
          "104123.307500",
          "104124.797500",
          "104126.287500",
          "104127.777500",
          "104129.267500",
          "104130.757500",
          "104132.247500",
          "104133.737500",
          "104135.227500",
          "104136.717500",
          "104138.207500",
          "104139.697500",
          "104141.187500",
          "104142.677500",
          "104144.167500",
          "104145.657500",
          "104147.147500",
          "104148.637500",
          "104150.127500",
          "104151.617500",
          "104153.107500",
          "104154.597500",
          "104156.087500",
          "104157.577500",
          "104159.067500",
          "104200.557500",
          "104202.047500",
          "104203.537500",
          "104205.027500",
          "104206.517500",
          "104208.007500",
          "104209.497500",
          "104210.987500",
          "104212.477500",
          "104213.967500",
          "104215.457500",
          "104216.947500",
          "104218.437500",
          "104219.927500",
          "104221.417500",
          "104222.907500",
          "104224.397500",
          "104225.887500",
          "104227.377500",
          "104228.867500",
          "104230.357500",
          "104231.847500",
          "104233.337500",
          "104234.827500",
          "104236.317500",
          "104237.807500",
          "104239.297500",
          "104240.787500",
          "104242.277500",
          "104243.767500",
          "104245.257500",
          "104246.747500",
          "104248.237500",
          "104249.727500",
          "104251.217500",
          "104252.707500",
          "104254.197500",
          "104255.687500",
          "104257.177500",
          "104258.667500",
          "104300.157500",
          "104301.647500",
          "104303.137500",
          "104304.627500",
          "104306.117500",
          "104307.607500",
          "104309.097500",
          "104310.587500",
          "104312.077500",
          "104313.567500",
          "104315.057500",
          "104316.547500",
          "104318.037500",
          "104319.527500",
          "104321.017500",
          "104322.507500",
          "104323.997500",
          "104325.487500",
          "104326.977500",
          "104328.467500",
          "104329.957500",
          "104331.447500",
          "104332.937500",
          "104334.427500",
          "104335.917500",
          "104337.407500",
          "104338.897500",
          "104340.387500",
          "104341.877500",
          "104343.367500",
          "104344.857500",
          "104346.347500",
          "104347.837500",
          "104349.327500",
          "104350.817500",
          "104352.307500",
          "104353.797500",
          "104355.287500",
          "104356.777500",
          "104358.267500",
          "104359.757500",
          "104401.247500",
          "104402.737500",
          "104404.227500",
          "104405.717500",
          "104407.207500",
          "104408.697500",
          "104410.187500",
          "104411.677500",
          "104413.167500",
          "104414.657500",
          "104416.147500",
          "104417.637500",
          "104419.127500",
          "104420.617500",
          "104422.107500",
          "104423.597500",
          "104425.087500",
          "104426.577500",
          "104428.067500",
          "104429.557500",
          "104431.047500",
          "104432.537500",
          "104434.027500",
          "104435.517500",
          "104437.007500",
          "104438.497500",
          "104439.987500",
          "104441.477500",
          "104442.967500",
          "104444.457500",
          "104445.947500",
          "104447.437500",
          "104448.927500",
          "104450.417500",
          "104451.907500",
          "104453.397500",
          "104454.887500",
          "104456.377500",
          "104457.867500",
          "104459.357500",
          "104500.847500",
          "104502.337500",
          "104503.827500",
          "104505.317500",
          "104506.807500",
          "104508.297500",
          "104509.787500",
          "104511.277500",
          "104512.767500",
          "104514.257500",
          "104515.747500",
          "104517.237500",
          "104518.727500",
          "104520.217500",
          "104521.707500",
          "104523.197500",
          "104524.687500",
          "104526.177500",
          "104527.667500",
          "104529.157500",
          "104530.647500",
          "104532.137500",
          "104533.627500",
          "104535.117500",
          "104536.607500",
          "104538.097500",
          "104539.587500",
          "104541.077500",
          "104542.567500",
          "104544.057500",
          "104545.547500",
          "104547.037500",
          "104548.527500",
          "104550.017500",
          "104551.507500",
          "104552.997500",
          "104554.487500",
          "104555.977500",
          "104557.467500",
          "104558.957500",
          "104600.447500",
          "104601.937500",
          "104603.427500",
          "104604.917500",
          "104606.407500",
          "104607.897500",
          "104609.387500",
          "104610.877500",
          "104612.367500",
          "104613.857500",
          "104615.347500",
          "104616.837500",
          "104618.327500",
          "104619.817500",
          "104621.307500",
          "104622.797500",
          "104624.287500",
          "104625.777500",
          "104627.267500",
          "104628.757500",
          "104630.247500",
          "104631.737500",
          "104633.227500",
          "104634.717500",
          "104636.207500",
          "104637.697500",
          "104639.187500",
          "104640.677500",
          "104642.167500",
          "104643.657500",
          "104645.147500",
          "104646.637500",
          "104648.127500",
          "104649.617500",
          "104651.107500",
          "104652.597500",
          "104654.087500",
          "104655.577500",
          "104657.067500",
          "104658.557500",
          "104700.047500",
          "104701.537500",
          "104703.027500",
          "104704.517500",
          "104706.007500",
          "104707.497500",
          "104708.987500",
          "104710.477500",
          "104711.967500",
          "104713.457500",
          "104714.947500",
          "104716.437500",
          "104717.927500",
          "104719.417500",
          "104720.907500",
          "104722.397500",
          "104723.887500",
          "104725.377500",
          "104726.867500",
          "104728.357500",
          "104729.847500",
          "104731.337500",
          "104732.827500",
          "104734.317500",
          "104735.807500",
          "104737.297500",
          "104738.787500",
          "104740.277500",
          "104741.767500",
          "104743.257500",
          "104744.747500",
          "104746.237500",
          "104747.727500",
          "104749.217500",
          "104750.707500",
          "104752.197500",
          "104753.687500",
          "104755.177500",
          "104756.667500",
          "104758.157500",
          "104759.647500",
          "104801.137500",
          "104802.627500",
          "104804.117500",
          "104805.607500",
          "104807.097500",
          "104808.587500",
          "104810.077500",
          "104811.567500",
          "104813.057500",
          "104814.547500",
          "104816.037500",
          "104817.527500",
          "104819.017500",
          "104820.507500",
          "104821.997500",
          "104823.487500",
          "104824.977500",
          "104826.467500",
          "104827.957500",
          "104829.447500",
          "104830.937500",
          "104832.427500",
          "104833.917500",
          "104835.407500",
          "104836.897500",
          "104838.387500",
          "104839.877500",
          "104841.367500",
          "104842.857500",
          "104844.347500",
          "104845.837500",
          "104847.327500",
          "104848.817500",
          "104850.307500",
          "104851.797500",
          "104853.287500",
          "104854.777500",
          "104856.267500",
          "104857.757500",
          "104859.247500",
          "104900.737500",
          "104902.227500",
          "104903.717500",
          "104905.207500",
          "104906.697500",
          "104908.187500",
          "104909.677500",
          "104911.167500",
          "104912.657500",
          "104914.147500",
          "104915.637500",
          "104917.127500",
          "104918.617500",
          "104920.107500",
          "104921.597500",
          "104923.087500",
          "104924.577500",
          "104926.067500",
          "104927.557500",
          "104929.047500",
          "104930.537500",
          "104932.027500",
          "104933.517500",
          "104935.007500",
          "104936.497500",
          "104937.987500",
          "104939.477500",
          "104940.967500",
          "104942.457500",
          "104943.947500",
          "104945.437500",
          "104946.927500",
          "104948.417500",
          "104949.907500",
          "104951.397500",
          "104952.887500",
          "104954.377500",
          "104955.867500",
          "104957.357500",
          "104958.847500",
          "105000.337500",
          "105001.827500",
          "105003.317500",
          "105004.807500",
          "105006.297500",
          "105007.787500",
          "105009.277500",
          "105010.767500",
          "105012.257500",
          "105013.747500",
          "105015.237500",
          "105016.727500",
          "105018.217500",
          "105019.707500",
          "105021.197500",
          "105022.687500"
        ],
        "ContentTime": [
          "104138.025000",
          "104138.029000",
          "104138.032000",
          "104138.043000",
          "104138.051000",
          "104138.054000",
          "104138.057000",
          "104138.060000",
          "104138.062000",
          "104138.065000",
          "104138.068000",
          "104138.071000",
          "104138.074000",
          "104138.077000",
          "104138.080000",
          "104138.083000",
          "104138.086000",
          "104138.089000",
          "104138.092000",
          "104138.095000",
          "104138.098000",
          "104138.108000",
          "104138.111000",
          "104157.991000",
          "104158.011000",
          "104158.014000",
          "104158.017000",
          "104158.019000",
          "104158.022000",
          "104158.025000",
          "104158.028000",
          "104158.031000",
          "104158.034000",
          "104158.043000",
          "104158.046000",
          "104158.049000",
          "104158.051000",
          "104158.054000",
          "104158.057000",
          "104158.060000",
          "104158.063000",
          "104158.066000",
          "104158.069000",
          "104217.991000",
          "104217.994000",
          "104217.997000",
          "104218.000000",
          "104218.003000",
          "104218.006000",
          "104218.009000",
          "104218.012000",
          "104218.015000",
          "104218.017000",
          "104218.020000",
          "104218.023000",
          "104218.026000",
          "104218.029000",
          "104218.032000",
          "104218.035000",
          "104218.038000",
          "104218.041000",
          "104218.044000",
          "104218.046000",
          "104237.991000",
          "104237.994000",
          "104237.997000",
          "104238.001000",
          "104238.004000",
          "104238.007000",
          "104238.010000",
          "104238.013000",
          "104238.016000",
          "104238.019000",
          "104238.021000",
          "104238.024000",
          "104238.027000",
          "104238.030000",
          "104238.033000",
          "104238.036000",
          "104238.039000",
          "104238.042000",
          "104238.045000",
          "104238.048000",
          "104257.991000",
          "104257.994000",
          "104257.997000",
          "104258.001000",
          "104258.004000",
          "104258.007000",
          "104258.010000",
          "104258.013000",
          "104258.016000",
          "104258.018000",
          "104258.021000",
          "104258.024000",
          "104258.027000",
          "104258.030000",
          "104258.033000",
          "104258.036000",
          "104258.039000",
          "104258.042000",
          "104258.045000",
          "104258.047000",
          "104337.991000",
          "104337.994000",
          "104337.997000",
          "104338.001000",
          "104338.004000",
          "104338.007000",
          "104338.010000",
          "104338.013000",
          "104338.016000",
          "104338.019000",
          "104338.022000",
          "104338.025000",
          "104338.028000",
          "104338.031000",
          "104338.034000",
          "104338.036000",
          "104338.039000",
          "104338.042000",
          "104338.045000",
          "104338.048000",
          "104338.051000",
          "104338.054000",
          "104338.057000",
          "104338.060000",
          "104338.063000",
          "104338.066000",
          "104338.069000",
          "104338.071000",
          "104417.991000",
          "104417.994000",
          "104417.997000",
          "104418.001000",
          "104418.004000",
          "104418.007000",
          "104418.010000",
          "104418.013000",
          "104418.016000",
          "104418.018000",
          "104418.021000",
          "104418.024000",
          "104418.027000",
          "104418.030000",
          "104418.033000",
          "104418.036000",
          "104418.039000",
          "104418.042000",
          "104418.045000",
          "104418.048000",
          "104418.051000",
          "104418.054000",
          "104418.057000",
          "104418.059000",
          "104418.062000",
          "104418.065000",
          "104418.068000",
          "104457.991000",
          "104457.994000",
          "104457.997000",
          "104458.001000",
          "104458.004000",
          "104458.007000",
          "104458.010000",
          "104458.013000",
          "104458.016000",
          "104458.019000",
          "104458.022000",
          "104458.025000",
          "104458.027000",
          "104458.030000",
          "104458.033000",
          "104458.036000",
          "104458.039000",
          "104458.042000",
          "104458.045000",
          "104458.048000",
          "104458.051000",
          "104458.059000",
          "104458.061000",
          "104458.064000",
          "104458.067000",
          "104458.070000",
          "104458.073000",
          "104537.991000",
          "104537.994000",
          "104537.997000",
          "104538.001000",
          "104538.004000",
          "104538.007000",
          "104538.010000",
          "104538.013000",
          "104538.015000",
          "104538.018000",
          "104538.021000",
          "104538.024000",
          "104538.027000",
          "104538.030000",
          "104538.033000",
          "104538.036000",
          "104538.039000",
          "104538.042000",
          "104538.045000",
          "104538.048000",
          "104538.051000",
          "104538.054000",
          "104538.057000",
          "104538.060000",
          "104538.062000",
          "104538.065000",
          "104538.068000",
          "104617.991000",
          "104617.994000",
          "104617.997000",
          "104618.001000",
          "104618.004000",
          "104618.007000",
          "104618.010000",
          "104618.013000",
          "104618.016000",
          "104618.036000",
          "104618.039000",
          "104618.042000",
          "104618.045000",
