{
  "aor": 0.0007519106699751862,
  "aqi": 0.010168842406947891,
  "bids_meta": {
    "AcquisitionMatrixPE": 104,
    "AcquisitionNumber": 1,
    "AcquisitionTime": "11:01:25.602500",
    "BandwidthPerPixelPhaseEncode": 17.17,
    "BaseResolution": 104,
    "BodyPartExamined": "BRAIN",
    "CogAtlasID": "trm_4c898da401420",
    "ConsistencyInfo": "N4_VE11C_LATEST_20160120",
    "ConversionSoftware": "dcm2niix",
    "ConversionSoftwareVersion": "v1.0.20171215 (OpenJPEG build) GCC7.3.0",
    "DerivedVendorReportedEchoSpacing": 0.000560011,
    "DeviceSerialNumber": "167006",
    "DwellTime": 2.1e-06,
    "EchoTime": 0.037,
    "EchoTrainLength": 104,
    "EffectiveEchoSpacing": 0.000560011,
    "FlipAngle": 52,
    "ImageComments": "Unaliased_MB4_PE3_LB",
    "ImageOrientationPatientDICOM": [
      0.999732,
      0.00883063,
      -0.0214048,
      -0.0177994,
      0.884342,
      -0.466501
    ],
    "ImageType": [
      "ORIGINAL",
      "PRIMARY",
      "M",
      "MB",
      "ND",
      "MOSAIC"
    ],
    "InPlanePhaseEncodingDirectionDICOM": "COL",
    "InstitutionAddress": "Chemin_Queen-Mary_4565_Montreal_District_CA_H3W_1W5",
    "InstitutionName": "IUGM",
    "InstitutionalDepartmentName": "Department",
    "MRAcquisitionType": "2D",
    "MagneticFieldStrength": 3,
    "Manufacturer": "Siemens",
    "ManufacturersModelName": "Prisma_fit",
    "Modality": "MR",
    "MultibandAccelerationFactor": 4,
    "PartialFourier": 1,
    "PatientPosition": "HFS",
    "PercentPhaseFOV": 100,
    "PhaseEncodingDirection": "j-",
    "PhaseEncodingSteps": 104,
    "PhaseResolution": 1,
    "PixelBandwidth": 2290,
    "ProcedureStepDescription": "video5_generic",
    "ProtocolName": "func_task-bourne8",
    "PulseSequenceDetails": "%CustomerSeq%_cmrr_mbep2d_bold",
    "ReceiveCoilActiveElements": "HC1-7;NC1,2",
    "ReceiveCoilName": "HeadNeck_64",
    "ReconMatrixPE": 104,
    "RepetitionTime": 1.49,
    "SAR": 0.035737,
    "ScanOptions": "FS",
    "ScanningSequence": "EP",
    "SequenceName": "epfid2d1_104",
    "SequenceVariant": "SK_SS",
    "SeriesDescription": "func_task-bourne8",
    "SeriesNumber": 11,
    "ShimSetting": [
      616,
      -7175,
      -8874,
      362,
      -27,
      -113,
      -29,
      -27
    ],
    "SliceThickness": 2,
    "SliceTiming": [
      0,
      0.785,
      0.0975,
      0.8825,
      0.1975,
      0.98,
      0.295,
      1.0775,
      0.3925,
      1.1775,
      0.49,
      1.275,
      0.5875,
      1.3725,
      0.6875,
      0,
      0.785,
      0.0975,
      0.8825,
      0.1975,
      0.98,
      0.295,
      1.0775,
      0.3925,
      1.1775,
      0.49,
      1.275,
      0.5875,
      1.3725,
      0.6875,
      0,
      0.785,
      0.0975,
      0.8825,
      0.1975,
      0.98,
      0.295,
      1.0775,
      0.3925,
      1.1775,
      0.49,
      1.275,
      0.5875,
      1.3725,
      0.6875,
      0,
      0.785,
      0.0975,
      0.8825,
      0.1975,
      0.98,
      0.295,
      1.0775,
      0.3925,
      1.1775,
      0.49,
      1.275,
      0.5875,
      1.3725,
      0.6875
    ],
    "SoftwareVersions": "syngo_MR_E11",
    "SpacingBetweenSlices": 2,
    "StationName": "MRC35049",
    "TaskName": "bourne08",
    "TotalReadoutTime": 0.0576811,
    "TxRefAmp": 248.528,
    "dataset": "<unset>",
    "dcmmeta_affine": [
      [
        -1.9994637966156006,
        -0.03559885919094086,
        -0.029619330540299416,
        108.64227294921875
      ],
      [
        -0.017661264166235924,
        1.7686831951141357,
        -0.9335137009620667,
        -60.67439651489258
      ],
      [
        -0.0428096167743206,
        0.9330018758773804,
        1.7685233354568481,
        -96.05810546875
      ],
      [
        0.0,
        0.0,
        0.0,
        1.0
      ]
    ],
    "dcmmeta_reorient_transform": [
      [
        0.0,
        -1.0,
        0.0,
        103.0
      ],
      [
        1.0,
        0.0,
        0.0,
        0.0
      ],
      [
        0.0,
        0.0,
        1.0,
        0.0
      ],
      [
        0.0,
        0.0,
        0.0,
        1.0
      ]
    ],
    "dcmmeta_shape": [
      104,
      104,
      60,
      405
    ],
    "dcmmeta_slice_dim": 2,
    "dcmmeta_version": 0.6,
    "global": {
      "const": {
        "AcquisitionMatrix": [
          104,
          0,
          0,
          104
        ],
        "AngioFlag": "N",
        "BitsAllocated": 16,
        "BitsStored": 16,
        "BodyPartExamined": "BRAIN",
        "Columns": 832,
        "EchoNumbers": 1,
        "EchoTime": 37.0,
        "EchoTrainLength": 104,
        "FlipAngle": 52.0,
        "HighBit": 15,
        "ImageOrientationPatient": [
          0.99973189110709,
          0.00883063168396,
          -0.021404808981,
          -0.0177994303892,
          0.88434159931485,
          -0.4665009281867
        ],
        "ImagePositionPatient": [
          -819.82242491295,
          -771.72935783652,
          355.23646248366
        ],
        "ImageType": [
          "ORIGINAL",
          "PRIMARY",
          "M",
          "MB",
          "ND",
          "MOSAIC"
        ],
        "ImagedNucleus": "1H",
        "ImagingFrequency": 123.259307,
        "InPlanePhaseEncodingDirection": "COL",
        "MRAcquisitionType": "2D",
        "MagneticFieldStrength": 3.0,
        "Manufacturer": "SIEMENS",
        "ManufacturerModelName": "Prisma_fit",
        "Modality": "MR",
        "NumberOfAverages": 1.0,
        "NumberOfPhaseEncodingSteps": 104,
        "PercentPhaseFieldOfView": 100.0,
        "PercentSampling": 100.0,
        "PerformedProcedureStepStartTime": "103131.729000",
        "PhotometricInterpretation": "MONOCHROME2",
        "PixelBandwidth": 2290.0,
        "PixelRepresentation": 0,
        "PixelSpacing": [
          2.0,
          2.0
        ],
        "ProtocolName": "func_task-bourne8",
        "RepetitionTime": 1490.0,
        "Rows": 832,
        "SAR": 0.03573701393159,
        "SamplesPerPixel": 1,
        "ScanOptions": "FS",
        "ScanningSequence": "EP",
        "SequenceName": "epfid2d1_104",
        "SequenceVariant": [
          "SK",
          "SS"
        ],
        "SeriesDescription": "func_task-bourne8",
        "SeriesNumber": 11,
        "SeriesTime": "110257.695000",
        "SliceLocation": -58.229267574019,
        "SliceThickness": 2.0,
        "SmallestImagePixelValue": 0,
        "SoftwareVersions": "syngo MR E11",
        "SpacingBetweenSlices": 2.0000000342053,
        "SpecificCharacterSet": "ISO_IR 100",
        "StudyID": "1",
        "StudyTime": "103131.647000",
        "TransmitCoilName": "Body",
        "VariableFlipAngleFlag": "N",
        "WindowCenterWidthExplanation": "Algo1",
        "dBdt": 0.0
      },
      "slices": {}
    },
    "modality": "bold",
    "session_id": "005",
    "subject_id": "02",
    "task_id": "bourne08",
    "time": {
      "samples": {
        "AcquisitionNumber": [
          1,
          2,
          3,
          4,
          5,
          6,
          7,
          8,
          9,
          10,
          11,
          12,
          13,
          14,
          15,
          16,
          17,
          18,
          19,
          20,
          21,
          22,
          23,
          24,
          25,
          26,
          27,
          28,
          29,
          30,
          31,
          32,
          33,
          34,
          35,
          36,
          37,
          38,
          39,
          40,
          41,
          42,
          43,
          44,
          45,
          46,
          47,
          48,
          49,
          50,
          51,
          52,
          53,
          54,
          55,
          56,
          57,
          58,
          59,
          60,
          61,
          62,
          63,
          64,
          65,
          66,
          67,
          68,
          69,
          70,
          71,
          72,
          73,
          74,
          75,
          76,
          77,
          78,
          79,
          80,
          81,
          82,
          83,
          84,
          85,
          86,
          87,
          88,
          89,
          90,
          91,
          92,
          93,
          94,
          95,
          96,
          97,
          98,
          99,
          100,
          101,
          102,
          103,
          104,
          105,
          106,
          107,
          108,
          109,
          110,
          111,
          112,
          113,
          114,
          115,
          116,
          117,
          118,
          119,
          120,
          121,
          122,
          123,
          124,
          125,
          126,
          127,
          128,
          129,
          130,
          131,
          132,
          133,
          134,
          135,
          136,
          137,
          138,
          139,
          140,
          141,
          142,
          143,
          144,
          145,
          146,
          147,
          148,
          149,
          150,
          151,
          152,
          153,
          154,
          155,
          156,
          157,
          158,
          159,
          160,
          161,
          162,
          163,
          164,
          165,
          166,
          167,
          168,
          169,
          170,
          171,
          172,
          173,
          174,
          175,
          176,
          177,
          178,
          179,
          180,
          181,
          182,
          183,
          184,
          185,
          186,
          187,
          188,
          189,
          190,
          191,
          192,
          193,
          194,
          195,
          196,
          197,
          198,
          199,
          200,
          201,
          202,
          203,
          204,
          205,
          206,
          207,
          208,
          209,
          210,
          211,
          212,
          213,
          214,
          215,
          216,
          217,
          218,
          219,
          220,
          221,
          222,
          223,
          224,
          225,
          226,
          227,
          228,
          229,
          230,
          231,
          232,
          233,
          234,
          235,
          236,
          237,
          238,
          239,
          240,
          241,
          242,
          243,
          244,
          245,
          246,
          247,
          248,
          249,
          250,
          251,
          252,
          253,
          254,
          255,
          256,
          257,
          258,
          259,
          260,
          261,
          262,
          263,
          264,
          265,
          266,
          267,
          268,
          269,
          270,
          271,
          272,
          273,
          274,
          275,
          276,
          277,
          278,
          279,
          280,
          281,
          282,
          283,
          284,
          285,
          286,
          287,
          288,
          289,
          290,
          291,
          292,
          293,
          294,
          295,
          296,
          297,
          298,
          299,
          300,
          301,
          302,
          303,
          304,
          305,
          306,
          307,
          308,
          309,
          310,
          311,
          312,
          313,
          314,
          315,
          316,
          317,
          318,
          319,
          320,
          321,
          322,
          323,
          324,
          325,
          326,
          327,
          328,
          329,
          330,
          331,
          332,
          333,
          334,
          335,
          336,
          337,
          338,
          339,
          340,
          341,
          342,
          343,
          344,
          345,
          346,
          347,
          348,
          349,
          350,
          351,
          352,
          353,
          354,
          355,
          356,
          357,
          358,
          359,
          360,
          361,
          362,
          363,
          364,
          365,
          366,
          367,
          368,
          369,
          370,
          371,
          372,
          373,
          374,
          375,
          376,
          377,
          378,
          379,
          380,
          381,
          382,
          383,
          384,
          385,
          386,
          387,
          388,
          389,
          390,
          391,
          392,
          393,
          394,
          395,
          396,
          397,
          398,
          399,
          400,
          401,
          402,
          403,
          404,
          405
        ],
        "AcquisitionTime": [
          "110125.602500",
          "110127.092500",
          "110128.582500",
          "110130.072500",
          "110131.562500",
          "110133.052500",
          "110134.542500",
          "110136.032500",
          "110137.522500",
          "110139.012500",
          "110140.502500",
          "110141.992500",
          "110143.482500",
          "110144.972500",
          "110146.462500",
          "110147.952500",
          "110149.442500",
          "110150.932500",
          "110152.422500",
          "110153.912500",
          "110155.402500",
          "110156.892500",
          "110158.382500",
          "110159.872500",
          "110201.362500",
          "110202.852500",
          "110204.342500",
          "110205.832500",
          "110207.322500",
          "110208.812500",
          "110210.302500",
          "110211.792500",
          "110213.282500",
          "110214.772500",
          "110216.262500",
          "110217.752500",
          "110219.242500",
          "110220.732500",
          "110222.222500",
          "110223.712500",
          "110225.202500",
          "110226.692500",
          "110228.182500",
          "110229.672500",
          "110231.162500",
          "110232.652500",
          "110234.142500",
          "110235.632500",
          "110237.122500",
          "110238.612500",
          "110240.102500",
          "110241.592500",
          "110243.082500",
          "110244.572500",
          "110246.062500",
          "110247.552500",
          "110249.042500",
          "110250.532500",
          "110252.022500",
          "110253.512500",
          "110255.002500",
          "110256.492500",
          "110257.982500",
          "110259.472500",
          "110300.962500",
          "110302.452500",
          "110303.942500",
          "110305.432500",
          "110306.922500",
          "110308.412500",
          "110309.902500",
          "110311.392500",
          "110312.882500",
          "110314.372500",
          "110315.862500",
          "110317.352500",
          "110318.842500",
          "110320.332500",
          "110321.822500",
          "110323.312500",
          "110324.802500",
          "110326.292500",
          "110327.782500",
          "110329.272500",
          "110330.762500",
          "110332.252500",
          "110333.742500",
          "110335.232500",
          "110336.722500",
          "110338.212500",
          "110339.702500",
          "110341.192500",
          "110342.682500",
          "110344.172500",
          "110345.662500",
          "110347.152500",
          "110348.642500",
          "110350.132500",
          "110351.622500",
          "110353.112500",
          "110354.602500",
          "110356.092500",
          "110357.582500",
          "110359.072500",
          "110400.562500",
          "110402.052500",
          "110403.542500",
          "110405.032500",
          "110406.522500",
          "110408.012500",
          "110409.502500",
          "110410.992500",
          "110412.482500",
          "110413.972500",
          "110415.462500",
          "110416.952500",
          "110418.442500",
          "110419.932500",
          "110421.422500",
          "110422.912500",
          "110424.402500",
          "110425.892500",
          "110427.382500",
          "110428.872500",
          "110430.362500",
          "110431.852500",
          "110433.342500",
          "110434.832500",
          "110436.322500",
          "110437.812500",
          "110439.302500",
          "110440.792500",
          "110442.282500",
          "110443.772500",
          "110445.262500",
          "110446.752500",
          "110448.242500",
          "110449.732500",
          "110451.222500",
          "110452.712500",
          "110454.202500",
          "110455.692500",
          "110457.182500",
          "110458.672500",
          "110500.162500",
          "110501.652500",
          "110503.142500",
          "110504.632500",
          "110506.122500",
          "110507.612500",
          "110509.102500",
          "110510.592500",
          "110512.082500",
          "110513.572500",
          "110515.062500",
          "110516.552500",
          "110518.042500",
          "110519.532500",
          "110521.022500",
          "110522.512500",
          "110524.002500",
          "110525.492500",
          "110526.982500",
          "110528.472500",
          "110529.962500",
          "110531.452500",
          "110532.942500",
          "110534.432500",
          "110535.922500",
          "110537.412500",
          "110538.902500",
          "110540.392500",
          "110541.882500",
          "110543.372500",
          "110544.862500",
          "110546.352500",
          "110547.842500",
          "110549.332500",
          "110550.822500",
          "110552.312500",
          "110553.802500",
          "110555.292500",
          "110556.782500",
          "110558.272500",
          "110559.762500",
          "110601.252500",
          "110602.742500",
          "110604.232500",
          "110605.722500",
          "110607.212500",
          "110608.702500",
          "110610.192500",
          "110611.682500",
          "110613.172500",
          "110614.662500",
          "110616.152500",
          "110617.642500",
          "110619.132500",
          "110620.622500",
          "110622.112500",
          "110623.602500",
          "110625.092500",
          "110626.582500",
          "110628.072500",
          "110629.562500",
          "110631.052500",
          "110632.542500",
          "110634.032500",
          "110635.522500",
          "110637.012500",
          "110638.502500",
          "110639.992500",
          "110641.482500",
          "110642.972500",
          "110644.462500",
          "110645.952500",
          "110647.442500",
          "110648.932500",
          "110650.422500",
          "110651.912500",
          "110653.402500",
          "110654.892500",
          "110656.382500",
          "110657.872500",
          "110659.362500",
          "110700.852500",
          "110702.342500",
          "110703.832500",
          "110705.322500",
          "110706.812500",
          "110708.302500",
          "110709.792500",
          "110711.282500",
          "110712.772500",
          "110714.262500",
          "110715.752500",
          "110717.242500",
          "110718.732500",
          "110720.222500",
          "110721.712500",
          "110723.202500",
          "110724.692500",
          "110726.182500",
          "110727.672500",
          "110729.162500",
          "110730.652500",
          "110732.142500",
          "110733.632500",
          "110735.122500",
          "110736.612500",
          "110738.102500",
          "110739.592500",
          "110741.082500",
          "110742.572500",
          "110744.062500",
          "110745.552500",
          "110747.042500",
          "110748.532500",
          "110750.022500",
          "110751.512500",
          "110753.002500",
          "110754.492500",
          "110755.982500",
          "110757.472500",
          "110758.962500",
          "110800.452500",
          "110801.942500",
          "110803.432500",
          "110804.922500",
          "110806.412500",
          "110807.902500",
          "110809.392500",
          "110810.882500",
          "110812.372500",
          "110813.862500",
          "110815.352500",
          "110816.842500",
          "110818.332500",
          "110819.822500",
          "110821.312500",
          "110822.802500",
          "110824.292500",
          "110825.782500",
          "110827.272500",
          "110828.762500",
          "110830.252500",
          "110831.742500",
          "110833.232500",
          "110834.722500",
          "110836.212500",
          "110837.702500",
          "110839.192500",
          "110840.682500",
          "110842.172500",
          "110843.662500",
          "110845.152500",
          "110846.642500",
          "110848.132500",
          "110849.622500",
          "110851.112500",
          "110852.602500",
          "110854.092500",
          "110855.582500",
          "110857.072500",
          "110858.562500",
          "110900.052500",
          "110901.542500",
          "110903.032500",
          "110904.522500",
          "110906.012500",
          "110907.502500",
          "110908.992500",
          "110910.482500",
          "110911.972500",
          "110913.462500",
          "110914.952500",
          "110916.442500",
          "110917.932500",
          "110919.422500",
          "110920.912500",
          "110922.402500",
          "110923.892500",
          "110925.382500",
          "110926.872500",
          "110928.362500",
          "110929.852500",
          "110931.342500",
          "110932.832500",
          "110934.322500",
          "110935.812500",
          "110937.302500",
          "110938.792500",
          "110940.282500",
          "110941.772500",
          "110943.262500",
          "110944.752500",
          "110946.242500",
          "110947.732500",
          "110949.222500",
          "110950.712500",
          "110952.202500",
          "110953.692500",
          "110955.182500",
          "110956.672500",
          "110958.162500",
          "110959.652500",
          "111001.142500",
          "111002.632500",
          "111004.122500",
          "111005.612500",
          "111007.102500",
          "111008.592500",
          "111010.082500",
          "111011.572500",
          "111013.062500",
          "111014.552500",
          "111016.042500",
          "111017.532500",
          "111019.022500",
          "111020.512500",
          "111022.002500",
          "111023.492500",
          "111024.982500",
          "111026.472500",
          "111027.962500",
          "111029.452500",
          "111030.942500",
          "111032.432500",
          "111033.922500",
          "111035.412500",
          "111036.902500",
          "111038.392500",
          "111039.882500",
          "111041.372500",
          "111042.862500",
          "111044.352500",
          "111045.842500",
          "111047.332500",
          "111048.822500",
          "111050.312500",
          "111051.802500",
          "111053.292500",
          "111054.782500",
          "111056.272500",
          "111057.762500",
          "111059.252500",
          "111100.742500",
          "111102.232500",
          "111103.722500",
          "111105.212500",
          "111106.702500",
          "111108.192500",
          "111109.682500",
          "111111.172500",
          "111112.662500",
          "111114.152500",
          "111115.642500",
          "111117.132500",
          "111118.622500",
          "111120.112500",
          "111121.602500",
          "111123.092500",
          "111124.582500",
          "111126.072500",
          "111127.562500"
        ],
        "ContentTime": [
          "110257.697000",
          "110257.701000",
          "110257.704000",
          "110257.707000",
          "110257.710000",
          "110257.713000",
          "110257.716000",
          "110257.719000",
          "110257.722000",
          "110257.724000",
          "110257.727000",
          "110257.730000",
          "110257.733000",
          "110257.736000",
          "110257.739000",
          "110257.742000",
          "110257.745000",
          "110257.751000",
          "110257.754000",
          "110257.757000",
          "110257.760000",
          "110257.763000",
          "110257.766000",
          "110257.769000",
          "110257.772000",
          "110257.775000",
          "110257.778000",
          "110257.781000",
          "110257.784000",
          "110257.787000",
          "110257.790000",
          "110257.793000",
          "110257.795000",
          "110257.798000",
          "110257.801000",
          "110257.804000",
          "110257.807000",
          "110317.650000",
          "110317.653000",
          "110317.656000",
          "110317.659000",
          "110317.662000",
          "110317.665000",
          "110317.668000",
          "110317.671000",
          "110317.674000",
          "110317.676000",
          "110317.679000",
          "110317.688000",
          "110317.691000",
          "110317.693000",
          "110317.696000",
          "110317.700000",
          "110317.702000",
          "110317.705000",
          "110317.708000",
          "110317.711000",
          "110337.650000",
          "110337.653000",
          "110337.656000",
          "110337.659000",
          "110337.662000",
          "110337.665000",
          "110337.668000",
          "110337.671000",
          "110337.674000",
          "110337.677000",
          "110337.679000",
          "110337.682000",
          "110337.685000",
          "110337.688000",
          "110337.691000",
          "110337.694000",
          "110337.697000",
          "110337.700000",
          "110337.703000",
          "110337.706000",
          "110357.650000",
          "110357.653000",
          "110357.656000",
          "110357.659000",
          "110357.662000",
          "110357.665000",
          "110357.668000",
          "110357.671000",
          "110357.674000",
          "110357.676000",
          "110357.679000",
          "110357.682000",
          "110357.685000",
          "110357.688000",
          "110357.691000",
          "110357.694000",
          "110357.697000",
          "110357.700000",
          "110357.703000",
          "110357.706000",
          "110437.650000",
          "110437.653000",
          "110437.656000",
          "110437.659000",
          "110437.662000",
          "110437.665000",
          "110437.668000",
          "110437.671000",
          "110437.674000",
          "110437.677000",
          "110437.680000",
          "110437.682000",
          "110437.685000",
          "110437.688000",
          "110437.691000",
          "110437.694000",
          "110437.697000",
          "110437.700000",
          "110437.703000",
          "110437.706000",
          "110437.709000",
          "110437.711000",
          "110437.714000",
          "110437.717000",
          "110437.720000",
          "110437.723000",
          "110437.726000",
          "110437.737000",
          "110437.740000",
          "110437.743000",
          "110437.745000",
          "110517.649000",
          "110517.652000",
          "110517.655000",
          "110517.658000",
          "110517.661000",
          "110517.664000",
          "110517.667000",
          "110517.670000",
          "110517.673000",
          "110517.675000",
          "110517.678000",
          "110517.681000",
          "110517.684000",
          "110517.687000",
          "110517.707000",
          "110517.710000",
          "110517.713000",
          "110517.716000",
          "110517.719000",
          "110517.722000",
          "110517.725000",
          "110517.727000",
          "110517.730000",
          "110517.733000",
          "110517.736000",
          "110517.739000",
          "110517.742000",
          "110557.650000",
          "110557.653000",
          "110557.656000",
          "110557.659000",
          "110557.662000",
          "110557.665000",
          "110557.668000",
          "110557.671000",
          "110557.674000",
          "110557.677000",
          "110557.680000",
          "110557.683000",
          "110557.685000",
          "110557.688000",
          "110557.691000",
          "110557.694000",
          "110557.697000",
          "110557.700000",
          "110557.703000",
          "110557.706000",
          "110557.714000",
          "110557.717000",
          "110557.720000",
          "110557.723000",
          "110557.726000",
          "110557.729000",
          "110557.732000",
          "110637.650000",
          "110637.653000",
          "110637.656000",
          "110637.659000",
          "110637.662000",
          "110637.665000",
          "110637.668000",
          "110637.671000",
          "110637.674000",
          "110637.677000",
          "110637.680000",
          "110637.683000",
          "110637.686000",
          "110637.689000",
          "110637.692000",
          "110637.694000",
          "110637.698000",
          "110637.702000",
          "110637.706000",
          "110637.709000",
          "110637.713000",
          "110637.716000",
          "110637.719000",
          "110637.722000",
          "110637.725000",
          "110637.728000",
          "110717.650000",
          "110717.653000",
          "110717.656000",
          "110717.659000",
          "110717.662000",
          "110717.665000",
          "110717.668000",
          "110717.671000",
          "110717.674000",
          "110717.677000",
          "110717.680000",
          "110717.683000",
          "110717.686000",
          "110717.689000",
          "110717.692000",
          "110717.694000",
