{
  "aor": 0.001475679012345679,
  "aqi": 0.007274784395061729,
  "bids_meta": {
    "AcquisitionMatrixPE": 104,
    "AcquisitionNumber": 1,
    "AcquisitionTime": "11:12:1.375000",
    "BandwidthPerPixelPhaseEncode": 17.17,
    "BaseResolution": 104,
    "BodyPartExamined": "BRAIN",
    "CogAtlasID": "trm_4c898da401420",
    "ConsistencyInfo": "N4_VE11C_LATEST_20160120",
    "ConversionSoftware": "dcm2niix",
    "ConversionSoftwareVersion": "v1.0.20171215 (OpenJPEG build) GCC7.3.0",
    "DerivedVendorReportedEchoSpacing": 0.000560011,
    "DeviceSerialNumber": "167006",
    "DwellTime": 2.1e-06,
    "EchoTime": 0.037,
    "EchoTrainLength": 104,
    "EffectiveEchoSpacing": 0.000560011,
    "FlipAngle": 52,
    "ImageComments": "Unaliased_MB4_PE3_LB",
    "ImageOrientationPatientDICOM": [
      0.999732,
      0.00883063,
      -0.0214048,
      -0.0177994,
      0.884342,
      -0.466501
    ],
    "ImageType": [
      "ORIGINAL",
      "PRIMARY",
      "M",
      "MB",
      "ND",
      "MOSAIC"
    ],
    "InPlanePhaseEncodingDirectionDICOM": "COL",
    "InstitutionAddress": "Chemin_Queen-Mary_4565_Montreal_District_CA_H3W_1W5",
    "InstitutionName": "IUGM",
    "InstitutionalDepartmentName": "Department",
    "MRAcquisitionType": "2D",
    "MagneticFieldStrength": 3,
    "Manufacturer": "Siemens",
    "ManufacturersModelName": "Prisma_fit",
    "Modality": "MR",
    "MultibandAccelerationFactor": 4,
    "PartialFourier": 1,
    "PatientPosition": "HFS",
    "PercentPhaseFOV": 100,
    "PhaseEncodingDirection": "j-",
    "PhaseEncodingSteps": 104,
    "PhaseResolution": 1,
    "PixelBandwidth": 2290,
    "ProcedureStepDescription": "video5_generic",
    "ProtocolName": "func_task-bourne9",
    "PulseSequenceDetails": "%CustomerSeq%_cmrr_mbep2d_bold",
    "ReceiveCoilActiveElements": "HC1-7;NC1,2",
    "ReceiveCoilName": "HeadNeck_64",
    "ReconMatrixPE": 104,
    "RepetitionTime": 1.49,
    "SAR": 0.035737,
    "ScanOptions": "FS",
    "ScanningSequence": "EP",
    "SequenceName": "epfid2d1_104",
    "SequenceVariant": "SK_SS",
    "SeriesDescription": "func_task-bourne9",
    "SeriesNumber": 13,
    "ShimSetting": [
      616,
      -7175,
      -8874,
      362,
      -27,
      -113,
      -29,
      -27
    ],
    "SliceThickness": 2,
    "SliceTiming": [
      0,
      0.7825,
      0.0975,
      0.8825,
      0.195,
      0.98,
      0.2925,
      1.0775,
      0.3925,
      1.175,
      0.49,
      1.2725,
      0.5875,
      1.3725,
      0.685,
      0,
      0.7825,
      0.0975,
      0.8825,
      0.195,
      0.98,
      0.2925,
      1.0775,
      0.3925,
      1.175,
      0.49,
      1.2725,
      0.5875,
      1.3725,
      0.685,
      0,
      0.7825,
      0.0975,
      0.8825,
      0.195,
      0.98,
      0.2925,
      1.0775,
      0.3925,
      1.175,
      0.49,
      1.2725,
      0.5875,
      1.3725,
      0.685,
      0,
      0.7825,
      0.0975,
      0.8825,
      0.195,
      0.98,
      0.2925,
      1.0775,
      0.3925,
      1.175,
      0.49,
      1.2725,
      0.5875,
      1.3725,
      0.685
    ],
    "SoftwareVersions": "syngo_MR_E11",
    "SpacingBetweenSlices": 2,
    "StationName": "MRC35049",
    "TaskName": "bourne09",
    "TotalReadoutTime": 0.0576811,
    "TxRefAmp": 248.528,
    "dataset": "<unset>",
    "dcmmeta_affine": [
      [
        -1.9994637966156006,
        -0.03559885919094086,
        -0.029619330540299416,
        108.64227294921875
      ],
      [
        -0.017661264166235924,
        1.7686831951141357,
        -0.9335137009620667,
        -60.67439651489258
      ],
      [
        -0.0428096167743206,
        0.9330018758773804,
        1.7685233354568481,
        -96.05810546875
      ],
      [
        0.0,
        0.0,
        0.0,
        1.0
      ]
    ],
    "dcmmeta_reorient_transform": [
      [
        0.0,
        -1.0,
        0.0,
        103.0
      ],
      [
        1.0,
        0.0,
        0.0,
        0.0
      ],
      [
        0.0,
        0.0,
        1.0,
        0.0
      ],
      [
        0.0,
        0.0,
        0.0,
        1.0
      ]
    ],
    "dcmmeta_shape": [
      104,
      104,
      60,
      405
    ],
    "dcmmeta_slice_dim": 2,
    "dcmmeta_version": 0.6,
    "global": {
      "const": {
        "AcquisitionMatrix": [
          104,
          0,
          0,
          104
        ],
        "AngioFlag": "N",
        "BitsAllocated": 16,
        "BitsStored": 16,
        "BodyPartExamined": "BRAIN",
        "Columns": 832,
        "EchoNumbers": 1,
        "EchoTime": 37.0,
        "EchoTrainLength": 104,
        "FlipAngle": 52.0,
        "HighBit": 15,
        "ImageOrientationPatient": [
          0.99973189110709,
          0.00883063168396,
          -0.021404808981,
          -0.0177994303892,
          0.88434159931485,
          -0.4665009281867
        ],
        "ImagePositionPatient": [
          -819.82242491295,
          -771.72935783652,
          355.23646248366
        ],
        "ImageType": [
          "ORIGINAL",
          "PRIMARY",
          "M",
          "MB",
          "ND",
          "MOSAIC"
        ],
        "ImagedNucleus": "1H",
        "ImagingFrequency": 123.259313,
        "InPlanePhaseEncodingDirection": "COL",
        "MRAcquisitionType": "2D",
        "MagneticFieldStrength": 3.0,
        "Manufacturer": "SIEMENS",
        "ManufacturerModelName": "Prisma_fit",
        "Modality": "MR",
        "NumberOfAverages": 1.0,
        "NumberOfPhaseEncodingSteps": 104,
        "PercentPhaseFieldOfView": 100.0,
        "PercentSampling": 100.0,
        "PerformedProcedureStepStartTime": "103131.729000",
        "PhotometricInterpretation": "MONOCHROME2",
        "PixelBandwidth": 2290.0,
        "PixelRepresentation": 0,
        "PixelSpacing": [
          2.0,
          2.0
        ],
        "ProtocolName": "func_task-bourne9",
        "RepetitionTime": 1490.0,
        "Rows": 832,
        "SAR": 0.03573701393159,
        "SamplesPerPixel": 1,
        "ScanOptions": "FS",
        "ScanningSequence": "EP",
        "SequenceName": "epfid2d1_104",
        "SequenceVariant": [
          "SK",
          "SS"
        ],
        "SeriesDescription": "func_task-bourne9",
        "SeriesNumber": 13,
        "SeriesTime": "111318.021000",
        "SliceLocation": -58.229267574019,
        "SliceThickness": 2.0,
        "SmallestImagePixelValue": 0,
        "SoftwareVersions": "syngo MR E11",
        "SpacingBetweenSlices": 2.0000000342053,
        "SpecificCharacterSet": "ISO_IR 100",
        "StudyID": "1",
        "StudyTime": "103131.647000",
        "TransmitCoilName": "Body",
        "VariableFlipAngleFlag": "N",
        "WindowCenterWidthExplanation": "Algo1",
        "dBdt": 0.0
      },
      "slices": {}
    },
    "modality": "bold",
    "session_id": "005",
    "subject_id": "02",
    "task_id": "bourne09",
    "time": {
      "samples": {
        "AcquisitionNumber": [
          1,
          2,
          3,
          4,
          5,
          6,
          7,
          8,
          9,
          10,
          11,
          12,
          13,
          14,
          15,
          16,
          17,
          18,
          19,
          20,
          21,
          22,
          23,
          24,
          25,
          26,
          27,
          28,
          29,
          30,
          31,
          32,
          33,
          34,
          35,
          36,
          37,
          38,
          39,
          40,
          41,
          42,
          43,
          44,
          45,
          46,
          47,
          48,
          49,
          50,
          51,
          52,
          53,
          54,
          55,
          56,
          57,
          58,
          59,
          60,
          61,
          62,
          63,
          64,
          65,
          66,
          67,
          68,
          69,
          70,
          71,
          72,
          73,
          74,
          75,
          76,
          77,
          78,
          79,
          80,
          81,
          82,
          83,
          84,
          85,
          86,
          87,
          88,
          89,
          90,
          91,
          92,
          93,
          94,
          95,
          96,
          97,
          98,
          99,
          100,
          101,
          102,
          103,
          104,
          105,
          106,
          107,
          108,
          109,
          110,
          111,
          112,
          113,
          114,
          115,
          116,
          117,
          118,
          119,
          120,
          121,
          122,
          123,
          124,
          125,
          126,
          127,
          128,
          129,
          130,
          131,
          132,
          133,
          134,
          135,
          136,
          137,
          138,
          139,
          140,
          141,
          142,
          143,
          144,
          145,
          146,
          147,
          148,
          149,
          150,
          151,
          152,
          153,
          154,
          155,
          156,
          157,
          158,
          159,
          160,
          161,
          162,
          163,
          164,
          165,
          166,
          167,
          168,
          169,
          170,
          171,
          172,
          173,
          174,
          175,
          176,
          177,
          178,
          179,
          180,
          181,
          182,
          183,
          184,
          185,
          186,
          187,
          188,
          189,
          190,
          191,
          192,
          193,
          194,
          195,
          196,
          197,
          198,
          199,
          200,
          201,
          202,
          203,
          204,
          205,
          206,
          207,
          208,
          209,
          210,
          211,
          212,
          213,
          214,
          215,
          216,
          217,
          218,
          219,
          220,
          221,
          222,
          223,
          224,
          225,
          226,
          227,
          228,
          229,
          230,
          231,
          232,
          233,
          234,
          235,
          236,
          237,
          238,
          239,
          240,
          241,
          242,
          243,
          244,
          245,
          246,
          247,
          248,
          249,
          250,
          251,
          252,
          253,
          254,
          255,
          256,
          257,
          258,
          259,
          260,
          261,
          262,
          263,
          264,
          265,
          266,
          267,
          268,
          269,
          270,
          271,
          272,
          273,
          274,
          275,
          276,
          277,
          278,
          279,
          280,
          281,
          282,
          283,
          284,
          285,
          286,
          287,
          288,
          289,
          290,
          291,
          292,
          293,
          294,
          295,
          296,
          297,
          298,
          299,
          300,
          301,
          302,
          303,
          304,
          305,
          306,
          307,
          308,
          309,
          310,
          311,
          312,
          313,
          314,
          315,
          316,
          317,
          318,
          319,
          320,
          321,
          322,
          323,
          324,
          325,
          326,
          327,
          328,
          329,
          330,
          331,
          332,
          333,
          334,
          335,
          336,
          337,
          338,
          339,
          340,
          341,
          342,
          343,
          344,
          345,
          346,
          347,
          348,
          349,
          350,
          351,
          352,
          353,
          354,
          355,
          356,
          357,
          358,
          359,
          360,
          361,
          362,
          363,
          364,
          365,
          366,
          367,
          368,
          369,
          370,
          371,
          372,
          373,
          374,
          375,
          376,
          377,
          378,
          379,
          380,
          381,
          382,
          383,
          384,
          385,
          386,
          387,
          388,
          389,
          390,
          391,
          392,
          393,
          394,
          395,
          396,
          397,
          398,
          399,
          400,
          401,
          402,
          403,
          404,
          405
        ],
        "AcquisitionTime": [
          "111201.375000",
          "111202.865000",
          "111204.355000",
          "111205.845000",
          "111207.335000",
          "111208.825000",
          "111210.315000",
          "111211.805000",
          "111213.295000",
          "111214.785000",
          "111216.275000",
          "111217.765000",
          "111219.255000",
          "111220.745000",
          "111222.235000",
          "111223.725000",
          "111225.215000",
          "111226.705000",
          "111228.195000",
          "111229.685000",
          "111231.175000",
          "111232.665000",
          "111234.155000",
          "111235.645000",
          "111237.135000",
          "111238.625000",
          "111240.115000",
          "111241.605000",
          "111243.095000",
          "111244.585000",
          "111246.075000",
          "111247.565000",
          "111249.055000",
          "111250.545000",
          "111252.035000",
          "111253.525000",
          "111255.015000",
          "111256.505000",
          "111257.995000",
          "111259.485000",
          "111300.975000",
          "111302.465000",
          "111303.955000",
          "111305.445000",
          "111306.935000",
          "111308.425000",
          "111309.915000",
          "111311.405000",
          "111312.895000",
          "111314.385000",
          "111315.875000",
          "111317.365000",
          "111318.855000",
          "111320.345000",
          "111321.835000",
          "111323.325000",
          "111324.815000",
          "111326.305000",
          "111327.795000",
          "111329.285000",
          "111330.775000",
          "111332.265000",
          "111333.755000",
          "111335.245000",
          "111336.735000",
          "111338.225000",
          "111339.715000",
          "111341.205000",
          "111342.695000",
          "111344.185000",
          "111345.675000",
          "111347.165000",
          "111348.655000",
          "111350.145000",
          "111351.635000",
          "111353.125000",
          "111354.615000",
          "111356.105000",
          "111357.595000",
          "111359.085000",
          "111400.575000",
          "111402.065000",
          "111403.555000",
          "111405.045000",
          "111406.535000",
          "111408.025000",
          "111409.515000",
          "111411.005000",
          "111412.495000",
          "111413.985000",
          "111415.475000",
          "111416.965000",
          "111418.455000",
          "111419.945000",
          "111421.435000",
          "111422.925000",
          "111424.415000",
          "111425.905000",
          "111427.395000",
          "111428.885000",
          "111430.375000",
          "111431.865000",
          "111433.355000",
          "111434.845000",
          "111436.335000",
          "111437.825000",
          "111439.315000",
          "111440.805000",
          "111442.295000",
          "111443.785000",
          "111445.275000",
          "111446.765000",
          "111448.255000",
          "111449.745000",
          "111451.235000",
          "111452.725000",
          "111454.215000",
          "111455.705000",
          "111457.195000",
          "111458.685000",
          "111500.175000",
          "111501.665000",
          "111503.155000",
          "111504.645000",
          "111506.135000",
          "111507.625000",
          "111509.115000",
          "111510.605000",
          "111512.095000",
          "111513.585000",
          "111515.075000",
          "111516.565000",
          "111518.055000",
          "111519.545000",
          "111521.035000",
          "111522.525000",
          "111524.015000",
          "111525.505000",
          "111526.995000",
          "111528.485000",
          "111529.975000",
          "111531.465000",
          "111532.955000",
          "111534.445000",
          "111535.935000",
          "111537.425000",
          "111538.915000",
          "111540.405000",
          "111541.895000",
          "111543.385000",
          "111544.875000",
          "111546.365000",
          "111547.855000",
          "111549.345000",
          "111550.835000",
          "111552.325000",
          "111553.815000",
          "111555.305000",
          "111556.795000",
          "111558.285000",
          "111559.775000",
          "111601.265000",
          "111602.755000",
          "111604.245000",
          "111605.735000",
          "111607.225000",
          "111608.715000",
          "111610.205000",
          "111611.695000",
          "111613.185000",
          "111614.675000",
          "111616.165000",
          "111617.655000",
          "111619.145000",
          "111620.635000",
          "111622.125000",
          "111623.615000",
          "111625.105000",
          "111626.595000",
          "111628.085000",
          "111629.575000",
          "111631.065000",
          "111632.555000",
          "111634.045000",
          "111635.535000",
          "111637.025000",
          "111638.515000",
          "111640.005000",
          "111641.495000",
          "111642.985000",
          "111644.475000",
          "111645.965000",
          "111647.455000",
          "111648.945000",
          "111650.435000",
          "111651.925000",
          "111653.415000",
          "111654.905000",
          "111656.395000",
          "111657.885000",
          "111659.375000",
          "111700.865000",
          "111702.355000",
          "111703.845000",
          "111705.335000",
          "111706.825000",
          "111708.315000",
          "111709.805000",
          "111711.295000",
          "111712.785000",
          "111714.275000",
          "111715.765000",
          "111717.255000",
          "111718.745000",
          "111720.235000",
          "111721.725000",
          "111723.215000",
          "111724.705000",
          "111726.195000",
          "111727.685000",
          "111729.175000",
          "111730.665000",
          "111732.155000",
          "111733.645000",
          "111735.135000",
          "111736.625000",
          "111738.115000",
          "111739.605000",
          "111741.095000",
          "111742.585000",
          "111744.075000",
          "111745.565000",
          "111747.055000",
          "111748.545000",
          "111750.035000",
          "111751.525000",
          "111753.015000",
          "111754.505000",
          "111755.995000",
          "111757.485000",
          "111758.975000",
          "111800.465000",
          "111801.955000",
          "111803.445000",
          "111804.935000",
          "111806.425000",
          "111807.915000",
          "111809.405000",
          "111810.895000",
          "111812.385000",
          "111813.875000",
          "111815.365000",
          "111816.855000",
          "111818.345000",
          "111819.835000",
          "111821.325000",
          "111822.815000",
          "111824.305000",
          "111825.795000",
          "111827.285000",
          "111828.775000",
          "111830.265000",
          "111831.755000",
          "111833.245000",
          "111834.735000",
          "111836.225000",
          "111837.715000",
          "111839.205000",
          "111840.695000",
          "111842.185000",
          "111843.675000",
          "111845.165000",
          "111846.655000",
          "111848.145000",
          "111849.635000",
          "111851.125000",
          "111852.615000",
          "111854.105000",
          "111855.595000",
          "111857.085000",
          "111858.575000",
          "111900.065000",
          "111901.555000",
          "111903.045000",
          "111904.535000",
          "111906.025000",
          "111907.515000",
          "111909.005000",
          "111910.495000",
          "111911.985000",
          "111913.475000",
          "111914.965000",
          "111916.455000",
          "111917.945000",
          "111919.435000",
          "111920.925000",
          "111922.415000",
          "111923.905000",
          "111925.395000",
          "111926.885000",
          "111928.375000",
          "111929.865000",
          "111931.355000",
          "111932.845000",
          "111934.335000",
          "111935.825000",
          "111937.315000",
          "111938.805000",
          "111940.295000",
          "111941.785000",
          "111943.275000",
          "111944.765000",
          "111946.255000",
          "111947.745000",
          "111949.235000",
          "111950.725000",
          "111952.215000",
          "111953.705000",
          "111955.195000",
          "111956.685000",
          "111958.175000",
          "111959.665000",
          "112001.155000",
          "112002.645000",
          "112004.135000",
          "112005.625000",
          "112007.115000",
          "112008.605000",
          "112010.095000",
          "112011.585000",
          "112013.075000",
          "112014.565000",
          "112016.055000",
          "112017.545000",
          "112019.035000",
          "112020.525000",
          "112022.015000",
          "112023.505000",
          "112024.995000",
          "112026.485000",
          "112027.975000",
          "112029.465000",
          "112030.955000",
          "112032.445000",
          "112033.935000",
          "112035.425000",
          "112036.915000",
          "112038.405000",
          "112039.895000",
          "112041.385000",
          "112042.875000",
          "112044.365000",
          "112045.855000",
          "112047.345000",
          "112048.835000",
          "112050.325000",
          "112051.815000",
          "112053.305000",
          "112054.795000",
          "112056.285000",
          "112057.775000",
          "112059.265000",
          "112100.755000",
          "112102.245000",
          "112103.735000",
          "112105.225000",
          "112106.715000",
          "112108.205000",
          "112109.695000",
          "112111.185000",
          "112112.675000",
          "112114.165000",
          "112115.655000",
          "112117.145000",
          "112118.635000",
          "112120.125000",
          "112121.615000",
          "112123.105000",
          "112124.595000",
          "112126.085000",
          "112127.575000",
          "112129.065000",
          "112130.555000",
          "112132.045000",
          "112133.535000",
          "112135.025000",
          "112136.515000",
          "112138.005000",
          "112139.495000",
          "112140.985000",
          "112142.475000",
          "112143.965000",
          "112145.455000",
          "112146.945000",
          "112148.435000",
          "112149.925000",
          "112151.415000",
          "112152.905000",
          "112154.395000",
          "112155.885000",
          "112157.375000",
          "112158.865000",
          "112200.355000",
          "112201.845000",
          "112203.335000"
        ],
        "ContentTime": [
          "111318.025000",
          "111318.029000",
          "111318.032000",
          "111318.035000",
          "111318.038000",
          "111318.041000",
          "111318.044000",
          "111318.047000",
          "111318.057000",
          "111318.060000",
          "111318.063000",
          "111318.066000",
          "111318.069000",
          "111318.072000",
          "111318.075000",
          "111318.081000",
          "111318.084000",
          "111318.087000",
          "111318.090000",
          "111318.093000",
          "111318.096000",
          "111337.991000",
          "111337.994000",
          "111337.997000",
          "111338.001000",
          "111338.004000",
          "111338.007000",
          "111338.010000",
          "111338.013000",
          "111338.016000",
          "111338.019000",
          "111338.021000",
          "111338.024000",
          "111338.027000",
          "111338.030000",
          "111338.033000",
          "111338.036000",
          "111338.039000",
          "111338.050000",
          "111338.053000",
          "111338.056000",
          "111357.991000",
          "111357.994000",
          "111357.997000",
          "111358.001000",
          "111358.004000",
          "111358.007000",
          "111358.010000",
          "111358.013000",
          "111358.015000",
          "111358.018000",
          "111358.021000",
          "111358.024000",
          "111358.027000",
          "111358.030000",
          "111358.033000",
          "111358.036000",
          "111358.039000",
          "111358.042000",
          "111358.045000",
          "111358.048000",
          "111417.991000",
          "111417.994000",
          "111417.997000",
          "111418.001000",
          "111418.004000",
          "111418.007000",
          "111418.010000",
          "111418.013000",
          "111418.016000",
          "111418.019000",
          "111418.022000",
          "111418.025000",
          "111418.028000",
          "111418.031000",
          "111418.033000",
          "111418.036000",
          "111418.050000",
          "111418.053000",
          "111418.056000",
          "111418.058000",
          "111437.991000",
          "111437.994000",
          "111437.997000",
          "111438.001000",
          "111438.004000",
          "111438.007000",
          "111438.010000",
          "111438.013000",
          "111438.016000",
          "111438.019000",
          "111438.022000",
          "111438.025000",
          "111438.028000",
          "111438.031000",
          "111438.034000",
          "111438.036000",
          "111438.039000",
          "111438.042000",
          "111438.045000",
          "111438.048000",
          "111517.991000",
          "111517.994000",
          "111517.997000",
          "111518.001000",
          "111518.009000",
          "111518.012000",
          "111518.015000",
          "111518.018000",
          "111518.021000",
          "111518.024000",
          "111518.027000",
          "111518.030000",
          "111518.033000",
          "111518.036000",
          "111518.039000",
          "111518.042000",
          "111518.045000",
          "111518.048000",
          "111518.051000",
          "111518.054000",
          "111518.057000",
          "111518.060000",
          "111518.063000",
          "111518.066000",
          "111518.069000",
          "111518.072000",
          "111518.074000",
          "111518.077000",
          "111518.080000",
          "111518.083000",
          "111557.991000",
          "111557.994000",
          "111557.997000",
          "111558.001000",
          "111558.004000",
          "111558.007000",
          "111558.010000",
          "111558.013000",
          "111558.016000",
          "111558.019000",
          "111558.021000",
          "111558.024000",
          "111558.027000",
          "111558.030000",
          "111558.033000",
          "111558.036000",
          "111558.039000",
          "111558.042000",
          "111558.045000",
          "111558.048000",
          "111558.051000",
          "111558.054000",
          "111558.057000",
          "111558.060000",
          "111558.063000",
          "111558.066000",
          "111558.069000",
          "111637.991000",
          "111637.994000",
          "111637.997000",
          "111638.001000",
          "111638.004000",
          "111638.007000",
          "111638.010000",
          "111638.013000",
          "111638.016000",
          "111638.019000",
          "111638.022000",
          "111638.025000",
          "111638.027000",
          "111638.030000",
          "111638.033000",
          "111638.036000",
          "111638.039000",
          "111638.042000",
          "111638.045000",
          "111638.048000",
          "111638.051000",
          "111638.054000",
          "111638.057000",
          "111638.060000",
          "111638.063000",
          "111638.066000",
          "111638.069000",
          "111717.991000",
          "111717.995000",
          "111717.998000",
          "111718.002000",
          "111718.005000",
          "111718.008000",
          "111718.011000",
          "111718.014000",
          "111718.017000",
          "111718.020000",
          "111718.023000",
          "111718.026000",
          "111718.029000",
          "111718.032000",
          "111718.035000",
          "111718.038000",
          "111718.041000",
          "111718.044000",
          "111718.047000",
          "111718.050000",
          "111718.052000",
          "111718.055000",
          "111718.058000",
          "111718.061000",
          "111718.064000",
          "111718.067000",
          "111757.991000",
          "111757.994000",
          "111757.997000",
          "111758.001000",
          "111758.004000",
          "111758.007000",
          "111758.010000",
          "111758.013000",
          "111758.016000",
          "111758.019000",
          "111758.022000",
          "111758.025000",
          "111758.028000",
