{
  "aor": 0.000853861386138614,
  "aqi": 0.006164730792079209,
  "bids_meta": {
    "AcquisitionMatrixPE": 104,
    "AcquisitionNumber": 1,
    "AcquisitionTime": "10:50:54.385000",
    "BandwidthPerPixelPhaseEncode": 17.17,
    "BaseResolution": 104,
    "BodyPartExamined": "BRAIN",
    "CogAtlasID": "trm_4c898da401420",
    "ConsistencyInfo": "N4_VE11C_LATEST_20160120",
    "ConversionSoftware": "dcm2niix",
    "ConversionSoftwareVersion": "v1.0.20171215 (OpenJPEG build) GCC7.3.0",
    "DerivedVendorReportedEchoSpacing": 0.000560011,
    "DeviceSerialNumber": "167006",
    "DwellTime": 2.1e-06,
    "EchoTime": 0.037,
    "EchoTrainLength": 104,
    "EffectiveEchoSpacing": 0.000560011,
    "FlipAngle": 52,
    "ImageComments": "Unaliased_MB4_PE3_LB",
    "ImageOrientationPatientDICOM": [
      0.999732,
      0.00883063,
      -0.0214048,
      -0.0177994,
      0.884342,
      -0.466501
    ],
    "ImageType": [
      "ORIGINAL",
      "PRIMARY",
      "M",
      "MB",
      "ND",
      "MOSAIC"
    ],
    "InPlanePhaseEncodingDirectionDICOM": "COL",
    "InstitutionAddress": "Chemin_Queen-Mary_4565_Montreal_District_CA_H3W_1W5",
    "InstitutionName": "IUGM",
    "InstitutionalDepartmentName": "Department",
    "MRAcquisitionType": "2D",
    "MagneticFieldStrength": 3,
    "Manufacturer": "Siemens",
    "ManufacturersModelName": "Prisma_fit",
    "Modality": "MR",
    "MultibandAccelerationFactor": 4,
    "PartialFourier": 1,
    "PatientPosition": "HFS",
    "PercentPhaseFOV": 100,
    "PhaseEncodingDirection": "j-",
    "PhaseEncodingSteps": 104,
    "PhaseResolution": 1,
    "PixelBandwidth": 2290,
    "ProcedureStepDescription": "video5_generic",
    "ProtocolName": "func_task-bourne7",
    "PulseSequenceDetails": "%CustomerSeq%_cmrr_mbep2d_bold",
    "ReceiveCoilActiveElements": "HC1-7;NC1,2",
    "ReceiveCoilName": "HeadNeck_64",
    "ReconMatrixPE": 104,
    "RepetitionTime": 1.49,
    "SAR": 0.035737,
    "ScanOptions": "FS",
    "ScanningSequence": "EP",
    "SequenceName": "epfid2d1_104",
    "SequenceVariant": "SK_SS",
    "SeriesDescription": "func_task-bourne7",
    "SeriesNumber": 9,
    "ShimSetting": [
      616,
      -7175,
      -8874,
      362,
      -27,
      -113,
      -29,
      -27
    ],
    "SliceThickness": 2,
    "SliceTiming": [
      0,
      0.7825,
      0.0975,
      0.88,
      0.195,
      0.98,
      0.2925,
      1.0775,
      0.39,
      1.175,
      0.49,
      1.2725,
      0.5875,
      1.37,
      0.685,
      0,
      0.7825,
      0.0975,
      0.88,
      0.195,
      0.98,
      0.2925,
      1.0775,
      0.39,
      1.175,
      0.49,
      1.2725,
      0.5875,
      1.37,
      0.685,
      0,
      0.7825,
      0.0975,
      0.88,
      0.195,
      0.98,
      0.2925,
      1.0775,
      0.39,
      1.175,
      0.49,
      1.2725,
      0.5875,
      1.37,
      0.685,
      0,
      0.7825,
      0.0975,
      0.88,
      0.195,
      0.98,
      0.2925,
      1.0775,
      0.39,
      1.175,
      0.49,
      1.2725,
      0.5875,
      1.37,
      0.685
    ],
    "SoftwareVersions": "syngo_MR_E11",
    "SpacingBetweenSlices": 2,
    "StationName": "MRC35049",
    "TaskName": "bourne07",
    "TotalReadoutTime": 0.0576811,
    "TxRefAmp": 248.528,
    "dataset": "<unset>",
    "dcmmeta_affine": [
      [
        -1.9994637966156006,
        -0.03559885919094086,
        -0.029619330540299416,
        108.64227294921875
      ],
      [
        -0.017661264166235924,
        1.7686831951141357,
        -0.9335137009620667,
        -60.67439651489258
      ],
      [
        -0.0428096167743206,
        0.9330018758773804,
        1.7685233354568481,
        -96.05810546875
      ],
      [
        0.0,
        0.0,
        0.0,
        1.0
      ]
    ],
    "dcmmeta_reorient_transform": [
      [
        0.0,
        -1.0,
        0.0,
        103.0
      ],
      [
        1.0,
        0.0,
        0.0,
        0.0
      ],
      [
        0.0,
        0.0,
        1.0,
        0.0
      ],
      [
        0.0,
        0.0,
        0.0,
        1.0
      ]
    ],
    "dcmmeta_shape": [
      104,
      104,
      60,
      405
    ],
    "dcmmeta_slice_dim": 2,
    "dcmmeta_version": 0.6,
    "global": {
      "const": {
        "AcquisitionMatrix": [
          104,
          0,
          0,
          104
        ],
        "AngioFlag": "N",
        "BitsAllocated": 16,
        "BitsStored": 16,
        "BodyPartExamined": "BRAIN",
        "Columns": 832,
        "EchoNumbers": 1,
        "EchoTime": 37.0,
        "EchoTrainLength": 104,
        "FlipAngle": 52.0,
        "HighBit": 15,
        "ImageOrientationPatient": [
          0.99973189110709,
          0.00883063168396,
          -0.021404808981,
          -0.0177994303892,
          0.88434159931485,
          -0.4665009281867
        ],
        "ImagePositionPatient": [
          -819.82242491295,
          -771.72935783652,
          355.23646248366
        ],
        "ImageType": [
          "ORIGINAL",
          "PRIMARY",
          "M",
          "MB",
          "ND",
          "MOSAIC"
        ],
        "ImagedNucleus": "1H",
        "ImagingFrequency": 123.259302,
        "InPlanePhaseEncodingDirection": "COL",
        "MRAcquisitionType": "2D",
        "MagneticFieldStrength": 3.0,
        "Manufacturer": "SIEMENS",
        "ManufacturerModelName": "Prisma_fit",
        "Modality": "MR",
        "NumberOfAverages": 1.0,
        "NumberOfPhaseEncodingSteps": 104,
        "PercentPhaseFieldOfView": 100.0,
        "PercentSampling": 100.0,
        "PerformedProcedureStepStartTime": "103131.729000",
        "PhotometricInterpretation": "MONOCHROME2",
        "PixelBandwidth": 2290.0,
        "PixelRepresentation": 0,
        "PixelSpacing": [
          2.0,
          2.0
        ],
        "ProtocolName": "func_task-bourne7",
        "RepetitionTime": 1490.0,
        "Rows": 832,
        "SAR": 0.03573701393159,
        "SamplesPerPixel": 1,
        "ScanOptions": "FS",
        "ScanningSequence": "EP",
        "SequenceName": "epfid2d1_104",
        "SequenceVariant": [
          "SK",
          "SS"
        ],
        "SeriesDescription": "func_task-bourne7",
        "SeriesNumber": 9,
        "SeriesTime": "105212.664000",
        "SliceLocation": -58.229267574019,
        "SliceThickness": 2.0,
        "SmallestImagePixelValue": 0,
        "SoftwareVersions": "syngo MR E11",
        "SpacingBetweenSlices": 2.0000000342053,
        "SpecificCharacterSet": "ISO_IR 100",
        "StudyID": "1",
        "StudyTime": "103131.647000",
        "TransmitCoilName": "Body",
        "VariableFlipAngleFlag": "N",
        "WindowCenterWidthExplanation": "Algo1",
        "dBdt": 0.0
      },
      "slices": {}
    },
    "modality": "bold",
    "session_id": "005",
    "subject_id": "02",
    "task_id": "bourne07",
    "time": {
      "samples": {
        "AcquisitionNumber": [
          1,
          2,
          3,
          4,
          5,
          6,
          7,
          8,
          9,
          10,
          11,
          12,
          13,
          14,
          15,
          16,
          17,
          18,
          19,
          20,
          21,
          22,
          23,
          24,
          25,
          26,
          27,
          28,
          29,
          30,
          31,
          32,
          33,
          34,
          35,
          36,
          37,
          38,
          39,
          40,
          41,
          42,
          43,
          44,
          45,
          46,
          47,
          48,
          49,
          50,
          51,
          52,
          53,
          54,
          55,
          56,
          57,
          58,
          59,
          60,
          61,
          62,
          63,
          64,
          65,
          66,
          67,
          68,
          69,
          70,
          71,
          72,
          73,
          74,
          75,
          76,
          77,
          78,
          79,
          80,
          81,
          82,
          83,
          84,
          85,
          86,
          87,
          88,
          89,
          90,
          91,
          92,
          93,
          94,
          95,
          96,
          97,
          98,
          99,
          100,
          101,
          102,
          103,
          104,
          105,
          106,
          107,
          108,
          109,
          110,
          111,
          112,
          113,
          114,
          115,
          116,
          117,
          118,
          119,
          120,
          121,
          122,
          123,
          124,
          125,
          126,
          127,
          128,
          129,
          130,
          131,
          132,
          133,
          134,
          135,
          136,
          137,
          138,
          139,
          140,
          141,
          142,
          143,
          144,
          145,
          146,
          147,
          148,
          149,
          150,
          151,
          152,
          153,
          154,
          155,
          156,
          157,
          158,
          159,
          160,
          161,
          162,
          163,
          164,
          165,
          166,
          167,
          168,
          169,
          170,
          171,
          172,
          173,
          174,
          175,
          176,
          177,
          178,
          179,
          180,
          181,
          182,
          183,
          184,
          185,
          186,
          187,
          188,
          189,
          190,
          191,
          192,
          193,
          194,
          195,
          196,
          197,
          198,
          199,
          200,
          201,
          202,
          203,
          204,
          205,
          206,
          207,
          208,
          209,
          210,
          211,
          212,
          213,
          214,
          215,
          216,
          217,
          218,
          219,
          220,
          221,
          222,
          223,
          224,
          225,
          226,
          227,
          228,
          229,
          230,
          231,
          232,
          233,
          234,
          235,
          236,
          237,
          238,
          239,
          240,
          241,
          242,
          243,
          244,
          245,
          246,
          247,
          248,
          249,
          250,
          251,
          252,
          253,
          254,
          255,
          256,
          257,
          258,
          259,
          260,
          261,
          262,
          263,
          264,
          265,
          266,
          267,
          268,
          269,
          270,
          271,
          272,
          273,
          274,
          275,
          276,
          277,
          278,
          279,
          280,
          281,
          282,
          283,
          284,
          285,
          286,
          287,
          288,
          289,
          290,
          291,
          292,
          293,
          294,
          295,
          296,
          297,
          298,
          299,
          300,
          301,
          302,
          303,
          304,
          305,
          306,
          307,
          308,
          309,
          310,
          311,
          312,
          313,
          314,
          315,
          316,
          317,
          318,
          319,
          320,
          321,
          322,
          323,
          324,
          325,
          326,
          327,
          328,
          329,
          330,
          331,
          332,
          333,
          334,
          335,
          336,
          337,
          338,
          339,
          340,
          341,
          342,
          343,
          344,
          345,
          346,
          347,
          348,
          349,
          350,
          351,
          352,
          353,
          354,
          355,
          356,
          357,
          358,
          359,
          360,
          361,
          362,
          363,
          364,
          365,
          366,
          367,
          368,
          369,
          370,
          371,
          372,
          373,
          374,
          375,
          376,
          377,
          378,
          379,
          380,
          381,
          382,
          383,
          384,
          385,
          386,
          387,
          388,
          389,
          390,
          391,
          392,
          393,
          394,
          395,
          396,
          397,
          398,
          399,
          400,
          401,
          402,
          403,
          404,
          405
        ],
        "AcquisitionTime": [
          "105054.385000",
          "105055.875000",
          "105057.365000",
          "105058.855000",
          "105100.345000",
          "105101.835000",
          "105103.325000",
          "105104.815000",
          "105106.305000",
          "105107.795000",
          "105109.285000",
          "105110.775000",
          "105112.265000",
          "105113.755000",
          "105115.245000",
          "105116.735000",
          "105118.225000",
          "105119.715000",
          "105121.205000",
          "105122.695000",
          "105124.185000",
          "105125.675000",
          "105127.165000",
          "105128.655000",
          "105130.145000",
          "105131.635000",
          "105133.125000",
          "105134.615000",
          "105136.105000",
          "105137.595000",
          "105139.085000",
          "105140.575000",
          "105142.065000",
          "105143.555000",
          "105145.045000",
          "105146.535000",
          "105148.025000",
          "105149.515000",
          "105151.005000",
          "105152.495000",
          "105153.985000",
          "105155.475000",
          "105156.965000",
          "105158.455000",
          "105159.945000",
          "105201.435000",
          "105202.925000",
          "105204.415000",
          "105205.905000",
          "105207.395000",
          "105208.885000",
          "105210.375000",
          "105211.865000",
          "105213.355000",
          "105214.845000",
          "105216.335000",
          "105217.825000",
          "105219.315000",
          "105220.805000",
          "105222.295000",
          "105223.785000",
          "105225.275000",
          "105226.765000",
          "105228.255000",
          "105229.745000",
          "105231.235000",
          "105232.725000",
          "105234.215000",
          "105235.705000",
          "105237.195000",
          "105238.685000",
          "105240.175000",
          "105241.665000",
          "105243.155000",
          "105244.645000",
          "105246.135000",
          "105247.625000",
          "105249.115000",
          "105250.605000",
          "105252.095000",
          "105253.585000",
          "105255.075000",
          "105256.565000",
          "105258.055000",
          "105259.545000",
          "105301.035000",
          "105302.525000",
          "105304.015000",
          "105305.505000",
          "105306.995000",
          "105308.485000",
          "105309.975000",
          "105311.465000",
          "105312.955000",
          "105314.445000",
          "105315.935000",
          "105317.425000",
          "105318.915000",
          "105320.405000",
          "105321.895000",
          "105323.385000",
          "105324.875000",
          "105326.365000",
          "105327.855000",
          "105329.345000",
          "105330.835000",
          "105332.325000",
          "105333.815000",
          "105335.305000",
          "105336.795000",
          "105338.285000",
          "105339.775000",
          "105341.265000",
          "105342.755000",
          "105344.245000",
          "105345.735000",
          "105347.225000",
          "105348.715000",
          "105350.205000",
          "105351.695000",
          "105353.185000",
          "105354.675000",
          "105356.165000",
          "105357.655000",
          "105359.145000",
          "105400.635000",
          "105402.125000",
          "105403.615000",
          "105405.105000",
          "105406.595000",
          "105408.085000",
          "105409.575000",
          "105411.065000",
          "105412.555000",
          "105414.045000",
          "105415.535000",
          "105417.025000",
          "105418.515000",
          "105420.005000",
          "105421.495000",
          "105422.985000",
          "105424.475000",
          "105425.965000",
          "105427.455000",
          "105428.945000",
          "105430.435000",
          "105431.925000",
          "105433.415000",
          "105434.905000",
          "105436.395000",
          "105437.885000",
          "105439.375000",
          "105440.865000",
          "105442.355000",
          "105443.845000",
          "105445.335000",
          "105446.825000",
          "105448.315000",
          "105449.805000",
          "105451.295000",
          "105452.785000",
          "105454.275000",
          "105455.765000",
          "105457.255000",
          "105458.745000",
          "105500.235000",
          "105501.725000",
          "105503.215000",
          "105504.705000",
          "105506.195000",
          "105507.685000",
          "105509.175000",
          "105510.665000",
          "105512.155000",
          "105513.645000",
          "105515.135000",
          "105516.625000",
          "105518.115000",
          "105519.605000",
          "105521.095000",
          "105522.585000",
          "105524.075000",
          "105525.565000",
          "105527.055000",
          "105528.545000",
          "105530.035000",
          "105531.525000",
          "105533.015000",
          "105534.505000",
          "105535.995000",
          "105537.485000",
          "105538.975000",
          "105540.465000",
          "105541.955000",
          "105543.445000",
          "105544.935000",
          "105546.425000",
          "105547.915000",
          "105549.405000",
          "105550.895000",
          "105552.385000",
          "105553.875000",
          "105555.365000",
          "105556.855000",
          "105558.345000",
          "105559.835000",
          "105601.325000",
          "105602.815000",
          "105604.305000",
          "105605.795000",
          "105607.285000",
          "105608.775000",
          "105610.265000",
          "105611.755000",
          "105613.245000",
          "105614.735000",
          "105616.225000",
          "105617.715000",
          "105619.205000",
          "105620.695000",
          "105622.185000",
          "105623.675000",
          "105625.165000",
          "105626.655000",
          "105628.145000",
          "105629.635000",
          "105631.125000",
          "105632.615000",
          "105634.105000",
          "105635.595000",
          "105637.085000",
          "105638.575000",
          "105640.065000",
          "105641.555000",
          "105643.045000",
          "105644.535000",
          "105646.025000",
          "105647.515000",
          "105649.005000",
          "105650.495000",
          "105651.985000",
          "105653.475000",
          "105654.965000",
          "105656.455000",
          "105657.945000",
          "105659.435000",
          "105700.925000",
          "105702.415000",
          "105703.905000",
          "105705.395000",
          "105706.885000",
          "105708.375000",
          "105709.865000",
          "105711.355000",
          "105712.845000",
          "105714.335000",
          "105715.825000",
          "105717.315000",
          "105718.805000",
          "105720.295000",
          "105721.785000",
          "105723.275000",
          "105724.765000",
          "105726.255000",
          "105727.745000",
          "105729.235000",
          "105730.725000",
          "105732.215000",
          "105733.705000",
          "105735.195000",
          "105736.685000",
          "105738.175000",
          "105739.665000",
          "105741.155000",
          "105742.645000",
          "105744.135000",
          "105745.625000",
          "105747.115000",
          "105748.605000",
          "105750.095000",
          "105751.585000",
          "105753.075000",
          "105754.565000",
          "105756.055000",
          "105757.545000",
          "105759.035000",
          "105800.525000",
          "105802.015000",
          "105803.505000",
          "105804.995000",
          "105806.485000",
          "105807.975000",
          "105809.465000",
          "105810.955000",
          "105812.445000",
          "105813.935000",
          "105815.425000",
          "105816.915000",
          "105818.405000",
          "105819.895000",
          "105821.385000",
          "105822.875000",
          "105824.365000",
          "105825.855000",
          "105827.345000",
          "105828.835000",
          "105830.325000",
          "105831.815000",
          "105833.305000",
          "105834.795000",
          "105836.285000",
          "105837.775000",
          "105839.265000",
          "105840.755000",
          "105842.245000",
          "105843.735000",
          "105845.225000",
          "105846.715000",
          "105848.205000",
          "105849.695000",
          "105851.185000",
          "105852.675000",
          "105854.165000",
          "105855.655000",
          "105857.145000",
          "105858.635000",
          "105900.125000",
          "105901.615000",
          "105903.105000",
          "105904.595000",
          "105906.085000",
          "105907.575000",
          "105909.065000",
          "105910.555000",
          "105912.045000",
          "105913.535000",
          "105915.025000",
          "105916.515000",
          "105918.005000",
          "105919.495000",
          "105920.985000",
          "105922.475000",
          "105923.965000",
          "105925.455000",
          "105926.945000",
          "105928.435000",
          "105929.925000",
          "105931.415000",
          "105932.905000",
          "105934.395000",
          "105935.885000",
          "105937.375000",
          "105938.865000",
          "105940.355000",
          "105941.845000",
          "105943.335000",
          "105944.825000",
          "105946.315000",
          "105947.805000",
          "105949.295000",
          "105950.785000",
          "105952.275000",
          "105953.765000",
          "105955.255000",
          "105956.745000",
          "105958.235000",
          "105959.725000",
          "110001.215000",
          "110002.705000",
          "110004.195000",
          "110005.685000",
          "110007.175000",
          "110008.665000",
          "110010.155000",
          "110011.645000",
          "110013.135000",
          "110014.625000",
          "110016.115000",
          "110017.605000",
          "110019.095000",
          "110020.585000",
          "110022.075000",
          "110023.565000",
          "110025.055000",
          "110026.545000",
          "110028.035000",
          "110029.525000",
          "110031.015000",
          "110032.505000",
          "110033.995000",
          "110035.485000",
          "110036.975000",
          "110038.465000",
          "110039.955000",
          "110041.445000",
          "110042.935000",
          "110044.425000",
          "110045.915000",
          "110047.405000",
          "110048.895000",
          "110050.385000",
          "110051.875000",
          "110053.365000",
          "110054.855000",
          "110056.345000"
        ],
        "ContentTime": [
          "105212.667000",
          "105212.671000",
          "105212.674000",
          "105212.677000",
          "105212.680000",
          "105212.689000",
          "105212.692000",
          "105212.704000",
          "105212.707000",
          "105212.710000",
          "105212.712000",
          "105212.715000",
          "105212.718000",
          "105212.721000",
          "105212.724000",
          "105212.727000",
          "105212.730000",
          "105212.733000",
          "105212.736000",
          "105212.739000",
          "105212.742000",
          "105212.744000",
          "105212.747000",
          "105212.750000",
          "105212.753000",
          "105232.630000",
          "105232.633000",
          "105232.636000",
          "105232.639000",
          "105232.642000",
          "105232.645000",
          "105232.648000",
          "105232.650000",
          "105232.653000",
          "105232.656000",
          "105232.659000",
          "105232.662000",
          "105232.665000",
          "105232.668000",
          "105232.671000",
          "105232.680000",
          "105232.683000",
          "105232.686000",
          "105232.689000",
          "105232.692000",
          "105252.629000",
          "105252.632000",
          "105252.635000",
          "105252.638000",
          "105252.641000",
          "105252.644000",
          "105252.647000",
          "105252.650000",
          "105252.652000",
          "105252.655000",
          "105252.658000",
          "105252.661000",
          "105252.664000",
          "105252.667000",
          "105252.670000",
          "105252.673000",
          "105252.675000",
          "105252.678000",
          "105252.681000",
          "105252.684000",
          "105312.629000",
          "105312.632000",
          "105312.635000",
          "105312.638000",
          "105312.641000",
          "105312.644000",
          "105312.647000",
          "105312.649000",
          "105312.652000",
          "105312.655000",
          "105312.658000",
          "105312.661000",
          "105312.664000",
          "105312.667000",
          "105312.670000",
          "105312.673000",
          "105312.675000",
          "105312.678000",
          "105312.681000",
          "105312.684000",
          "105332.629000",
          "105332.632000",
          "105332.635000",
          "105332.638000",
          "105332.641000",
          "105332.644000",
          "105332.647000",
          "105332.650000",
          "105332.653000",
          "105332.656000",
          "105332.659000",
          "105332.662000",
          "105332.665000",
          "105332.667000",
          "105332.670000",
          "105332.673000",
          "105332.676000",
          "105332.679000",
          "105332.682000",
          "105332.685000",
          "105412.629000",
          "105412.632000",
          "105412.635000",
          "105412.638000",
          "105412.641000",
          "105412.644000",
          "105412.647000",
          "105412.649000",
          "105412.652000",
          "105412.655000",
          "105412.669000",
          "105412.671000",
          "105412.674000",
          "105412.677000",
          "105412.690000",
          "105412.693000",
          "105412.696000",
          "105412.699000",
          "105412.702000",
          "105412.705000",
          "105412.708000",
          "105412.710000",
          "105412.713000",
          "105412.716000",
          "105412.719000",
          "105412.722000",
          "105412.725000",
          "105452.630000",
          "105452.633000",
          "105452.636000",
          "105452.639000",
          "105452.642000",
          "105452.645000",
          "105452.648000",
          "105452.651000",
          "105452.654000",
          "105452.657000",
          "105452.660000",
          "105452.663000",
          "105452.666000",
          "105452.669000",
          "105452.672000",
          "105452.674000",
          "105452.677000",
          "105452.680000",
          "105452.683000",
          "105452.686000",
          "105452.689000",
          "105452.692000",
          "105452.695000",
          "105452.698000",
          "105452.701000",
          "105452.704000",
          "105452.707000",
          "105532.629000",
          "105532.632000",
          "105532.635000",
          "105532.638000",
          "105532.641000",
          "105532.644000",
          "105532.647000",
          "105532.650000",
          "105532.653000",
          "105532.656000",
          "105532.659000",
          "105532.662000",
          "105532.665000",
          "105532.668000",
          "105532.671000",
          "105532.674000",
          "105532.677000",
          "105532.680000",
          "105532.683000",
          "105532.685000",
          "105532.688000",
          "105532.691000",
          "105532.694000",
          "105532.712000",
          "105532.715000",
          "105532.718000",
          "105532.721000",
          "105612.630000",
          "105612.634000",
          "105612.637000",
          "105612.640000",
          "105612.643000",
          "105612.646000",
          "105612.649000",
          "105612.652000",
          "105612.655000",
          "105612.658000",
          "105612.661000",
          "105612.664000",
          "105612.667000",
          "105612.670000",
          "105612.673000",
          "105612.676000",
          "105612.678000",
          "105612.681000",
          "105612.684000",
          "105612.687000",
          "105612.690000",
          "105612.693000",
          "105612.699000",
          "105612.702000",
          "105612.704000",
          "105612.707000",
          "105632.629000",
          "105632.632000",
          "105632.635000",
          "105632.638000",
          "105632.641000",
          "105632.644000",
          "105632.647000",
          "105632.650000",
          "105632.653000",
          "105632.656000",
          "105632.659000",
          "105632.661000",
          "105632.664000",
