{
  "aor": 0.00033859838274932617,
  "aqi": 0.005504035929919137,
  "bids_meta": {
    "AcquisitionMatrixPE": 104,
    "AcquisitionNumber": 1,
    "AcquisitionTime": "16:36:3.952500",
    "BandwidthPerPixelPhaseEncode": 17.17,
    "BaseResolution": 104,
    "BodyPartExamined": "BRAIN",
    "CogAtlasID": "trm_4c898da401420",
    "ConsistencyInfo": "N4_VE11C_LATEST_20160120",
    "ConversionSoftware": "dcm2niix",
    "ConversionSoftwareVersion": "v1.0.20171215 (OpenJPEG build) GCC7.3.0",
    "DerivedVendorReportedEchoSpacing": 0.000560011,
    "DeviceSerialNumber": "167006",
    "DwellTime": 2.1e-06,
    "EchoTime": 0.037,
    "EchoTrainLength": 104,
    "EffectiveEchoSpacing": 0.000560011,
    "FlipAngle": 52,
    "ImageComments": "Unaliased_MB4_PE3_LB",
    "ImageOrientationPatientDICOM": [
      0.998508,
      0.0473938,
      -0.027117,
      -0.0546017,
      0.863005,
      -0.502236
    ],
    "ImageType": [
      "ORIGINAL",
      "PRIMARY",
      "M",
      "MB",
      "ND",
      "MOSAIC"
    ],
    "InPlanePhaseEncodingDirectionDICOM": "COL",
    "InstitutionAddress": "Chemin_Queen-Mary_4565_Montreal_District_CA_H3W_1W5",
    "InstitutionName": "IUGM",
    "InstitutionalDepartmentName": "Department",
    "MRAcquisitionType": "2D",
    "MagneticFieldStrength": 3,
    "Manufacturer": "Siemens",
    "ManufacturersModelName": "Prisma_fit",
    "Modality": "MR",
    "MultibandAccelerationFactor": 4,
    "PartialFourier": 1,
    "PatientPosition": "HFS",
    "PercentPhaseFOV": 100,
    "PhaseEncodingDirection": "j-",
    "PhaseEncodingSteps": 104,
    "PhaseResolution": 1,
    "PixelBandwidth": 2290,
    "ProcedureStepDescription": "video5_generic",
    "ProtocolName": "func_task-figures12",
    "PulseSequenceDetails": "%CustomerSeq%_cmrr_mbep2d_bold",
    "ReceiveCoilActiveElements": "HC1-7;NC1,2",
    "ReceiveCoilName": "HeadNeck_64",
    "ReconMatrixPE": 104,
    "RepetitionTime": 1.49,
    "SAR": 0.0369356,
    "ScanOptions": "FS",
    "ScanningSequence": "EP",
    "SequenceName": "epfid2d1_104",
    "SequenceVariant": "SK_SS",
    "SeriesDescription": "func_task-figures12",
    "SeriesNumber": 11,
    "ShimSetting": [
      620,
      -7184,
      -8904,
      360,
      -5,
      -251,
      40,
      -24
    ],
    "SliceThickness": 2,
    "SliceTiming": [
      0,
      0.785,
      0.0975,
      0.8825,
      0.1975,
      0.98,
      0.295,
      1.0775,
      0.3925,
      1.1775,
      0.49,
      1.275,
      0.5875,
      1.3725,
      0.6875,
      0,
      0.785,
      0.0975,
      0.8825,
      0.1975,
      0.98,
      0.295,
      1.0775,
      0.3925,
      1.1775,
      0.49,
      1.275,
      0.5875,
      1.3725,
      0.6875,
      0,
      0.785,
      0.0975,
      0.8825,
      0.1975,
      0.98,
      0.295,
      1.0775,
      0.3925,
      1.1775,
      0.49,
      1.275,
      0.5875,
      1.3725,
      0.6875,
      0,
      0.785,
      0.0975,
      0.8825,
      0.1975,
      0.98,
      0.295,
      1.0775,
      0.3925,
      1.1775,
      0.49,
      1.275,
      0.5875,
      1.3725,
      0.6875
    ],
    "SoftwareVersions": "syngo_MR_E11",
    "SpacingBetweenSlices": 2,
    "StationName": "MRC35049",
    "TaskName": "figures12",
    "TotalReadoutTime": 0.0576811,
    "TxRefAmp": 251.025,
    "dataset": "<unset>",
    "dcmmeta_affine": [
      [
        -1.9970163106918335,
        -0.10920330137014389,
        0.0008014976629056036,
        111.15269470214844
      ],
      [
        -0.09478755295276642,
        1.7260104417800903,
        -1.0059340000152588,
        -51.97930145263672
      ],
      [
        -0.05423395708203316,
        1.0044711828231812,
        1.7286111116409302,
        -113.92500305175781
      ],
      [
        0.0,
        0.0,
        0.0,
        1.0
      ]
    ],
    "dcmmeta_reorient_transform": [
      [
        0.0,
        -1.0,
        0.0,
        103.0
      ],
      [
        1.0,
        0.0,
        0.0,
        0.0
      ],
      [
        0.0,
        0.0,
        1.0,
        0.0
      ],
      [
        0.0,
        0.0,
        0.0,
        1.0
      ]
    ],
    "dcmmeta_shape": [
      104,
      104,
      60,
      373
    ],
    "dcmmeta_slice_dim": 2,
    "dcmmeta_version": 0.6,
    "global": {
      "const": {
        "AcquisitionMatrix": [
          104,
          0,
          0,
          104
        ],
        "AngioFlag": "N",
        "BitsAllocated": 16,
        "BitsStored": 16,
        "BodyPartExamined": "BRAIN",
        "Columns": 832,
        "EchoNumbers": 1,
        "EchoTime": 37.0,
        "EchoTrainLength": 104,
        "FlipAngle": 52.0,
        "HighBit": 15,
        "ImageOrientationPatient": [
          0.99850813683377,
          0.04739377757091,
          -0.027116978525,
          -0.0546016490333,
          0.86300523797364,
          -0.502235621151
        ],
        "ImagePositionPatient": [
          -787.06867877557,
          -788.57025943648,
          374.90422731026
        ],
        "ImageType": [
          "ORIGINAL",
          "PRIMARY",
          "M",
          "MB",
          "ND",
          "MOSAIC"
        ],
        "ImagedNucleus": "1H",
        "ImagingFrequency": 123.259278,
        "InPlanePhaseEncodingDirection": "COL",
        "MRAcquisitionType": "2D",
        "MagneticFieldStrength": 3.0,
        "Manufacturer": "SIEMENS",
        "ManufacturerModelName": "Prisma_fit",
        "Modality": "MR",
        "NumberOfAverages": 1.0,
        "NumberOfPhaseEncodingSteps": 104,
        "PercentPhaseFieldOfView": 100.0,
        "PercentSampling": 100.0,
        "PerformedProcedureStepStartTime": "160826.204000",
        "PhotometricInterpretation": "MONOCHROME2",
        "PixelBandwidth": 2290.0,
        "PixelRepresentation": 0,
        "PixelSpacing": [
          2.0,
          2.0
        ],
        "ProtocolName": "func_task-figures12",
        "RepetitionTime": 1490.0,
        "Rows": 832,
        "SAR": 0.03693559191795,
        "SamplesPerPixel": 1,
        "ScanOptions": "FS",
        "ScanningSequence": "EP",
        "SequenceName": "epfid2d1_104",
        "SequenceVariant": [
          "SK",
          "SS"
        ],
        "SeriesDescription": "func_task-figures12",
        "SeriesNumber": 11,
        "SeriesTime": "163728.771000",
        "SliceLocation": -72.27759272564,
        "SliceThickness": 2.0,
        "SmallestImagePixelValue": 0,
        "SoftwareVersions": "syngo MR E11",
        "SpacingBetweenSlices": 2.0000000438801,
        "SpecificCharacterSet": "ISO_IR 100",
        "StudyID": "1",
        "StudyTime": "160826.067000",
        "TransmitCoilName": "Body",
        "VariableFlipAngleFlag": "N",
        "WindowCenterWidthExplanation": "Algo1",
        "dBdt": 0.0
      },
      "slices": {}
    },
    "modality": "bold",
    "run_id": 2,
    "session_id": "012",
    "subject_id": "02",
    "task_id": "figures12",
    "time": {
      "samples": {
        "AcquisitionNumber": [
          1,
          2,
          3,
          4,
          5,
          6,
          7,
          8,
          9,
          10,
          11,
          12,
          13,
          14,
          15,
          16,
          17,
          18,
          19,
          20,
          21,
          22,
          23,
          24,
          25,
          26,
          27,
          28,
          29,
          30,
          31,
          32,
          33,
          34,
          35,
          36,
          37,
          38,
          39,
          40,
          41,
          42,
          43,
          44,
          45,
          46,
          47,
          48,
          49,
          50,
          51,
          52,
          53,
          54,
          55,
          56,
          57,
          58,
          59,
          60,
          61,
          62,
          63,
          64,
          65,
          66,
          67,
          68,
          69,
          70,
          71,
          72,
          73,
          74,
          75,
          76,
          77,
          78,
          79,
          80,
          81,
          82,
          83,
          84,
          85,
          86,
          87,
          88,
          89,
          90,
          91,
          92,
          93,
          94,
          95,
          96,
          97,
          98,
          99,
          100,
          101,
          102,
          103,
          104,
          105,
          106,
          107,
          108,
          109,
          110,
          111,
          112,
          113,
          114,
          115,
          116,
          117,
          118,
          119,
          120,
          121,
          122,
          123,
          124,
          125,
          126,
          127,
          128,
          129,
          130,
          131,
          132,
          133,
          134,
          135,
          136,
          137,
          138,
          139,
          140,
          141,
          142,
          143,
          144,
          145,
          146,
          147,
          148,
          149,
          150,
          151,
          152,
          153,
          154,
          155,
          156,
          157,
          158,
          159,
          160,
          161,
          162,
          163,
          164,
          165,
          166,
          167,
          168,
          169,
          170,
          171,
          172,
          173,
          174,
          175,
          176,
          177,
          178,
          179,
          180,
          181,
          182,
          183,
          184,
          185,
          186,
          187,
          188,
          189,
          190,
          191,
          192,
          193,
          194,
          195,
          196,
          197,
          198,
          199,
          200,
          201,
          202,
          203,
          204,
          205,
          206,
          207,
          208,
          209,
          210,
          211,
          212,
          213,
          214,
          215,
          216,
          217,
          218,
          219,
          220,
          221,
          222,
          223,
          224,
          225,
          226,
          227,
          228,
          229,
          230,
          231,
          232,
          233,
          234,
          235,
          236,
          237,
          238,
          239,
          240,
          241,
          242,
          243,
          244,
          245,
          246,
          247,
          248,
          249,
          250,
          251,
          252,
          253,
          254,
          255,
          256,
          257,
          258,
          259,
          260,
          261,
          262,
          263,
          264,
          265,
          266,
          267,
          268,
          269,
          270,
          271,
          272,
          273,
          274,
          275,
          276,
          277,
          278,
          279,
          280,
          281,
          282,
          283,
          284,
          285,
          286,
          287,
          288,
          289,
          290,
          291,
          292,
          293,
          294,
          295,
          296,
          297,
          298,
          299,
          300,
          301,
          302,
          303,
          304,
          305,
          306,
          307,
          308,
          309,
          310,
          311,
          312,
          313,
          314,
          315,
          316,
          317,
          318,
          319,
          320,
          321,
          322,
          323,
          324,
          325,
          326,
          327,
          328,
          329,
          330,
          331,
          332,
          333,
          334,
          335,
          336,
          337,
          338,
          339,
          340,
          341,
          342,
          343,
          344,
          345,
          346,
          347,
          348,
          349,
          350,
          351,
          352,
          353,
          354,
          355,
          356,
          357,
          358,
          359,
          360,
          361,
          362,
          363,
          364,
          365,
          366,
          367,
          368,
          369,
          370,
          371,
          372,
          373
        ],
        "AcquisitionTime": [
          "163603.952500",
          "163605.442500",
          "163606.932500",
          "163608.422500",
          "163609.912500",
          "163611.402500",
          "163612.892500",
          "163614.382500",
          "163615.872500",
          "163617.362500",
          "163618.852500",
          "163620.342500",
          "163621.832500",
          "163623.322500",
          "163624.812500",
          "163626.302500",
          "163627.792500",
          "163629.282500",
          "163630.772500",
          "163632.262500",
          "163633.752500",
          "163635.242500",
          "163636.732500",
          "163638.222500",
          "163639.712500",
          "163641.202500",
          "163642.692500",
          "163644.182500",
          "163645.672500",
          "163647.162500",
          "163648.652500",
          "163650.142500",
          "163651.632500",
          "163653.122500",
          "163654.612500",
          "163656.102500",
          "163657.592500",
          "163659.082500",
          "163700.572500",
          "163702.062500",
          "163703.552500",
          "163705.042500",
          "163706.532500",
          "163708.022500",
          "163709.512500",
          "163711.002500",
          "163712.492500",
          "163713.982500",
          "163715.472500",
          "163716.962500",
          "163718.452500",
          "163719.942500",
          "163721.432500",
          "163722.922500",
          "163724.412500",
          "163725.902500",
          "163727.392500",
          "163728.882500",
          "163730.372500",
          "163731.862500",
          "163733.352500",
          "163734.842500",
          "163736.332500",
          "163737.822500",
          "163739.312500",
          "163740.802500",
          "163742.292500",
          "163743.782500",
          "163745.272500",
          "163746.762500",
          "163748.252500",
          "163749.742500",
          "163751.232500",
          "163752.722500",
          "163754.212500",
          "163755.702500",
          "163757.192500",
          "163758.682500",
          "163800.172500",
          "163801.662500",
          "163803.152500",
          "163804.642500",
          "163806.132500",
          "163807.622500",
          "163809.112500",
          "163810.602500",
          "163812.092500",
          "163813.582500",
          "163815.072500",
          "163816.562500",
          "163818.052500",
          "163819.542500",
          "163821.032500",
          "163822.522500",
          "163824.012500",
          "163825.502500",
          "163826.992500",
          "163828.482500",
          "163829.972500",
          "163831.462500",
          "163832.952500",
          "163834.442500",
          "163835.932500",
          "163837.422500",
          "163838.912500",
          "163840.402500",
          "163841.892500",
          "163843.382500",
          "163844.872500",
          "163846.362500",
          "163847.852500",
          "163849.342500",
          "163850.832500",
          "163852.322500",
          "163853.812500",
          "163855.302500",
          "163856.792500",
          "163858.282500",
          "163859.772500",
          "163901.262500",
          "163902.752500",
          "163904.242500",
          "163905.732500",
          "163907.222500",
          "163908.712500",
          "163910.202500",
          "163911.692500",
          "163913.182500",
          "163914.672500",
          "163916.162500",
          "163917.652500",
          "163919.142500",
          "163920.632500",
          "163922.122500",
          "163923.612500",
          "163925.102500",
          "163926.592500",
          "163928.082500",
          "163929.572500",
          "163931.062500",
          "163932.552500",
          "163934.042500",
          "163935.532500",
          "163937.022500",
          "163938.512500",
          "163940.002500",
          "163941.492500",
          "163942.982500",
          "163944.472500",
          "163945.962500",
          "163947.452500",
          "163948.942500",
          "163950.432500",
          "163951.922500",
          "163953.412500",
          "163954.902500",
          "163956.392500",
          "163957.882500",
          "163959.372500",
          "164000.862500",
          "164002.352500",
          "164003.842500",
          "164005.332500",
          "164006.822500",
          "164008.312500",
          "164009.802500",
          "164011.292500",
          "164012.782500",
          "164014.272500",
          "164015.762500",
          "164017.252500",
          "164018.742500",
          "164020.232500",
          "164021.722500",
          "164023.212500",
          "164024.702500",
          "164026.192500",
          "164027.682500",
          "164029.172500",
          "164030.662500",
          "164032.152500",
          "164033.642500",
          "164035.132500",
          "164036.622500",
          "164038.112500",
          "164039.602500",
          "164041.092500",
          "164042.582500",
          "164044.072500",
          "164045.562500",
          "164047.052500",
          "164048.542500",
          "164050.032500",
          "164051.522500",
          "164053.012500",
          "164054.502500",
          "164055.992500",
          "164057.482500",
          "164058.972500",
          "164100.462500",
          "164101.952500",
          "164103.442500",
          "164104.932500",
          "164106.422500",
          "164107.912500",
          "164109.402500",
          "164110.892500",
          "164112.382500",
          "164113.872500",
          "164115.362500",
          "164116.852500",
          "164118.342500",
          "164119.832500",
          "164121.322500",
          "164122.812500",
          "164124.302500",
          "164125.792500",
          "164127.282500",
          "164128.772500",
          "164130.262500",
          "164131.752500",
          "164133.242500",
          "164134.732500",
          "164136.222500",
          "164137.712500",
          "164139.202500",
          "164140.692500",
          "164142.182500",
          "164143.672500",
          "164145.162500",
          "164146.652500",
          "164148.142500",
          "164149.632500",
          "164151.122500",
          "164152.612500",
          "164154.102500",
          "164155.592500",
          "164157.082500",
          "164158.572500",
          "164200.062500",
          "164201.552500",
          "164203.042500",
          "164204.532500",
          "164206.022500",
          "164207.512500",
          "164209.002500",
          "164210.492500",
          "164211.982500",
          "164213.472500",
          "164214.962500",
          "164216.452500",
          "164217.942500",
          "164219.432500",
          "164220.922500",
          "164222.412500",
          "164223.902500",
          "164225.392500",
          "164226.882500",
          "164228.372500",
          "164229.862500",
          "164231.352500",
          "164232.842500",
          "164234.332500",
          "164235.822500",
          "164237.312500",
          "164238.802500",
          "164240.292500",
          "164241.782500",
          "164243.272500",
          "164244.762500",
          "164246.252500",
          "164247.742500",
          "164249.232500",
          "164250.722500",
          "164252.212500",
          "164253.702500",
          "164255.192500",
          "164256.682500",
          "164258.172500",
          "164259.662500",
          "164301.152500",
          "164302.642500",
          "164304.132500",
          "164305.622500",
          "164307.112500",
          "164308.602500",
          "164310.092500",
          "164311.582500",
          "164313.072500",
          "164314.562500",
          "164316.052500",
          "164317.542500",
          "164319.032500",
          "164320.522500",
          "164322.012500",
          "164323.502500",
          "164324.992500",
          "164326.482500",
          "164327.972500",
          "164329.462500",
          "164330.952500",
          "164332.442500",
          "164333.932500",
          "164335.422500",
          "164336.912500",
          "164338.402500",
          "164339.892500",
          "164341.382500",
          "164342.872500",
          "164344.362500",
          "164345.852500",
          "164347.342500",
          "164348.832500",
          "164350.322500",
          "164351.812500",
          "164353.302500",
          "164354.792500",
          "164356.282500",
          "164357.772500",
          "164359.262500",
          "164400.752500",
          "164402.242500",
          "164403.732500",
          "164405.222500",
          "164406.712500",
          "164408.202500",
          "164409.692500",
          "164411.182500",
          "164412.672500",
          "164414.162500",
          "164415.652500",
          "164417.142500",
          "164418.632500",
          "164420.122500",
          "164421.612500",
          "164423.102500",
          "164424.592500",
          "164426.082500",
          "164427.572500",
          "164429.062500",
          "164430.552500",
          "164432.042500",
          "164433.532500",
          "164435.022500",
          "164436.512500",
          "164438.002500",
          "164439.492500",
          "164440.982500",
          "164442.472500",
          "164443.962500",
          "164445.452500",
          "164446.942500",
          "164448.432500",
          "164449.922500",
          "164451.412500",
          "164452.902500",
          "164454.392500",
          "164455.882500",
          "164457.372500",
          "164458.862500",
          "164500.352500",
          "164501.842500",
          "164503.332500",
          "164504.822500",
          "164506.312500",
          "164507.802500",
          "164509.292500",
          "164510.782500",
          "164512.272500",
          "164513.762500",
          "164515.252500",
          "164516.742500",
          "164518.232500"
        ],
        "ContentTime": [
          "163728.774000",
          "163728.813000",
          "163728.823000",
          "163728.826000",
          "163728.828000",
          "163728.831000",
          "163728.834000",
          "163728.837000",
          "163728.840000",
          "163728.843000",
          "163728.845000",
          "163728.848000",
          "163728.851000",
          "163728.854000",
          "163728.857000",
          "163728.860000",
          "163728.863000",
          "163728.865000",
          "163728.874000",
          "163728.877000",
          "163728.880000",
          "163728.883000",
          "163728.885000",
          "163728.888000",
          "163728.891000",
          "163728.907000",
          "163728.909000",
          "163728.915000",
          "163728.918000",
          "163728.921000",
          "163748.735000",
          "163748.738000",
          "163748.749000",
          "163748.752000",
          "163748.755000",
          "163748.758000",
          "163748.760000",
          "163748.763000",
          "163748.766000",
          "163748.769000",
          "163748.772000",
          "163748.775000",
          "163748.778000",
          "163748.780000",
          "163748.783000",
          "163748.786000",
          "163748.789000",
          "163748.792000",
          "163748.794000",
          "163748.797000",
          "163808.735000",
          "163808.738000",
          "163808.740000",
          "163808.743000",
          "163808.746000",
          "163808.749000",
          "163808.752000",
          "163808.755000",
          "163808.758000",
          "163808.760000",
          "163808.763000",
          "163808.766000",
          "163808.769000",
          "163808.779000",
          "163808.782000",
          "163808.785000",
          "163808.788000",
          "163808.791000",
          "163808.793000",
          "163808.796000",
          "163828.735000",
          "163828.738000",
          "163828.741000",
          "163828.743000",
          "163828.746000",
          "163828.749000",
          "163828.752000",
          "163828.755000",
          "163828.758000",
          "163828.761000",
          "163828.764000",
          "163828.767000",
          "163828.770000",
          "163828.772000",
          "163828.775000",
          "163828.784000",
          "163828.787000",
          "163828.790000",
          "163828.792000",
          "163828.795000",
          "163848.735000",
          "163848.738000",
          "163848.740000",
          "163848.743000",
          "163848.746000",
          "163848.749000",
          "163848.752000",
          "163848.755000",
          "163848.758000",
          "163848.760000",
          "163848.763000",
          "163848.766000",
          "163848.770000",
          "163848.773000",
          "163848.775000",
          "163848.778000",
          "163848.781000",
          "163848.784000",
          "163848.787000",
          "163848.789000",
          "163908.735000",
          "163908.738000",
          "163908.741000",
          "163908.744000",
          "163908.746000",
          "163908.749000",
          "163908.752000",
          "163908.755000",
          "163908.758000",
          "163908.761000",
          "163908.764000",
          "163908.767000",
          "163908.770000",
          "163948.736000",
          "163948.739000",
          "163948.742000",
          "163948.745000",
          "163948.747000",
          "163948.750000",
          "163948.753000",
          "163948.756000",
          "163948.759000",
          "163948.762000",
          "163948.764000",
          "163948.767000",
          "163948.801000",
          "163948.804000",
          "163948.833000",
          "163948.836000",
          "163948.839000",
          "163948.842000",
          "163948.845000",
          "163948.848000",
          "163948.850000",
          "163948.853000",
          "163948.856000",
          "163948.859000",
          "163948.862000",
          "163948.864000",
          "163948.867000",
          "164028.735000",
          "164028.738000",
          "164028.741000",
          "164028.746000",
          "164028.749000",
          "164028.752000",
          "164028.755000",
          "164028.757000",
          "164028.760000",
          "164028.763000",
          "164028.766000",
          "164028.769000",
          "164028.772000",
          "164028.775000",
          "164028.778000",
          "164028.780000",
          "164028.783000",
          "164028.786000",
          "164028.789000",
          "164028.792000",
          "164028.795000",
          "164028.798000",
          "164028.801000",
          "164028.803000",
          "164028.806000",
          "164028.809000",
          "164028.812000",
          "164108.735000",
          "164108.738000",
          "164108.741000",
          "164108.744000",
          "164108.747000",
          "164108.750000",
          "164108.753000",
          "164108.757000",
          "164108.760000",
          "164108.763000",
          "164108.766000",
          "164108.769000",
          "164108.772000",
          "164108.775000",
          "164108.778000",
          "164108.781000",
          "164108.784000",
          "164108.787000",
          "164108.790000",
          "164108.793000",
          "164108.796000",
          "164108.799000",
          "164108.801000",
          "164108.804000",
          "164108.807000",
          "164108.810000",
          "164148.736000",
          "164148.739000",
          "164148.742000",
          "164148.745000",
          "164148.747000",
          "164148.750000",
          "164148.753000",
          "164148.756000",
          "164148.759000",
          "164148.762000",
          "164148.764000",
          "164148.767000",
          "164148.771000",
          "164148.773000",
          "164148.776000",
          "164148.783000",
          "164148.786000",
          "164148.788000",
          "164148.791000",
          "164148.794000",
          "164148.797000",
          "164148.800000",
          "164148.803000",
          "164148.806000",
          "164148.809000",
          "164148.811000",
          "164148.814000",
          "164228.735000",
          "164228.738000",
          "164228.741000",
          "164228.744000",
          "164228.758000",
          "164228.761000",
          "164228.764000",
          "164228.767000",
          "164228.770000",
          "164228.773000",
          "164228.776000",
          "164228.779000",
          "164228.782000",
          "164228.785000",
          "164228.788000",
          "164228.790000",
          "164228.793000",
          "164228.796000",
          "164228.799000",
          "164228.802000",
          "164228.805000",
          "164228.808000",
          "164228.811000",
          "164228.813000",
          "164228.816000",
          "164228.819000",
          "164228.822000",
          "164308.735000",
          "164308.738000",
          "164308.741000",
          "164308.744000",
          "164308.747000",
          "164308.750000",
          "164308.752000",
          "164308.755000",
          "164308.758000",
          "164308.761000",
          "164308.764000",
          "164308.767000",
          "164308.770000",
          "164308.773000",
          "164308.775000",
          "164308.778000",
