{
  "aor": 0.00032850855745721275,
  "aqi": 0.0054253671393643035,
  "bids_meta": {
    "AcquisitionMatrixPE": 104,
    "AcquisitionNumber": 1,
    "AcquisitionTime": "16:25:29.505000",
    "BandwidthPerPixelPhaseEncode": 17.17,
    "BaseResolution": 104,
    "BodyPartExamined": "BRAIN",
    "CogAtlasID": "trm_4c898da401420",
    "ConsistencyInfo": "N4_VE11C_LATEST_20160120",
    "ConversionSoftware": "dcm2niix",
    "ConversionSoftwareVersion": "v1.0.20171215 (OpenJPEG build) GCC7.3.0",
    "DerivedVendorReportedEchoSpacing": 0.000560011,
    "DeviceSerialNumber": "167006",
    "DwellTime": 2.1e-06,
    "EchoTime": 0.037,
    "EchoTrainLength": 104,
    "EffectiveEchoSpacing": 0.000560011,
    "FlipAngle": 52,
    "ImageComments": "Unaliased_MB4_PE3_LB",
    "ImageOrientationPatientDICOM": [
      0.998508,
      0.0473938,
      -0.027117,
      -0.0546017,
      0.863005,
      -0.502236
    ],
    "ImageType": [
      "ORIGINAL",
      "PRIMARY",
      "M",
      "MB",
      "ND",
      "MOSAIC"
    ],
    "InPlanePhaseEncodingDirectionDICOM": "COL",
    "InstitutionAddress": "Chemin_Queen-Mary_4565_Montreal_District_CA_H3W_1W5",
    "InstitutionName": "IUGM",
    "InstitutionalDepartmentName": "Department",
    "MRAcquisitionType": "2D",
    "MagneticFieldStrength": 3,
    "Manufacturer": "Siemens",
    "ManufacturersModelName": "Prisma_fit",
    "Modality": "MR",
    "MultibandAccelerationFactor": 4,
    "PartialFourier": 1,
    "PatientPosition": "HFS",
    "PercentPhaseFOV": 100,
    "PhaseEncodingDirection": "j-",
    "PhaseEncodingSteps": 104,
    "PhaseResolution": 1,
    "PixelBandwidth": 2290,
    "ProcedureStepDescription": "video5_generic",
    "ProtocolName": "func_task-figures11",
    "PulseSequenceDetails": "%CustomerSeq%_cmrr_mbep2d_bold",
    "ReceiveCoilActiveElements": "HC1-7;NC1,2",
    "ReceiveCoilName": "HeadNeck_64",
    "ReconMatrixPE": 104,
    "RepetitionTime": 1.49,
    "SAR": 0.0369532,
    "ScanOptions": "FS",
    "ScanningSequence": "EP",
    "SequenceName": "epfid2d1_104",
    "SequenceVariant": "SK_SS",
    "SeriesDescription": "func_task-figures11",
    "SeriesNumber": 9,
    "ShimSetting": [
      620,
      -7184,
      -8904,
      360,
      -5,
      -251,
      40,
      -24
    ],
    "SliceThickness": 2,
    "SliceTiming": [
      0,
      0.785,
      0.0975,
      0.8825,
      0.195,
      0.98,
      0.295,
      1.0775,
      0.3925,
      1.175,
      0.49,
      1.275,
      0.5875,
      1.3725,
      0.685,
      0,
      0.785,
      0.0975,
      0.8825,
      0.195,
      0.98,
      0.295,
      1.0775,
      0.3925,
      1.175,
      0.49,
      1.275,
      0.5875,
      1.3725,
      0.685,
      0,
      0.785,
      0.0975,
      0.8825,
      0.195,
      0.98,
      0.295,
      1.0775,
      0.3925,
      1.175,
      0.49,
      1.275,
      0.5875,
      1.3725,
      0.685,
      0,
      0.785,
      0.0975,
      0.8825,
      0.195,
      0.98,
      0.295,
      1.0775,
      0.3925,
      1.175,
      0.49,
      1.275,
      0.5875,
      1.3725,
      0.685
    ],
    "SoftwareVersions": "syngo_MR_E11",
    "SpacingBetweenSlices": 2,
    "StationName": "MRC35049",
    "TaskName": "figures11",
    "TotalReadoutTime": 0.0576811,
    "TxRefAmp": 251.025,
    "dataset": "<unset>",
    "dcmmeta_affine": [
      [
        -1.9970163106918335,
        -0.10920330137014389,
        0.0008014976629056036,
        111.15269470214844
      ],
      [
        -0.09478755295276642,
        1.7260104417800903,
        -1.0059340000152588,
        -51.97930145263672
      ],
      [
        -0.05423395708203316,
        1.0044711828231812,
        1.7286111116409302,
        -113.92500305175781
      ],
      [
        0.0,
        0.0,
        0.0,
        1.0
      ]
    ],
    "dcmmeta_reorient_transform": [
      [
        0.0,
        -1.0,
        0.0,
        103.0
      ],
      [
        1.0,
        0.0,
        0.0,
        0.0
      ],
      [
        0.0,
        0.0,
        1.0,
        0.0
      ],
      [
        0.0,
        0.0,
        0.0,
        1.0
      ]
    ],
    "dcmmeta_shape": [
      104,
      104,
      60,
      410
    ],
    "dcmmeta_slice_dim": 2,
    "dcmmeta_version": 0.6,
    "global": {
      "const": {
        "AcquisitionMatrix": [
          104,
          0,
          0,
          104
        ],
        "AngioFlag": "N",
        "BitsAllocated": 16,
        "BitsStored": 16,
        "BodyPartExamined": "BRAIN",
        "Columns": 832,
        "EchoNumbers": 1,
        "EchoTime": 37.0,
        "EchoTrainLength": 104,
        "FlipAngle": 52.0,
        "HighBit": 15,
        "ImageOrientationPatient": [
          0.99850813683377,
          0.04739377757091,
          -0.027116978525,
          -0.0546016490333,
          0.86300523797364,
          -0.502235621151
        ],
        "ImagePositionPatient": [
          -787.06867877557,
          -788.57025943648,
          374.90422731026
        ],
        "ImageType": [
          "ORIGINAL",
          "PRIMARY",
          "M",
          "MB",
          "ND",
          "MOSAIC"
        ],
        "ImagedNucleus": "1H",
        "ImagingFrequency": 123.259272,
        "InPlanePhaseEncodingDirection": "COL",
        "MRAcquisitionType": "2D",
        "MagneticFieldStrength": 3.0,
        "Manufacturer": "SIEMENS",
        "ManufacturerModelName": "Prisma_fit",
        "Modality": "MR",
        "NumberOfAverages": 1.0,
        "NumberOfPhaseEncodingSteps": 104,
        "PercentPhaseFieldOfView": 100.0,
        "PercentSampling": 100.0,
        "PerformedProcedureStepStartTime": "160826.204000",
        "PhotometricInterpretation": "MONOCHROME2",
        "PixelBandwidth": 2290.0,
        "PixelRepresentation": 0,
        "PixelSpacing": [
          2.0,
          2.0
        ],
        "ProtocolName": "func_task-figures11",
        "RepetitionTime": 1490.0,
        "Rows": 832,
        "SAR": 0.03695316192218,
        "SamplesPerPixel": 1,
        "ScanOptions": "FS",
        "ScanningSequence": "EP",
        "SequenceName": "epfid2d1_104",
        "SequenceVariant": [
          "SK",
          "SS"
        ],
        "SeriesDescription": "func_task-figures11",
        "SeriesNumber": 9,
        "SeriesTime": "162654.164000",
        "SliceLocation": -72.27759272564,
        "SliceThickness": 2.0,
        "SmallestImagePixelValue": 0,
        "SoftwareVersions": "syngo MR E11",
        "SpacingBetweenSlices": 2.0000000438801,
        "SpecificCharacterSet": "ISO_IR 100",
        "StudyID": "1",
        "StudyTime": "160826.067000",
        "TransmitCoilName": "Body",
        "VariableFlipAngleFlag": "N",
        "WindowCenterWidthExplanation": "Algo1",
        "dBdt": 0.0
      },
      "slices": {}
    },
    "modality": "bold",
    "run_id": 2,
    "session_id": "012",
    "subject_id": "02",
    "task_id": "figures11",
    "time": {
      "samples": {
        "AcquisitionNumber": [
          1,
          2,
          3,
          4,
          5,
          6,
          7,
          8,
          9,
          10,
          11,
          12,
          13,
          14,
          15,
          16,
          17,
          18,
          19,
          20,
          21,
          22,
          23,
          24,
          25,
          26,
          27,
          28,
          29,
          30,
          31,
          32,
          33,
          34,
          35,
          36,
          37,
          38,
          39,
          40,
          41,
          42,
          43,
          44,
          45,
          46,
          47,
          48,
          49,
          50,
          51,
          52,
          53,
          54,
          55,
          56,
          57,
          58,
          59,
          60,
          61,
          62,
          63,
          64,
          65,
          66,
          67,
          68,
          69,
          70,
          71,
          72,
          73,
          74,
          75,
          76,
          77,
          78,
          79,
          80,
          81,
          82,
          83,
          84,
          85,
          86,
          87,
          88,
          89,
          90,
          91,
          92,
          93,
          94,
          95,
          96,
          97,
          98,
          99,
          100,
          101,
          102,
          103,
          104,
          105,
          106,
          107,
          108,
          109,
          110,
          111,
          112,
          113,
          114,
          115,
          116,
          117,
          118,
          119,
          120,
          121,
          122,
          123,
          124,
          125,
          126,
          127,
          128,
          129,
          130,
          131,
          132,
          133,
          134,
          135,
          136,
          137,
          138,
          139,
          140,
          141,
          142,
          143,
          144,
          145,
          146,
          147,
          148,
          149,
          150,
          151,
          152,
          153,
          154,
          155,
          156,
          157,
          158,
          159,
          160,
          161,
          162,
          163,
          164,
          165,
          166,
          167,
          168,
          169,
          170,
          171,
          172,
          173,
          174,
          175,
          176,
          177,
          178,
          179,
          180,
          181,
          182,
          183,
          184,
          185,
          186,
          187,
          188,
          189,
          190,
          191,
          192,
          193,
          194,
          195,
          196,
          197,
          198,
          199,
          200,
          201,
          202,
          203,
          204,
          205,
          206,
          207,
          208,
          209,
          210,
          211,
          212,
          213,
          214,
          215,
          216,
          217,
          218,
          219,
          220,
          221,
          222,
          223,
          224,
          225,
          226,
          227,
          228,
          229,
          230,
          231,
          232,
          233,
          234,
          235,
          236,
          237,
          238,
          239,
          240,
          241,
          242,
          243,
          244,
          245,
          246,
          247,
          248,
          249,
          250,
          251,
          252,
          253,
          254,
          255,
          256,
          257,
          258,
          259,
          260,
          261,
          262,
          263,
          264,
          265,
          266,
          267,
          268,
          269,
          270,
          271,
          272,
          273,
          274,
          275,
          276,
          277,
          278,
          279,
          280,
          281,
          282,
          283,
          284,
          285,
          286,
          287,
          288,
          289,
          290,
          291,
          292,
          293,
          294,
          295,
          296,
          297,
          298,
          299,
          300,
          301,
          302,
          303,
          304,
          305,
          306,
          307,
          308,
          309,
          310,
          311,
          312,
          313,
          314,
          315,
          316,
          317,
          318,
          319,
          320,
          321,
          322,
          323,
          324,
          325,
          326,
          327,
          328,
          329,
          330,
          331,
          332,
          333,
          334,
          335,
          336,
          337,
          338,
          339,
          340,
          341,
          342,
          343,
          344,
          345,
          346,
          347,
          348,
          349,
          350,
          351,
          352,
          353,
          354,
          355,
          356,
          357,
          358,
          359,
          360,
          361,
          362,
          363,
          364,
          365,
          366,
          367,
          368,
          369,
          370,
          371,
          372,
          373,
          374,
          375,
          376,
          377,
          378,
          379,
          380,
          381,
          382,
          383,
          384,
          385,
          386,
          387,
          388,
          389,
          390,
          391,
          392,
          393,
          394,
          395,
          396,
          397,
          398,
          399,
          400,
          401,
          402,
          403,
          404,
          405,
          406,
          407,
          408,
          409,
          410
        ],
        "AcquisitionTime": [
          "162529.505000",
          "162530.995000",
          "162532.485000",
          "162533.975000",
          "162535.465000",
          "162536.955000",
          "162538.445000",
          "162539.935000",
          "162541.425000",
          "162542.915000",
          "162544.405000",
          "162545.895000",
          "162547.385000",
          "162548.875000",
          "162550.365000",
          "162551.855000",
          "162553.345000",
          "162554.835000",
          "162556.325000",
          "162557.815000",
          "162559.305000",
          "162600.795000",
          "162602.285000",
          "162603.775000",
          "162605.265000",
          "162606.755000",
          "162608.245000",
          "162609.735000",
          "162611.225000",
          "162612.715000",
          "162614.205000",
          "162615.695000",
          "162617.185000",
          "162618.675000",
          "162620.165000",
          "162621.655000",
          "162623.145000",
          "162624.635000",
          "162626.125000",
          "162627.615000",
          "162629.105000",
          "162630.595000",
          "162632.085000",
          "162633.575000",
          "162635.065000",
          "162636.555000",
          "162638.045000",
          "162639.535000",
          "162641.025000",
          "162642.515000",
          "162644.005000",
          "162645.495000",
          "162646.985000",
          "162648.475000",
          "162649.965000",
          "162651.455000",
          "162652.945000",
          "162654.435000",
          "162655.925000",
          "162657.415000",
          "162658.905000",
          "162700.395000",
          "162701.885000",
          "162703.375000",
          "162704.865000",
          "162706.355000",
          "162707.845000",
          "162709.335000",
          "162710.825000",
          "162712.315000",
          "162713.805000",
          "162715.295000",
          "162716.785000",
          "162718.275000",
          "162719.765000",
          "162721.255000",
          "162722.745000",
          "162724.235000",
          "162725.725000",
          "162727.215000",
          "162728.705000",
          "162730.195000",
          "162731.685000",
          "162733.175000",
          "162734.665000",
          "162736.155000",
          "162737.645000",
          "162739.135000",
          "162740.625000",
          "162742.115000",
          "162743.605000",
          "162745.095000",
          "162746.585000",
          "162748.075000",
          "162749.565000",
          "162751.055000",
          "162752.545000",
          "162754.035000",
          "162755.525000",
          "162757.015000",
          "162758.505000",
          "162759.995000",
          "162801.485000",
          "162802.975000",
          "162804.465000",
          "162805.955000",
          "162807.445000",
          "162808.935000",
          "162810.425000",
          "162811.915000",
          "162813.405000",
          "162814.895000",
          "162816.385000",
          "162817.875000",
          "162819.365000",
          "162820.855000",
          "162822.345000",
          "162823.835000",
          "162825.325000",
          "162826.815000",
          "162828.305000",
          "162829.795000",
          "162831.285000",
          "162832.775000",
          "162834.265000",
          "162835.755000",
          "162837.245000",
          "162838.735000",
          "162840.225000",
          "162841.715000",
          "162843.205000",
          "162844.695000",
          "162846.185000",
          "162847.675000",
          "162849.165000",
          "162850.655000",
          "162852.145000",
          "162853.635000",
          "162855.125000",
          "162856.615000",
          "162858.105000",
          "162859.595000",
          "162901.085000",
          "162902.575000",
          "162904.065000",
          "162905.555000",
          "162907.045000",
          "162908.535000",
          "162910.025000",
          "162911.515000",
          "162913.005000",
          "162914.495000",
          "162915.985000",
          "162917.475000",
          "162918.965000",
          "162920.455000",
          "162921.945000",
          "162923.435000",
          "162924.925000",
          "162926.415000",
          "162927.905000",
          "162929.395000",
          "162930.885000",
          "162932.375000",
          "162933.865000",
          "162935.355000",
          "162936.845000",
          "162938.335000",
          "162939.825000",
          "162941.315000",
          "162942.805000",
          "162944.295000",
          "162945.785000",
          "162947.275000",
          "162948.765000",
          "162950.255000",
          "162951.745000",
          "162953.235000",
          "162954.725000",
          "162956.215000",
          "162957.705000",
          "162959.195000",
          "163000.685000",
          "163002.175000",
          "163003.665000",
          "163005.155000",
          "163006.645000",
          "163008.135000",
          "163009.625000",
          "163011.115000",
          "163012.605000",
          "163014.095000",
          "163015.585000",
          "163017.075000",
          "163018.565000",
          "163020.055000",
          "163021.545000",
          "163023.035000",
          "163024.525000",
          "163026.015000",
          "163027.505000",
          "163028.995000",
          "163030.485000",
          "163031.975000",
          "163033.465000",
          "163034.955000",
          "163036.445000",
          "163037.935000",
          "163039.425000",
          "163040.915000",
          "163042.405000",
          "163043.895000",
          "163045.385000",
          "163046.875000",
          "163048.365000",
          "163049.855000",
          "163051.345000",
          "163052.835000",
          "163054.325000",
          "163055.815000",
          "163057.305000",
          "163058.795000",
          "163100.285000",
          "163101.775000",
          "163103.265000",
          "163104.755000",
          "163106.245000",
          "163107.735000",
          "163109.225000",
          "163110.715000",
          "163112.205000",
          "163113.695000",
          "163115.185000",
          "163116.675000",
          "163118.165000",
          "163119.655000",
          "163121.145000",
          "163122.635000",
          "163124.125000",
          "163125.615000",
          "163127.105000",
          "163128.595000",
          "163130.085000",
          "163131.575000",
          "163133.065000",
          "163134.555000",
          "163136.045000",
          "163137.535000",
          "163139.025000",
          "163140.515000",
          "163142.005000",
          "163143.495000",
          "163144.985000",
          "163146.475000",
          "163147.965000",
          "163149.455000",
          "163150.945000",
          "163152.435000",
          "163153.925000",
          "163155.415000",
          "163156.905000",
          "163158.395000",
          "163159.885000",
          "163201.375000",
          "163202.865000",
          "163204.355000",
          "163205.845000",
          "163207.335000",
          "163208.825000",
          "163210.315000",
          "163211.805000",
          "163213.295000",
          "163214.785000",
          "163216.275000",
          "163217.765000",
          "163219.255000",
          "163220.745000",
          "163222.235000",
          "163223.725000",
          "163225.215000",
          "163226.705000",
          "163228.195000",
          "163229.685000",
          "163231.175000",
          "163232.665000",
          "163234.155000",
          "163235.645000",
          "163237.135000",
          "163238.625000",
          "163240.115000",
          "163241.605000",
          "163243.095000",
          "163244.585000",
          "163246.075000",
          "163247.565000",
          "163249.055000",
          "163250.545000",
          "163252.035000",
          "163253.525000",
          "163255.015000",
          "163256.505000",
          "163257.995000",
          "163259.485000",
          "163300.975000",
          "163302.465000",
          "163303.955000",
          "163305.445000",
          "163306.935000",
          "163308.425000",
          "163309.915000",
          "163311.405000",
          "163312.895000",
          "163314.385000",
          "163315.875000",
          "163317.365000",
          "163318.855000",
          "163320.345000",
          "163321.835000",
          "163323.325000",
          "163324.815000",
          "163326.305000",
          "163327.795000",
          "163329.285000",
          "163330.775000",
          "163332.265000",
          "163333.755000",
          "163335.245000",
          "163336.735000",
          "163338.225000",
          "163339.715000",
          "163341.205000",
          "163342.695000",
          "163344.185000",
          "163345.675000",
          "163347.165000",
          "163348.655000",
          "163350.145000",
          "163351.635000",
          "163353.125000",
          "163354.615000",
          "163356.105000",
          "163357.595000",
          "163359.085000",
          "163400.575000",
          "163402.065000",
          "163403.555000",
          "163405.045000",
          "163406.535000",
          "163408.025000",
          "163409.515000",
          "163411.005000",
          "163412.495000",
          "163413.985000",
          "163415.475000",
          "163416.965000",
          "163418.455000",
          "163419.945000",
          "163421.435000",
          "163422.925000",
          "163424.415000",
          "163425.905000",
          "163427.395000",
          "163428.885000",
          "163430.375000",
          "163431.865000",
          "163433.355000",
          "163434.845000",
          "163436.335000",
          "163437.825000",
          "163439.315000",
          "163440.805000",
          "163442.295000",
          "163443.785000",
          "163445.275000",
          "163446.765000",
          "163448.255000",
          "163449.745000",
          "163451.235000",
          "163452.725000",
          "163454.215000",
          "163455.705000",
          "163457.195000",
          "163458.685000",
          "163500.175000",
          "163501.665000",
          "163503.155000",
          "163504.645000",
          "163506.135000",
          "163507.625000",
          "163509.115000",
          "163510.605000",
          "163512.095000",
          "163513.585000",
          "163515.075000",
          "163516.565000",
          "163518.055000",
          "163519.545000",
          "163521.035000",
          "163522.525000",
          "163524.015000",
          "163525.505000",
          "163526.995000",
          "163528.485000",
          "163529.975000",
          "163531.465000",
          "163532.955000",
          "163534.445000",
          "163535.935000",
          "163537.425000",
          "163538.915000"
        ],
        "ContentTime": [
          "162654.167000",
          "162654.170000",
          "162654.182000",
          "162654.185000",
          "162654.187000",
          "162654.190000",
          "162654.193000",
          "162654.196000",
          "162654.205000",
          "162654.208000",
          "162654.210000",
          "162654.213000",
          "162654.216000",
          "162654.219000",
          "162654.222000",
          "162654.225000",
          "162654.228000",
          "162654.231000",
          "162654.233000",
          "162654.236000",
          "162654.239000",
          "162654.242000",
          "162654.245000",
          "162654.248000",
          "162654.251000",
          "162654.253000",
          "162654.256000",
          "162654.259000",
          "162654.262000",
          "162654.265000",
          "162654.268000",
          "162654.270000",
          "162714.129000",
          "162714.132000",
          "162714.140000",
          "162714.143000",
          "162714.146000",
          "162714.149000",
          "162714.152000",
          "162714.155000",
          "162714.157000",
          "162714.160000",
          "162714.163000",
          "162714.166000",
          "162714.169000",
          "162714.171000",
          "162714.174000",
          "162714.177000",
          "162714.180000",
          "162714.183000",
          "162714.186000",
          "162714.189000",
          "162734.140000",
          "162734.143000",
          "162734.146000",
          "162734.148000",
          "162734.151000",
          "162734.154000",
          "162734.157000",
          "162734.160000",
          "162734.163000",
          "162734.166000",
          "162734.168000",
          "162734.171000",
          "162734.174000",
          "162734.177000",
          "162734.180000",
          "162734.183000",
          "162734.186000",
          "162734.189000",
          "162734.191000",
          "162734.194000",
          "162734.197000",
          "162754.128000",
          "162754.131000",
          "162754.134000",
          "162754.137000",
          "162754.139000",
          "162754.142000",
          "162754.145000",
          "162754.148000",
          "162754.151000",
          "162754.154000",
          "162754.156000",
          "162754.159000",
          "162754.162000",
          "162754.165000",
          "162754.168000",
          "162754.171000",
          "162754.174000",
          "162754.176000",
          "162754.179000",
          "162754.182000",
          "162834.128000",
          "162834.131000",
          "162834.134000",
          "162834.137000",
          "162834.139000",
          "162834.142000",
          "162834.145000",
          "162834.148000",
          "162834.151000",
          "162834.154000",
          "162834.156000",
          "162834.159000",
          "162834.162000",
          "162834.165000",
          "162834.168000",
          "162834.171000",
          "162834.174000",
          "162834.177000",
          "162834.179000",
          "162834.182000",
          "162834.185000",
          "162834.188000",
          "162834.191000",
          "162834.194000",
          "162834.196000",
          "162834.199000",
          "162834.202000",
          "162834.205000",
          "162834.208000",
          "162834.211000",
          "162854.128000",
          "162854.131000",
          "162854.134000",
          "162854.137000",
          "162854.139000",
          "162854.142000",
          "162854.145000",
          "162854.149000",
          "162854.162000",
          "162854.165000",
          "162854.167000",
          "162854.170000",
          "162854.173000",
          "162934.129000",
          "162934.132000",
          "162934.135000",
          "162934.137000",
          "162934.140000",
          "162934.143000",
          "162934.146000",
          "162934.149000",
          "162934.152000",
          "162934.155000",
          "162934.158000",
          "162934.160000",
          "162934.163000",
          "162934.166000",
          "162934.169000",
          "162934.172000",
          "162934.175000",
          "162934.177000",
          "162934.180000",
          "162934.183000",
          "162934.186000",
          "162934.189000",
          "162934.192000",
          "162934.194000",
          "162934.197000",
          "162934.200000",
          "162934.203000",
          "163014.128000",
          "163014.131000",
          "163014.134000",
          "163014.137000",
          "163014.140000",
          "163014.142000",
          "163014.145000",
          "163014.148000",
          "163014.151000",
          "163014.154000",
          "163014.157000",
          "163014.160000",
          "163014.163000",
          "163014.165000",
          "163014.168000",
          "163014.171000",
          "163014.175000",
          "163014.177000",
          "163014.180000",
          "163014.183000",
          "163014.186000",
          "163014.189000",
          "163014.192000",
          "163014.195000",
          "163014.198000",
          "163014.200000",
          "163014.203000",
          "163054.128000",
          "163054.131000",
          "163054.134000",
          "163054.137000",
          "163054.140000",
          "163054.142000",
          "163054.145000",
          "163054.148000",
          "163054.151000",
          "163054.154000",
          "163054.157000",
          "163054.160000",
          "163054.162000",
          "163054.165000",
          "163054.168000",
          "163054.171000",
          "163054.174000",
          "163054.176000",
          "163054.179000",
          "163054.182000",
          "163054.185000",
          "163054.188000",
          "163054.191000",
          "163054.194000",
          "163054.197000",
          "163054.199000",
