{
  "aor": 0.0014198024691358024,
  "aqi": 0.005991447358024692,
  "bids_meta": {
    "AcquisitionMatrixPE": 104,
    "AcquisitionNumber": 1,
    "AcquisitionTime": "16:43:38.815000",
    "BandwidthPerPixelPhaseEncode": 17.17,
    "BaseResolution": 104,
    "BodyPartExamined": "BRAIN",
    "CogAtlasID": "trm_4c898da401420",
    "ConsistencyInfo": "N4_VE11C_LATEST_20160120",
    "ConversionSoftware": "dcm2niix",
    "ConversionSoftwareVersion": "v1.0.20171215 (OpenJPEG build) GCC7.3.0",
    "DerivedVendorReportedEchoSpacing": 0.000560011,
    "DeviceSerialNumber": "167006",
    "DwellTime": 2.1e-06,
    "EchoTime": 0.037,
    "EchoTrainLength": 104,
    "EffectiveEchoSpacing": 0.000560011,
    "FlipAngle": 52,
    "ImageComments": "Unaliased_MB4_PE3_LB",
    "ImageOrientationPatientDICOM": [
      0.999834,
      0.0182206,
      6.28191e-05,
      -0.0174522,
      0.958648,
      -0.28406
    ],
    "ImageType": [
      "ORIGINAL",
      "PRIMARY",
      "M",
      "MB",
      "ND",
      "MOSAIC"
    ],
    "InPlanePhaseEncodingDirectionDICOM": "COL",
    "InstitutionAddress": "Chemin_Queen-Mary_4565_Montreal_District_CA_H3W_1W5",
    "InstitutionName": "IUGM",
    "InstitutionalDepartmentName": "Department",
    "MRAcquisitionType": "2D",
    "MagneticFieldStrength": 3,
    "Manufacturer": "Siemens",
    "ManufacturersModelName": "Prisma_fit",
    "Modality": "MR",
    "MultibandAccelerationFactor": 4,
    "PartialFourier": 1,
    "PatientPosition": "HFS",
    "PercentPhaseFOV": 100,
    "PhaseEncodingDirection": "j-",
    "PhaseEncodingSteps": 104,
    "PhaseResolution": 1,
    "PixelBandwidth": 2290,
    "ProcedureStepDescription": "video5_generic",
    "ProtocolName": "func_task-bourne5",
    "PulseSequenceDetails": "%CustomerSeq%_cmrr_mbep2d_bold",
    "ReceiveCoilActiveElements": "HC1-7;NC1,2",
    "ReceiveCoilName": "HeadNeck_64",
    "ReconMatrixPE": 104,
    "RepetitionTime": 1.49,
    "SAR": 0.0308362,
    "ScanOptions": "FS",
    "ScanningSequence": "EP",
    "SequenceName": "epfid2d1_104",
    "SequenceVariant": "SK_SS",
    "SeriesDescription": "func_task-bourne5",
    "SeriesNumber": 15,
    "ShimSetting": [
      622,
      -7171,
      -8820,
      652,
      -4,
      93,
      6,
      0
    ],
    "SliceThickness": 2,
    "SliceTiming": [
      0,
      0.7825,
      0.0975,
      0.8825,
      0.195,
      0.98,
      0.2925,
      1.0775,
      0.3925,
      1.175,
      0.49,
      1.2725,
      0.5875,
      1.3725,
      0.685,
      0,
      0.7825,
      0.0975,
      0.8825,
      0.195,
      0.98,
      0.2925,
      1.0775,
      0.3925,
      1.175,
      0.49,
      1.2725,
      0.5875,
      1.3725,
      0.685,
      0,
      0.7825,
      0.0975,
      0.8825,
      0.195,
      0.98,
      0.2925,
      1.0775,
      0.3925,
      1.175,
      0.49,
      1.2725,
      0.5875,
      1.3725,
      0.685,
      0,
      0.7825,
      0.0975,
      0.8825,
      0.195,
      0.98,
      0.2925,
      1.0775,
      0.3925,
      1.175,
      0.49,
      1.2725,
      0.5875,
      1.3725,
      0.685
    ],
    "SoftwareVersions": "syngo_MR_E11",
    "SpacingBetweenSlices": 2,
    "StationName": "MRC35049",
    "TaskName": "bourne05",
    "TotalReadoutTime": 0.0576811,
    "TxRefAmp": 210.591,
    "dataset": "<unset>",
    "dcmmeta_affine": [
      [
        -1.999668002128601,
        -0.03490447252988815,
        0.010471946559846401,
        109.53924560546875
      ],
      [
        -0.036441296339035034,
        1.9172954559326172,
        -0.5680229067802429,
        -68.02619934082031
      ],
      [
        0.00012563822383526713,
        0.5681194067001343,
        1.91761314868927,
        -67.23764038085938
      ],
      [
        0.0,
        0.0,
        0.0,
        1.0
      ]
    ],
    "dcmmeta_reorient_transform": [
      [
        0.0,
        -1.0,
        0.0,
        103.0
      ],
      [
        1.0,
        0.0,
        0.0,
        0.0
      ],
      [
        0.0,
        0.0,
        1.0,
        0.0
      ],
      [
        0.0,
        0.0,
        0.0,
        1.0
      ]
    ],
    "dcmmeta_shape": [
      104,
      104,
      60,
      405
    ],
    "dcmmeta_slice_dim": 2,
    "dcmmeta_version": 0.6,
    "global": {
      "const": {
        "AcquisitionMatrix": [
          104,
          0,
          0,
          104
        ],
        "AngioFlag": "N",
        "BitsAllocated": 16,
        "BitsStored": 16,
        "BodyPartExamined": "BRAIN",
        "Columns": 832,
        "EchoNumbers": 1,
        "EchoTime": 37.0,
        "EchoTrainLength": 104,
        "FlipAngle": 52.0,
        "HighBit": 15,
        "ImageOrientationPatient": [
          0.99983398823612,
          0.01822064822159,
          6.281911209e-05,
          -0.0174522362677,
          0.95864774717184,
          -0.284059705505
        ],
        "ImagePositionPatient": [
          -821.1180036603,
          -840.61543064178,
          198.02839425066
        ],
        "ImageType": [
          "ORIGINAL",
          "PRIMARY",
          "M",
          "MB",
          "ND",
          "MOSAIC"
        ],
        "ImagedNucleus": "1H",
        "ImagingFrequency": 123.25916,
        "InPlanePhaseEncodingDirection": "COL",
        "MRAcquisitionType": "2D",
        "MagneticFieldStrength": 3.0,
        "Manufacturer": "SIEMENS",
        "ManufacturerModelName": "Prisma_fit",
        "Modality": "MR",
        "NumberOfAverages": 1.0,
        "NumberOfPhaseEncodingSteps": 104,
        "PercentPhaseFieldOfView": 100.0,
        "PercentSampling": 100.0,
        "PerformedProcedureStepStartTime": "153952.348000",
        "PhotometricInterpretation": "MONOCHROME2",
        "PixelBandwidth": 2290.0,
        "PixelRepresentation": 0,
        "PixelSpacing": [
          2.0,
          2.0
        ],
        "ProtocolName": "func_task-bourne5",
        "RepetitionTime": 1490.0,
        "Rows": 832,
        "SAR": 0.03083619330361,
        "SamplesPerPixel": 1,
        "ScanOptions": "FS",
        "ScanningSequence": "EP",
        "SequenceName": "epfid2d1_104",
        "SequenceVariant": [
          "SK",
          "SS"
        ],
        "SeriesDescription": "func_task-bourne5",
        "SeriesNumber": 15,
        "SeriesTime": "164505.513000",
        "SliceLocation": -44.574127265098,
        "SliceThickness": 2.0,
        "SmallestImagePixelValue": 0,
        "SoftwareVersions": "syngo MR E11",
        "SpacingBetweenSlices": 2.0000000215908,
        "SpecificCharacterSet": "ISO_IR 100",
        "StudyID": "1",
        "StudyTime": "153952.266000",
        "TransmitCoilName": "Body",
        "VariableFlipAngleFlag": "N",
        "WindowCenterWidthExplanation": "Algo1",
        "dBdt": 0.0
      },
      "slices": {}
    },
    "modality": "bold",
    "session_id": "001",
    "subject_id": "03",
    "task_id": "bourne05",
    "time": {
      "samples": {
        "AcquisitionNumber": [
          1,
          2,
          3,
          4,
          5,
          6,
          7,
          8,
          9,
          10,
          11,
          12,
          13,
          14,
          15,
          16,
          17,
          18,
          19,
          20,
          21,
          22,
          23,
          24,
          25,
          26,
          27,
          28,
          29,
          30,
          31,
          32,
          33,
          34,
          35,
          36,
          37,
          38,
          39,
          40,
          41,
          42,
          43,
          44,
          45,
          46,
          47,
          48,
          49,
          50,
          51,
          52,
          53,
          54,
          55,
          56,
          57,
          58,
          59,
          60,
          61,
          62,
          63,
          64,
          65,
          66,
          67,
          68,
          69,
          70,
          71,
          72,
          73,
          74,
          75,
          76,
          77,
          78,
          79,
          80,
          81,
          82,
          83,
          84,
          85,
          86,
          87,
          88,
          89,
          90,
          91,
          92,
          93,
          94,
          95,
          96,
          97,
          98,
          99,
          100,
          101,
          102,
          103,
          104,
          105,
          106,
          107,
          108,
          109,
          110,
          111,
          112,
          113,
          114,
          115,
          116,
          117,
          118,
          119,
          120,
          121,
          122,
          123,
          124,
          125,
          126,
          127,
          128,
          129,
          130,
          131,
          132,
          133,
          134,
          135,
          136,
          137,
          138,
          139,
          140,
          141,
          142,
          143,
          144,
          145,
          146,
          147,
          148,
          149,
          150,
          151,
          152,
          153,
          154,
          155,
          156,
          157,
          158,
          159,
          160,
          161,
          162,
          163,
          164,
          165,
          166,
          167,
          168,
          169,
          170,
          171,
          172,
          173,
          174,
          175,
          176,
          177,
          178,
          179,
          180,
          181,
          182,
          183,
          184,
          185,
          186,
          187,
          188,
          189,
          190,
          191,
          192,
          193,
          194,
          195,
          196,
          197,
          198,
          199,
          200,
          201,
          202,
          203,
          204,
          205,
          206,
          207,
          208,
          209,
          210,
          211,
          212,
          213,
          214,
          215,
          216,
          217,
          218,
          219,
          220,
          221,
          222,
          223,
          224,
          225,
          226,
          227,
          228,
          229,
          230,
          231,
          232,
          233,
          234,
          235,
          236,
          237,
          238,
          239,
          240,
          241,
          242,
          243,
          244,
          245,
          246,
          247,
          248,
          249,
          250,
          251,
          252,
          253,
          254,
          255,
          256,
          257,
          258,
          259,
          260,
          261,
          262,
          263,
          264,
          265,
          266,
          267,
          268,
          269,
          270,
          271,
          272,
          273,
          274,
          275,
          276,
          277,
          278,
          279,
          280,
          281,
          282,
          283,
          284,
          285,
          286,
          287,
          288,
          289,
          290,
          291,
          292,
          293,
          294,
          295,
          296,
          297,
          298,
          299,
          300,
          301,
          302,
          303,
          304,
          305,
          306,
          307,
          308,
          309,
          310,
          311,
          312,
          313,
          314,
          315,
          316,
          317,
          318,
          319,
          320,
          321,
          322,
          323,
          324,
          325,
          326,
          327,
          328,
          329,
          330,
          331,
          332,
          333,
          334,
          335,
          336,
          337,
          338,
          339,
          340,
          341,
          342,
          343,
          344,
          345,
          346,
          347,
          348,
          349,
          350,
          351,
          352,
          353,
          354,
          355,
          356,
          357,
          358,
          359,
          360,
          361,
          362,
          363,
          364,
          365,
          366,
          367,
          368,
          369,
          370,
          371,
          372,
          373,
          374,
          375,
          376,
          377,
          378,
          379,
          380,
          381,
          382,
          383,
          384,
          385,
          386,
          387,
          388,
          389,
          390,
          391,
          392,
          393,
          394,
          395,
          396,
          397,
          398,
          399,
          400,
          401,
          402,
          403,
          404,
          405
        ],
        "AcquisitionTime": [
          "164338.815000",
          "164340.305000",
          "164341.795000",
          "164343.285000",
          "164344.775000",
          "164346.265000",
          "164347.755000",
          "164349.245000",
          "164350.735000",
          "164352.225000",
          "164353.715000",
          "164355.205000",
          "164356.695000",
          "164358.185000",
          "164359.675000",
          "164401.165000",
          "164402.655000",
          "164404.145000",
          "164405.635000",
          "164407.125000",
          "164408.615000",
          "164410.105000",
          "164411.595000",
          "164413.085000",
          "164414.575000",
          "164416.065000",
          "164417.555000",
          "164419.045000",
          "164420.535000",
          "164422.025000",
          "164423.515000",
          "164425.005000",
          "164426.495000",
          "164427.985000",
          "164429.475000",
          "164430.965000",
          "164432.455000",
          "164433.945000",
          "164435.435000",
          "164436.925000",
          "164438.415000",
          "164439.905000",
          "164441.395000",
          "164442.885000",
          "164444.375000",
          "164445.865000",
          "164447.355000",
          "164448.845000",
          "164450.335000",
          "164451.825000",
          "164453.315000",
          "164454.805000",
          "164456.295000",
          "164457.785000",
          "164459.275000",
          "164500.765000",
          "164502.255000",
          "164503.745000",
          "164505.235000",
          "164506.725000",
          "164508.215000",
          "164509.705000",
          "164511.195000",
          "164512.685000",
          "164514.175000",
          "164515.665000",
          "164517.155000",
          "164518.645000",
          "164520.135000",
          "164521.625000",
          "164523.115000",
          "164524.605000",
          "164526.095000",
          "164527.585000",
          "164529.075000",
          "164530.565000",
          "164532.055000",
          "164533.545000",
          "164535.035000",
          "164536.525000",
          "164538.015000",
          "164539.505000",
          "164540.995000",
          "164542.485000",
          "164543.975000",
          "164545.465000",
          "164546.955000",
          "164548.445000",
          "164549.935000",
          "164551.425000",
          "164552.915000",
          "164554.405000",
          "164555.895000",
          "164557.385000",
          "164558.875000",
          "164600.365000",
          "164601.855000",
          "164603.345000",
          "164604.835000",
          "164606.325000",
          "164607.815000",
          "164609.305000",
          "164610.795000",
          "164612.285000",
          "164613.775000",
          "164615.265000",
          "164616.755000",
          "164618.245000",
          "164619.735000",
          "164621.225000",
          "164622.715000",
          "164624.205000",
          "164625.695000",
          "164627.185000",
          "164628.675000",
          "164630.165000",
          "164631.655000",
          "164633.145000",
          "164634.635000",
          "164636.125000",
          "164637.615000",
          "164639.105000",
          "164640.595000",
          "164642.085000",
          "164643.575000",
          "164645.065000",
          "164646.555000",
          "164648.045000",
          "164649.535000",
          "164651.025000",
          "164652.515000",
          "164654.005000",
          "164655.495000",
          "164656.985000",
          "164658.475000",
          "164659.965000",
          "164701.455000",
          "164702.945000",
          "164704.435000",
          "164705.925000",
          "164707.415000",
          "164708.905000",
          "164710.395000",
          "164711.885000",
          "164713.375000",
          "164714.865000",
          "164716.355000",
          "164717.845000",
          "164719.335000",
          "164720.825000",
          "164722.315000",
          "164723.805000",
          "164725.295000",
          "164726.785000",
          "164728.275000",
          "164729.765000",
          "164731.255000",
          "164732.745000",
          "164734.235000",
          "164735.725000",
          "164737.215000",
          "164738.705000",
          "164740.195000",
          "164741.685000",
          "164743.175000",
          "164744.665000",
          "164746.155000",
          "164747.645000",
          "164749.135000",
          "164750.625000",
          "164752.115000",
          "164753.605000",
          "164755.095000",
          "164756.585000",
          "164758.075000",
          "164759.565000",
          "164801.055000",
          "164802.545000",
          "164804.035000",
          "164805.525000",
          "164807.015000",
          "164808.505000",
          "164809.995000",
          "164811.485000",
          "164812.975000",
          "164814.465000",
          "164815.955000",
          "164817.445000",
          "164818.935000",
          "164820.425000",
          "164821.915000",
          "164823.405000",
          "164824.895000",
          "164826.385000",
          "164827.875000",
          "164829.365000",
          "164830.855000",
          "164832.345000",
          "164833.835000",
          "164835.325000",
          "164836.815000",
          "164838.305000",
          "164839.795000",
          "164841.285000",
          "164842.775000",
          "164844.265000",
          "164845.755000",
          "164847.245000",
          "164848.735000",
          "164850.225000",
          "164851.715000",
          "164853.205000",
          "164854.695000",
          "164856.185000",
          "164857.675000",
          "164859.165000",
          "164900.655000",
          "164902.145000",
          "164903.635000",
          "164905.125000",
          "164906.615000",
          "164908.105000",
          "164909.595000",
          "164911.085000",
          "164912.575000",
          "164914.065000",
          "164915.555000",
          "164917.045000",
          "164918.535000",
          "164920.025000",
          "164921.515000",
          "164923.005000",
          "164924.495000",
          "164925.985000",
          "164927.475000",
          "164928.965000",
          "164930.455000",
          "164931.945000",
          "164933.435000",
          "164934.925000",
          "164936.415000",
          "164937.905000",
          "164939.395000",
          "164940.885000",
          "164942.375000",
          "164943.865000",
          "164945.355000",
          "164946.845000",
          "164948.335000",
          "164949.825000",
          "164951.315000",
          "164952.805000",
          "164954.295000",
          "164955.785000",
          "164957.275000",
          "164958.765000",
          "165000.255000",
          "165001.745000",
          "165003.235000",
          "165004.725000",
          "165006.215000",
          "165007.705000",
          "165009.195000",
          "165010.685000",
          "165012.175000",
          "165013.665000",
          "165015.155000",
          "165016.645000",
          "165018.135000",
          "165019.625000",
          "165021.115000",
          "165022.605000",
          "165024.095000",
          "165025.585000",
          "165027.075000",
          "165028.565000",
          "165030.055000",
          "165031.545000",
          "165033.035000",
          "165034.525000",
          "165036.015000",
          "165037.505000",
          "165038.995000",
          "165040.485000",
          "165041.975000",
          "165043.465000",
          "165044.955000",
          "165046.445000",
          "165047.935000",
          "165049.425000",
          "165050.915000",
          "165052.405000",
          "165053.895000",
          "165055.385000",
          "165056.875000",
          "165058.365000",
          "165059.855000",
          "165101.345000",
          "165102.835000",
          "165104.325000",
          "165105.815000",
          "165107.305000",
          "165108.795000",
          "165110.285000",
          "165111.775000",
          "165113.265000",
          "165114.755000",
          "165116.245000",
          "165117.735000",
          "165119.225000",
          "165120.715000",
          "165122.205000",
          "165123.695000",
          "165125.185000",
          "165126.675000",
          "165128.165000",
          "165129.655000",
          "165131.145000",
          "165132.635000",
          "165134.125000",
          "165135.615000",
          "165137.105000",
          "165138.595000",
          "165140.085000",
          "165141.575000",
          "165143.065000",
          "165144.555000",
          "165146.045000",
          "165147.535000",
          "165149.025000",
          "165150.515000",
          "165152.005000",
          "165153.495000",
          "165154.985000",
          "165156.475000",
          "165157.965000",
          "165159.455000",
          "165200.945000",
          "165202.435000",
          "165203.925000",
          "165205.415000",
          "165206.905000",
          "165208.395000",
          "165209.885000",
          "165211.375000",
          "165212.865000",
          "165214.355000",
          "165215.845000",
          "165217.335000",
          "165218.825000",
          "165220.315000",
          "165221.805000",
          "165223.295000",
          "165224.785000",
          "165226.275000",
          "165227.765000",
          "165229.255000",
          "165230.745000",
          "165232.235000",
          "165233.725000",
          "165235.215000",
          "165236.705000",
          "165238.195000",
          "165239.685000",
          "165241.175000",
          "165242.665000",
          "165244.155000",
          "165245.645000",
          "165247.135000",
          "165248.625000",
          "165250.115000",
          "165251.605000",
          "165253.095000",
          "165254.585000",
          "165256.075000",
          "165257.565000",
          "165259.055000",
          "165300.545000",
          "165302.035000",
          "165303.525000",
          "165305.015000",
          "165306.505000",
          "165307.995000",
          "165309.485000",
          "165310.975000",
          "165312.465000",
          "165313.955000",
          "165315.445000",
          "165316.935000",
          "165318.425000",
          "165319.915000",
          "165321.405000",
          "165322.895000",
          "165324.385000",
          "165325.875000",
          "165327.365000",
          "165328.855000",
          "165330.345000",
          "165331.835000",
          "165333.325000",
          "165334.815000",
          "165336.305000",
          "165337.795000",
          "165339.285000",
          "165340.775000"
        ],
        "ContentTime": [
          "164505.516000",
          "164505.521000",
          "164505.524000",
          "164505.527000",
          "164505.530000",
          "164505.533000",
          "164505.536000",
          "164505.539000",
          "164505.542000",
          "164505.545000",
          "164505.548000",
          "164505.551000",
          "164505.554000",
          "164505.557000",
          "164505.560000",
          "164505.563000",
          "164505.566000",
          "164505.569000",
          "164505.574000",
          "164505.577000",
          "164505.580000",
          "164505.583000",
          "164505.586000",
          "164505.588000",
          "164505.591000",
          "164505.595000",
          "164505.598000",
          "164505.601000",
          "164505.603000",
          "164505.606000",
          "164505.609000",
          "164505.612000",
          "164505.615000",
          "164525.473000",
          "164525.476000",
          "164525.481000",
          "164525.484000",
          "164525.487000",
          "164525.490000",
          "164525.493000",
          "164525.496000",
          "164525.499000",
          "164525.502000",
          "164525.504000",
          "164525.507000",
          "164525.510000",
          "164525.513000",
          "164525.516000",
          "164525.519000",
          "164525.522000",
          "164525.525000",
          "164525.528000",
          "164525.531000",
          "164545.474000",
          "164545.477000",
          "164545.480000",
          "164545.483000",
          "164545.486000",
          "164545.489000",
          "164545.492000",
          "164545.495000",
          "164545.498000",
          "164545.501000",
          "164545.503000",
          "164545.523000",
          "164545.526000",
          "164545.529000",
          "164545.532000",
          "164545.535000",
          "164545.538000",
          "164545.540000",
          "164545.543000",
          "164545.546000",
          "164605.474000",
          "164605.477000",
          "164605.480000",
          "164605.483000",
          "164605.489000",
          "164605.492000",
          "164605.495000",
          "164605.498000",
          "164605.501000",
          "164605.504000",
          "164605.507000",
          "164605.510000",
          "164605.512000",
          "164605.515000",
          "164605.518000",
          "164605.521000",
          "164605.524000",
          "164605.527000",
          "164605.530000",
          "164605.533000",
          "164605.536000",
          "164645.474000",
          "164645.477000",
          "164645.480000",
          "164645.483000",
          "164645.486000",
          "164645.489000",
          "164645.492000",
          "164645.495000",
          "164645.498000",
          "164645.501000",
          "164645.504000",
          "164645.507000",
          "164645.510000",
          "164645.513000",
          "164645.515000",
          "164645.518000",
          "164645.521000",
          "164645.524000",
          "164645.527000",
          "164645.530000",
          "164645.533000",
          "164645.536000",
          "164645.539000",
          "164645.542000",
          "164645.545000",
          "164645.548000",
          "164645.551000",
          "164645.554000",
          "164645.556000",
          "164645.559000",
          "164725.473000",
          "164725.476000",
          "164725.479000",
          "164725.482000",
          "164725.485000",
          "164725.488000",
          "164725.491000",
          "164725.494000",
          "164725.497000",
          "164725.500000",
          "164725.503000",
          "164725.506000",
          "164725.509000",
          "164725.512000",
          "164725.515000",
          "164725.517000",
          "164725.520000",
          "164725.523000",
          "164725.526000",
          "164725.529000",
          "164725.532000",
          "164725.535000",
          "164725.538000",
          "164725.541000",
          "164725.544000",
          "164725.547000",
          "164725.550000",
          "164805.474000",
          "164805.477000",
          "164805.480000",
          "164805.483000",
          "164805.486000",
          "164805.489000",
          "164805.492000",
          "164805.501000",
          "164805.504000",
          "164805.507000",
          "164805.510000",
          "164805.513000",
          "164805.516000",
          "164805.518000",
          "164805.521000",
          "164805.524000",
          "164805.527000",
          "164805.530000",
          "164805.533000",
          "164805.536000",
          "164805.539000",
          "164805.542000",
          "164805.545000",
          "164805.548000",
          "164805.551000",
          "164805.554000",
          "164805.557000",
          "164845.474000",
          "164845.477000",
          "164845.480000",
          "164845.483000",
          "164845.486000",
          "164845.489000",
          "164845.492000",
          "164845.495000",
          "164845.498000",
          "164845.501000",
          "164845.504000",
          "164845.507000",
          "164845.510000",
          "164845.513000",
          "164845.516000",
          "164845.519000",
          "164845.521000",
          "164845.524000",
          "164845.527000",
          "164845.530000",
          "164845.533000",
          "164845.536000",
          "164845.539000",
          "164845.542000",
          "164845.545000",
          "164845.548000",
          "164845.551000",
          "164925.473000",
          "164925.476000",
          "164925.479000",
          "164925.482000",
          "164925.485000",
          "164925.488000",
          "164925.491000",
          "164925.494000",
          "164925.497000",
          "164925.500000",
          "164925.503000",
          "164925.506000",
          "164925.508000",
          "164925.511000",
          "164925.514000",
          "164925.517000",
          "164925.520000",
          "164925.523000",
          "164925.526000",
          "164925.529000",
