{
  "aor": 0.000631515892420538,
  "aqi": 0.0065272677506112466,
  "bids_meta": {
    "AcquisitionMatrixPE": 104,
    "AcquisitionNumber": 1,
    "AcquisitionTime": "13:56:40.172500",
    "BandwidthPerPixelPhaseEncode": 17.17,
    "BaseResolution": 104,
    "BodyPartExamined": "BRAIN",
    "CogAtlasID": "trm_4c898da401420",
    "ConsistencyInfo": "N4_VE11C_LATEST_20160120",
    "ConversionSoftware": "dcm2niix",
    "ConversionSoftwareVersion": "v1.0.20171215 (OpenJPEG build) GCC7.3.0",
    "DerivedVendorReportedEchoSpacing": 0.000560011,
    "DeviceSerialNumber": "167006",
    "DwellTime": 2.1e-06,
    "EchoTime": 0.037,
    "EchoTrainLength": 104,
    "EffectiveEchoSpacing": 0.000560011,
    "FlipAngle": 52,
    "ImageComments": "Unaliased_MB4_PE3_LB",
    "ImageOrientationPatientDICOM": [
      0.999359,
      0.0312091,
      -0.0175142,
      -0.0357715,
      0.885793,
      -0.4627
    ],
    "ImageType": [
      "ORIGINAL",
      "PRIMARY",
      "M",
      "MB",
      "ND",
      "MOSAIC"
    ],
    "InPlanePhaseEncodingDirectionDICOM": "COL",
    "InstitutionAddress": "Chemin_Queen-Mary_4565_Montreal_District_CA_H3W_1W5",
    "InstitutionName": "IUGM",
    "InstitutionalDepartmentName": "Department",
    "MRAcquisitionType": "2D",
    "MagneticFieldStrength": 3,
    "Manufacturer": "Siemens",
    "ManufacturersModelName": "Prisma_fit",
    "Modality": "MR",
    "MultibandAccelerationFactor": 4,
    "PartialFourier": 1,
    "PatientPosition": "HFS",
    "PercentPhaseFOV": 100,
    "PhaseEncodingDirection": "j-",
    "PhaseEncodingSteps": 104,
    "PhaseResolution": 1,
    "PixelBandwidth": 2290,
    "ProcedureStepDescription": "video5_generic",
    "ProtocolName": "func_task-figures2",
    "PulseSequenceDetails": "%CustomerSeq%_cmrr_mbep2d_bold",
    "ReceiveCoilActiveElements": "HC1-7;NC1,2",
    "ReceiveCoilName": "HeadNeck_64",
    "ReconMatrixPE": 104,
    "RepetitionTime": 1.49,
    "SAR": 0.0361385,
    "ScanOptions": "FS",
    "ScanningSequence": "EP",
    "SequenceName": "epfid2d1_104",
    "SequenceVariant": "SK_SS",
    "SeriesDescription": "func_task-figures2",
    "SeriesNumber": 9,
    "ShimSetting": [
      623,
      -7176,
      -8915,
      377,
      5,
      -175,
      31,
      -15
    ],
    "SliceThickness": 2,
    "SliceTiming": [
      0,
      0.785,
      0.1,
      0.8825,
      0.1975,
      0.98,
      0.295,
      1.0775,
      0.3925,
      1.1775,
      0.49,
      1.275,
      0.5875,
      1.3725,
      0.6875,
      0,
      0.785,
      0.1,
      0.8825,
      0.1975,
      0.98,
      0.295,
      1.0775,
      0.3925,
      1.1775,
      0.49,
      1.275,
      0.5875,
      1.3725,
      0.6875,
      0,
      0.785,
      0.1,
      0.8825,
      0.1975,
      0.98,
      0.295,
      1.0775,
      0.3925,
      1.1775,
      0.49,
      1.275,
      0.5875,
      1.3725,
      0.6875,
      0,
      0.785,
      0.1,
      0.8825,
      0.1975,
      0.98,
      0.295,
      1.0775,
      0.3925,
      1.1775,
      0.49,
      1.275,
      0.5875,
      1.3725,
      0.6875
    ],
    "SoftwareVersions": "syngo_MR_E11",
    "SpacingBetweenSlices": 2,
    "StationName": "MRC35049",
    "TaskName": "figures02",
    "TotalReadoutTime": 0.0576811,
    "TxRefAmp": 250.048,
    "dataset": "<unset>",
    "dcmmeta_affine": [
      [
        -1.9987188577651978,
        -0.07154308259487152,
        -0.002147085964679718,
        109.37051391601562
      ],
      [
        -0.06241818144917488,
        1.7715859413146973,
        -0.9260600805282593,
        -58.3380241394043
      ],
      [
        -0.035028472542762756,
        0.9253998398780823,
        1.77268385887146,
        -115.20152282714844
      ],
      [
        0.0,
        0.0,
        0.0,
        1.0
      ]
    ],
    "dcmmeta_reorient_transform": [
      [
        0.0,
        -1.0,
        0.0,
        103.0
      ],
      [
        1.0,
        0.0,
        0.0,
        0.0
      ],
      [
        0.0,
        0.0,
        1.0,
        0.0
      ],
      [
        0.0,
        0.0,
        0.0,
        1.0
      ]
    ],
    "dcmmeta_shape": [
      104,
      104,
      60,
      410
    ],
    "dcmmeta_slice_dim": 2,
    "dcmmeta_version": 0.6,
    "global": {
      "const": {
        "AcquisitionMatrix": [
          104,
          0,
          0,
          104
        ],
        "AngioFlag": "N",
        "BitsAllocated": 16,
        "BitsStored": 16,
        "BodyPartExamined": "BRAIN",
        "Columns": 832,
        "EchoNumbers": 1,
        "EchoTime": 37.0,
        "EchoTrainLength": 104,
        "FlipAngle": 52.0,
        "HighBit": 15,
        "ImageOrientationPatient": [
          0.99935941694574,
          0.03120909013322,
          -0.0175142357791,
          -0.0357715427022,
          0.88579296241332,
          -0.4626999291893
        ],
        "ImagePositionPatient": [
          -803.49354694897,
          -791.71281854331,
          329.7105714231
        ],
        "ImageType": [
          "ORIGINAL",
          "PRIMARY",
          "M",
          "MB",
          "ND",
          "MOSAIC"
        ],
        "ImagedNucleus": "1H",
        "ImagingFrequency": 123.259441,
        "InPlanePhaseEncodingDirection": "COL",
        "MRAcquisitionType": "2D",
        "MagneticFieldStrength": 3.0,
        "Manufacturer": "SIEMENS",
        "ManufacturerModelName": "Prisma_fit",
        "Modality": "MR",
        "NumberOfAverages": 1.0,
        "NumberOfPhaseEncodingSteps": 104,
        "PercentPhaseFieldOfView": 100.0,
        "PercentSampling": 100.0,
        "PerformedProcedureStepStartTime": "132751.036000",
        "PhotometricInterpretation": "MONOCHROME2",
        "PixelBandwidth": 2290.0,
        "PixelRepresentation": 0,
        "PixelSpacing": [
          2.0,
          2.0
        ],
        "ProtocolName": "func_task-figures2",
        "RepetitionTime": 1490.0,
        "Rows": 832,
        "SAR": 0.03613854447976,
        "SamplesPerPixel": 1,
        "ScanOptions": "FS",
        "ScanningSequence": "EP",
        "SequenceName": "epfid2d1_104",
        "SequenceVariant": [
          "SK",
          "SS"
        ],
        "SeriesDescription": "func_task-figures2",
        "SeriesNumber": 9,
        "SeriesTime": "135804.326000",
        "SliceLocation": -75.213098927185,
        "SliceThickness": 2.0,
        "SmallestImagePixelValue": 0,
        "SoftwareVersions": "syngo MR E11",
        "SpacingBetweenSlices": 1.9999999963416,
        "SpecificCharacterSet": "ISO_IR 100",
        "StudyID": "1",
        "StudyTime": "132750.940000",
        "TransmitCoilName": "Body",
        "VariableFlipAngleFlag": "N",
        "WindowCenterWidthExplanation": "Algo1",
        "dBdt": 0.0
      },
      "slices": {}
    },
    "modality": "bold",
    "run_id": 2,
    "session_id": "010",
    "subject_id": "02",
    "task_id": "figures02",
    "time": {
      "samples": {
        "AcquisitionNumber": [
          1,
          2,
          3,
          4,
          5,
          6,
          7,
          8,
          9,
          10,
          11,
          12,
          13,
          14,
          15,
          16,
          17,
          18,
          19,
          20,
          21,
          22,
          23,
          24,
          25,
          26,
          27,
          28,
          29,
          30,
          31,
          32,
          33,
          34,
          35,
          36,
          37,
          38,
          39,
          40,
          41,
          42,
          43,
          44,
          45,
          46,
          47,
          48,
          49,
          50,
          51,
          52,
          53,
          54,
          55,
          56,
          57,
          58,
          59,
          60,
          61,
          62,
          63,
          64,
          65,
          66,
          67,
          68,
          69,
          70,
          71,
          72,
          73,
          74,
          75,
          76,
          77,
          78,
          79,
          80,
          81,
          82,
          83,
          84,
          85,
          86,
          87,
          88,
          89,
          90,
          91,
          92,
          93,
          94,
          95,
          96,
          97,
          98,
          99,
          100,
          101,
          102,
          103,
          104,
          105,
          106,
          107,
          108,
          109,
          110,
          111,
          112,
          113,
          114,
          115,
          116,
          117,
          118,
          119,
          120,
          121,
          122,
          123,
          124,
          125,
          126,
          127,
          128,
          129,
          130,
          131,
          132,
          133,
          134,
          135,
          136,
          137,
          138,
          139,
          140,
          141,
          142,
          143,
          144,
          145,
          146,
          147,
          148,
          149,
          150,
          151,
          152,
          153,
          154,
          155,
          156,
          157,
          158,
          159,
          160,
          161,
          162,
          163,
          164,
          165,
          166,
          167,
          168,
          169,
          170,
          171,
          172,
          173,
          174,
          175,
          176,
          177,
          178,
          179,
          180,
          181,
          182,
          183,
          184,
          185,
          186,
          187,
          188,
          189,
          190,
          191,
          192,
          193,
          194,
          195,
          196,
          197,
          198,
          199,
          200,
          201,
          202,
          203,
          204,
          205,
          206,
          207,
          208,
          209,
          210,
          211,
          212,
          213,
          214,
          215,
          216,
          217,
          218,
          219,
          220,
          221,
          222,
          223,
          224,
          225,
          226,
          227,
          228,
          229,
          230,
          231,
          232,
          233,
          234,
          235,
          236,
          237,
          238,
          239,
          240,
          241,
          242,
          243,
          244,
          245,
          246,
          247,
          248,
          249,
          250,
          251,
          252,
          253,
          254,
          255,
          256,
          257,
          258,
          259,
          260,
          261,
          262,
          263,
          264,
          265,
          266,
          267,
          268,
          269,
          270,
          271,
          272,
          273,
          274,
          275,
          276,
          277,
          278,
          279,
          280,
          281,
          282,
          283,
          284,
          285,
          286,
          287,
          288,
          289,
          290,
          291,
          292,
          293,
          294,
          295,
          296,
          297,
          298,
          299,
          300,
          301,
          302,
          303,
          304,
          305,
          306,
          307,
          308,
          309,
          310,
          311,
          312,
          313,
          314,
          315,
          316,
          317,
          318,
          319,
          320,
          321,
          322,
          323,
          324,
          325,
          326,
          327,
          328,
          329,
          330,
          331,
          332,
          333,
          334,
          335,
          336,
          337,
          338,
          339,
          340,
          341,
          342,
          343,
          344,
          345,
          346,
          347,
          348,
          349,
          350,
          351,
          352,
          353,
          354,
          355,
          356,
          357,
          358,
          359,
          360,
          361,
          362,
          363,
          364,
          365,
          366,
          367,
          368,
          369,
          370,
          371,
          372,
          373,
          374,
          375,
          376,
          377,
          378,
          379,
          380,
          381,
          382,
          383,
          384,
          385,
          386,
          387,
          388,
          389,
          390,
          391,
          392,
          393,
          394,
          395,
          396,
          397,
          398,
          399,
          400,
          401,
          402,
          403,
          404,
          405,
          406,
          407,
          408,
          409,
          410
        ],
        "AcquisitionTime": [
          "135640.172500",
          "135641.662500",
          "135643.152500",
          "135644.642500",
          "135646.132500",
          "135647.622500",
          "135649.112500",
          "135650.602500",
          "135652.092500",
          "135653.582500",
          "135655.072500",
          "135656.562500",
          "135658.052500",
          "135659.542500",
          "135701.032500",
          "135702.522500",
          "135704.012500",
          "135705.502500",
          "135706.992500",
          "135708.482500",
          "135709.972500",
          "135711.462500",
          "135712.952500",
          "135714.442500",
          "135715.932500",
          "135717.422500",
          "135718.912500",
          "135720.402500",
          "135721.892500",
          "135723.382500",
          "135724.872500",
          "135726.362500",
          "135727.852500",
          "135729.342500",
          "135730.832500",
          "135732.322500",
          "135733.812500",
          "135735.302500",
          "135736.792500",
          "135738.282500",
          "135739.772500",
          "135741.262500",
          "135742.752500",
          "135744.242500",
          "135745.732500",
          "135747.222500",
          "135748.712500",
          "135750.202500",
          "135751.692500",
          "135753.182500",
          "135754.672500",
          "135756.162500",
          "135757.652500",
          "135759.142500",
          "135800.632500",
          "135802.122500",
          "135803.612500",
          "135805.102500",
          "135806.592500",
          "135808.082500",
          "135809.572500",
          "135811.062500",
          "135812.552500",
          "135814.042500",
          "135815.532500",
          "135817.022500",
          "135818.512500",
          "135820.002500",
          "135821.492500",
          "135822.982500",
          "135824.472500",
          "135825.962500",
          "135827.452500",
          "135828.942500",
          "135830.432500",
          "135831.922500",
          "135833.412500",
          "135834.902500",
          "135836.392500",
          "135837.882500",
          "135839.372500",
          "135840.862500",
          "135842.352500",
          "135843.842500",
          "135845.332500",
          "135846.822500",
          "135848.312500",
          "135849.802500",
          "135851.292500",
          "135852.782500",
          "135854.272500",
          "135855.762500",
          "135857.252500",
          "135858.742500",
          "135900.232500",
          "135901.722500",
          "135903.212500",
          "135904.702500",
          "135906.192500",
          "135907.682500",
          "135909.172500",
          "135910.662500",
          "135912.152500",
          "135913.642500",
          "135915.132500",
          "135916.622500",
          "135918.112500",
          "135919.602500",
          "135921.092500",
          "135922.582500",
          "135924.072500",
          "135925.562500",
          "135927.052500",
          "135928.542500",
          "135930.032500",
          "135931.522500",
          "135933.012500",
          "135934.502500",
          "135935.992500",
          "135937.482500",
          "135938.972500",
          "135940.462500",
          "135941.952500",
          "135943.442500",
          "135944.932500",
          "135946.422500",
          "135947.912500",
          "135949.402500",
          "135950.892500",
          "135952.382500",
          "135953.872500",
          "135955.362500",
          "135956.852500",
          "135958.342500",
          "135959.832500",
          "140001.322500",
          "140002.812500",
          "140004.302500",
          "140005.792500",
          "140007.282500",
          "140008.772500",
          "140010.262500",
          "140011.752500",
          "140013.242500",
          "140014.732500",
          "140016.222500",
          "140017.712500",
          "140019.202500",
          "140020.692500",
          "140022.182500",
          "140023.672500",
          "140025.162500",
          "140026.652500",
          "140028.142500",
          "140029.632500",
          "140031.122500",
          "140032.612500",
          "140034.102500",
          "140035.592500",
          "140037.082500",
          "140038.572500",
          "140040.062500",
          "140041.552500",
          "140043.042500",
          "140044.532500",
          "140046.022500",
          "140047.512500",
          "140049.002500",
          "140050.492500",
          "140051.982500",
          "140053.472500",
          "140054.962500",
          "140056.452500",
          "140057.942500",
          "140059.432500",
          "140100.922500",
          "140102.412500",
          "140103.902500",
          "140105.392500",
          "140106.882500",
          "140108.372500",
          "140109.862500",
          "140111.352500",
          "140112.842500",
          "140114.332500",
          "140115.822500",
          "140117.312500",
          "140118.802500",
          "140120.292500",
          "140121.782500",
          "140123.272500",
          "140124.762500",
          "140126.252500",
          "140127.742500",
          "140129.232500",
          "140130.722500",
          "140132.212500",
          "140133.702500",
          "140135.192500",
          "140136.682500",
          "140138.172500",
          "140139.662500",
          "140141.152500",
          "140142.642500",
          "140144.132500",
          "140145.622500",
          "140147.112500",
          "140148.602500",
          "140150.092500",
          "140151.582500",
          "140153.072500",
          "140154.562500",
          "140156.052500",
          "140157.542500",
          "140159.032500",
          "140200.522500",
          "140202.012500",
          "140203.502500",
          "140204.992500",
          "140206.482500",
          "140207.972500",
          "140209.462500",
          "140210.952500",
          "140212.442500",
          "140213.932500",
          "140215.422500",
          "140216.912500",
          "140218.402500",
          "140219.892500",
          "140221.382500",
          "140222.872500",
          "140224.362500",
          "140225.852500",
          "140227.342500",
          "140228.832500",
          "140230.322500",
          "140231.812500",
          "140233.302500",
          "140234.792500",
          "140236.282500",
          "140237.772500",
          "140239.262500",
          "140240.752500",
          "140242.242500",
          "140243.732500",
          "140245.222500",
          "140246.712500",
          "140248.202500",
          "140249.692500",
          "140251.182500",
          "140252.672500",
          "140254.162500",
          "140255.652500",
          "140257.142500",
          "140258.632500",
          "140300.122500",
          "140301.612500",
          "140303.102500",
          "140304.592500",
          "140306.082500",
          "140307.572500",
          "140309.062500",
          "140310.552500",
          "140312.042500",
          "140313.532500",
          "140315.022500",
          "140316.512500",
          "140318.002500",
          "140319.492500",
          "140320.982500",
          "140322.472500",
          "140323.962500",
          "140325.452500",
          "140326.942500",
          "140328.432500",
          "140329.922500",
          "140331.412500",
          "140332.902500",
          "140334.392500",
          "140335.882500",
          "140337.372500",
          "140338.862500",
          "140340.352500",
          "140341.842500",
          "140343.332500",
          "140344.822500",
          "140346.312500",
          "140347.802500",
          "140349.292500",
          "140350.782500",
          "140352.272500",
          "140353.762500",
          "140355.252500",
          "140356.742500",
          "140358.232500",
          "140359.722500",
          "140401.212500",
          "140402.702500",
          "140404.192500",
          "140405.682500",
          "140407.172500",
          "140408.662500",
          "140410.152500",
          "140411.642500",
          "140413.132500",
          "140414.622500",
          "140416.112500",
          "140417.602500",
          "140419.092500",
          "140420.582500",
          "140422.072500",
          "140423.562500",
          "140425.052500",
          "140426.542500",
          "140428.032500",
          "140429.522500",
          "140431.012500",
          "140432.502500",
          "140433.992500",
          "140435.482500",
          "140436.972500",
          "140438.462500",
          "140439.952500",
          "140441.442500",
          "140442.932500",
          "140444.422500",
          "140445.912500",
          "140447.402500",
          "140448.892500",
          "140450.382500",
          "140451.872500",
          "140453.362500",
          "140454.852500",
          "140456.342500",
          "140457.832500",
          "140459.322500",
          "140500.812500",
          "140502.302500",
          "140503.792500",
          "140505.282500",
          "140506.772500",
          "140508.262500",
          "140509.752500",
          "140511.242500",
          "140512.732500",
          "140514.222500",
          "140515.712500",
          "140517.202500",
          "140518.692500",
          "140520.182500",
          "140521.672500",
          "140523.162500",
          "140524.652500",
          "140526.142500",
          "140527.632500",
          "140529.122500",
          "140530.612500",
          "140532.102500",
          "140533.592500",
          "140535.082500",
          "140536.572500",
          "140538.062500",
          "140539.552500",
          "140541.042500",
          "140542.532500",
          "140544.022500",
          "140545.512500",
          "140547.002500",
          "140548.492500",
          "140549.982500",
          "140551.472500",
          "140552.962500",
          "140554.452500",
          "140555.942500",
          "140557.432500",
          "140558.922500",
          "140600.412500",
          "140601.902500",
          "140603.392500",
          "140604.882500",
          "140606.372500",
          "140607.862500",
          "140609.352500",
          "140610.842500",
          "140612.332500",
          "140613.822500",
          "140615.312500",
          "140616.802500",
          "140618.292500",
          "140619.782500",
          "140621.272500",
          "140622.762500",
          "140624.252500",
          "140625.742500",
          "140627.232500",
          "140628.722500",
          "140630.212500",
          "140631.702500",
          "140633.192500",
          "140634.682500",
          "140636.172500",
          "140637.662500",
          "140639.152500",
          "140640.642500",
          "140642.132500",
          "140643.622500",
          "140645.112500",
          "140646.602500",
          "140648.092500",
          "140649.582500"
        ],
        "ContentTime": [
          "135804.329000",
          "135804.332000",
          "135804.341000",
          "135804.344000",
          "135804.347000",
          "135804.350000",
          "135804.352000",
          "135804.355000",
          "135804.358000",
          "135804.361000",
          "135804.364000",
          "135804.367000",
          "135804.370000",
          "135804.372000",
          "135804.380000",
          "135804.383000",
          "135804.386000",
          "135804.389000",
          "135804.391000",
          "135804.394000",
          "135804.397000",
          "135804.400000",
          "135804.403000",
          "135804.405000",
          "135804.408000",
          "135804.430000",
          "135804.433000",
          "135804.435000",
          "135804.442000",
          "135804.444000",
          "135804.448000",
          "135824.297000",
          "135824.300000",
          "135824.303000",
          "135824.305000",
          "135824.309000",
          "135824.313000",
          "135824.317000",
          "135824.321000",
          "135824.324000",
          "135824.327000",
          "135824.330000",
          "135824.333000",
          "135824.336000",
          "135824.339000",
          "135824.342000",
          "135824.345000",
          "135824.347000",
          "135824.350000",
          "135824.353000",
          "135824.356000",
          "135844.297000",
          "135844.300000",
          "135844.303000",
          "135844.306000",
          "135844.309000",
          "135844.311000",
          "135844.314000",
          "135844.317000",
          "135844.320000",
          "135844.322000",
          "135844.325000",
          "135844.328000",
          "135844.331000",
          "135844.334000",
          "135844.336000",
          "135844.339000",
          "135844.342000",
          "135844.345000",
          "135844.348000",
          "135844.350000",
          "135844.353000",
          "135904.297000",
          "135904.300000",
          "135904.303000",
          "135904.305000",
          "135904.308000",
          "135904.311000",
          "135904.314000",
          "135904.317000",
          "135904.319000",
          "135904.322000",
          "135904.329000",
          "135904.332000",
          "135904.334000",
          "135904.337000",
          "135904.340000",
          "135904.343000",
          "135904.346000",
          "135904.348000",
          "135904.351000",
          "135904.354000",
          "135944.297000",
          "135944.300000",
          "135944.303000",
          "135944.306000",
          "135944.309000",
          "135944.311000",
          "135944.314000",
          "135944.317000",
          "135944.320000",
          "135944.323000",
          "135944.325000",
          "135944.328000",
          "135944.331000",
          "135944.334000",
          "135944.337000",
          "135944.340000",
          "135944.343000",
          "135944.345000",
          "135944.348000",
          "135944.351000",
          "135944.354000",
          "135944.357000",
          "135944.359000",
          "135944.362000",
          "135944.365000",
          "135944.368000",
          "135944.371000",
          "135944.373000",
          "135944.376000",
          "135944.379000",
          "135944.382000",
          "140024.297000",
          "140024.300000",
          "140024.303000",
          "140024.306000",
          "140024.308000",
          "140024.311000",
          "140024.315000",
          "140024.318000",
          "140024.321000",
          "140024.323000",
          "140024.326000",
          "140024.329000",
          "140024.332000",
          "140024.335000",
          "140024.337000",
          "140024.340000",
          "140024.348000",
          "140024.350000",
          "140024.353000",
          "140024.356000",
          "140024.359000",
          "140024.362000",
          "140024.364000",
          "140024.367000",
          "140024.370000",
          "140024.373000",
          "140104.297000",
          "140104.300000",
          "140104.303000",
          "140104.305000",
          "140104.308000",
          "140104.311000",
          "140104.314000",
          "140104.317000",
          "140104.319000",
          "140104.322000",
          "140104.325000",
          "140104.328000",
          "140104.331000",
          "140104.334000",
          "140104.336000",
          "140104.339000",
          "140104.342000",
          "140104.345000",
          "140104.348000",
          "140104.350000",
          "140104.353000",
          "140104.356000",
          "140104.359000",
          "140104.362000",
          "140104.371000",
          "140104.374000",
          "140104.377000",
          "140144.297000",
          "140144.300000",
          "140144.303000",
          "140144.305000",
          "140144.308000",
          "140144.311000",
          "140144.314000",
          "140144.316000",
          "140144.319000",
          "140144.322000",
          "140144.325000",
          "140144.328000",
          "140144.330000",
          "140144.333000",
          "140144.336000",
          "140144.339000",
          "140144.342000",
          "140144.344000",
          "140144.347000",
          "140144.350000",
          "140144.353000",
          "140144.356000",
          "140144.358000",
          "140144.361000",
          "140144.364000",
          "140144.367000",
          "140144.370000",
          "140224.297000",
          "140224.300000",
          "140224.309000",
          "140224.312000",
          "140224.314000",
          "140224.317000",
          "140224.320000",
          "140224.323000",
          "140224.326000",
          "140224.329000",
          "140224.332000",
          "140224.334000",
          "140224.337000",
