{
  "aor": 0.000596,
  "aqi": 0.01118831275609756,
  "bids_meta": {
    "AcquisitionMatrixPE": 104,
    "AcquisitionNumber": 1,
    "AcquisitionTime": "14:17:59.420000",
    "BandwidthPerPixelPhaseEncode": 17.17,
    "BaseResolution": 104,
    "BodyPartExamined": "BRAIN",
    "CogAtlasID": "trm_4c898da401420",
    "ConsistencyInfo": "N4_VE11C_LATEST_20160120",
    "ConversionSoftware": "dcm2niix",
    "ConversionSoftwareVersion": "v1.0.20171215 (OpenJPEG build) GCC7.3.0",
    "DerivedVendorReportedEchoSpacing": 0.000560011,
    "DeviceSerialNumber": "167006",
    "DwellTime": 2.1e-06,
    "EchoTime": 0.037,
    "EchoTrainLength": 104,
    "EffectiveEchoSpacing": 0.000560011,
    "FlipAngle": 52,
    "ImageComments": "Unaliased_MB4_PE3_LB",
    "ImageOrientationPatientDICOM": [
      0.999359,
      0.0312091,
      -0.0175142,
      -0.0357715,
      0.885793,
      -0.4627
    ],
    "ImageType": [
      "ORIGINAL",
      "PRIMARY",
      "M",
      "MB",
      "ND",
      "MOSAIC"
    ],
    "InPlanePhaseEncodingDirectionDICOM": "COL",
    "InstitutionAddress": "Chemin_Queen-Mary_4565_Montreal_District_CA_H3W_1W5",
    "InstitutionName": "IUGM",
    "InstitutionalDepartmentName": "Department",
    "MRAcquisitionType": "2D",
    "MagneticFieldStrength": 3,
    "Manufacturer": "Siemens",
    "ManufacturersModelName": "Prisma_fit",
    "Modality": "MR",
    "MultibandAccelerationFactor": 4,
    "PartialFourier": 1,
    "PatientPosition": "HFS",
    "PercentPhaseFOV": 100,
    "PhaseEncodingDirection": "j-",
    "PhaseEncodingSteps": 104,
    "PhaseResolution": 1,
    "PixelBandwidth": 2290,
    "ProcedureStepDescription": "video5_generic",
    "ProtocolName": "func_task-figures4",
    "PulseSequenceDetails": "%CustomerSeq%_cmrr_mbep2d_bold",
    "ReceiveCoilActiveElements": "HC1-7;NC1,2",
    "ReceiveCoilName": "HeadNeck_64",
    "ReconMatrixPE": 104,
    "RepetitionTime": 1.49,
    "SAR": 0.0361385,
    "ScanOptions": "FS",
    "ScanningSequence": "EP",
    "SequenceName": "epfid2d1_104",
    "SequenceVariant": "SK_SS",
    "SeriesDescription": "func_task-figures4",
    "SeriesNumber": 13,
    "ShimSetting": [
      623,
      -7176,
      -8915,
      377,
      5,
      -175,
      31,
      -15
    ],
    "SliceThickness": 2,
    "SliceTiming": [
      0,
      0.7825,
      0.0975,
      0.88,
      0.195,
      0.9775,
      0.2925,
      1.0775,
      0.39,
      1.175,
      0.49,
      1.2725,
      0.5875,
      1.37,
      0.685,
      0,
      0.7825,
      0.0975,
      0.88,
      0.195,
      0.9775,
      0.2925,
      1.0775,
      0.39,
      1.175,
      0.49,
      1.2725,
      0.5875,
      1.37,
      0.685,
      0,
      0.7825,
      0.0975,
      0.88,
      0.195,
      0.9775,
      0.2925,
      1.0775,
      0.39,
      1.175,
      0.49,
      1.2725,
      0.5875,
      1.37,
      0.685,
      0,
      0.7825,
      0.0975,
      0.88,
      0.195,
      0.9775,
      0.2925,
      1.0775,
      0.39,
      1.175,
      0.49,
      1.2725,
      0.5875,
      1.37,
      0.685
    ],
    "SoftwareVersions": "syngo_MR_E11",
    "SpacingBetweenSlices": 2,
    "StationName": "MRC35049",
    "TaskName": "figures04",
    "TotalReadoutTime": 0.0576811,
    "TxRefAmp": 250.048,
    "dataset": "<unset>",
    "dcmmeta_affine": [
      [
        -1.9987188577651978,
        -0.07154308259487152,
        -0.002147085964679718,
        109.37051391601562
      ],
      [
        -0.06241818144917488,
        1.7715859413146973,
        -0.9260600805282593,
        -58.3380241394043
      ],
      [
        -0.035028472542762756,
        0.9253998398780823,
        1.77268385887146,
        -115.20152282714844
      ],
      [
        0.0,
        0.0,
        0.0,
        1.0
      ]
    ],
    "dcmmeta_reorient_transform": [
      [
        0.0,
        -1.0,
        0.0,
        103.0
      ],
      [
        1.0,
        0.0,
        0.0,
        0.0
      ],
      [
        0.0,
        0.0,
        1.0,
        0.0
      ],
      [
        0.0,
        0.0,
        0.0,
        1.0
      ]
    ],
    "dcmmeta_shape": [
      104,
      104,
      60,
      410
    ],
    "dcmmeta_slice_dim": 2,
    "dcmmeta_version": 0.6,
    "global": {
      "const": {
        "AcquisitionMatrix": [
          104,
          0,
          0,
          104
        ],
        "AngioFlag": "N",
        "BitsAllocated": 16,
        "BitsStored": 16,
        "BodyPartExamined": "BRAIN",
        "Columns": 832,
        "EchoNumbers": 1,
        "EchoTime": 37.0,
        "EchoTrainLength": 104,
        "FlipAngle": 52.0,
        "HighBit": 15,
        "ImageOrientationPatient": [
          0.99935941694574,
          0.03120909013322,
          -0.0175142357791,
          -0.0357715427022,
          0.88579296241332,
          -0.4626999291893
        ],
        "ImagePositionPatient": [
          -803.49354694897,
          -791.71281854331,
          329.7105714231
        ],
        "ImageType": [
          "ORIGINAL",
          "PRIMARY",
          "M",
          "MB",
          "ND",
          "MOSAIC"
        ],
        "ImagedNucleus": "1H",
        "ImagingFrequency": 123.259453,
        "InPlanePhaseEncodingDirection": "COL",
        "MRAcquisitionType": "2D",
        "MagneticFieldStrength": 3.0,
        "Manufacturer": "SIEMENS",
        "ManufacturerModelName": "Prisma_fit",
        "Modality": "MR",
        "NumberOfAverages": 1.0,
        "NumberOfPhaseEncodingSteps": 104,
        "PercentPhaseFieldOfView": 100.0,
        "PercentSampling": 100.0,
        "PerformedProcedureStepStartTime": "132751.036000",
        "PhotometricInterpretation": "MONOCHROME2",
        "PixelBandwidth": 2290.0,
        "PixelRepresentation": 0,
        "PixelSpacing": [
          2.0,
          2.0
        ],
        "ProtocolName": "func_task-figures4",
        "RepetitionTime": 1490.0,
        "Rows": 832,
        "SAR": 0.03613854447976,
        "SamplesPerPixel": 1,
        "ScanOptions": "FS",
        "ScanningSequence": "EP",
        "SequenceName": "epfid2d1_104",
        "SequenceVariant": [
          "SK",
          "SS"
        ],
        "SeriesDescription": "func_task-figures4",
        "SeriesNumber": 13,
        "SeriesTime": "141917.683000",
        "SliceLocation": -75.213098927185,
        "SliceThickness": 2.0,
        "SmallestImagePixelValue": 0,
        "SoftwareVersions": "syngo MR E11",
        "SpacingBetweenSlices": 1.9999999963416,
        "SpecificCharacterSet": "ISO_IR 100",
        "StudyID": "1",
        "StudyTime": "132750.940000",
        "TransmitCoilName": "Body",
        "VariableFlipAngleFlag": "N",
        "WindowCenterWidthExplanation": "Algo1",
        "dBdt": 0.0
      },
      "slices": {}
    },
    "modality": "bold",
    "run_id": 2,
    "session_id": "010",
    "subject_id": "02",
    "task_id": "figures04",
    "time": {
      "samples": {
        "AcquisitionNumber": [
          1,
          2,
          3,
          4,
          5,
          6,
          7,
          8,
          9,
          10,
          11,
          12,
          13,
          14,
          15,
          16,
          17,
          18,
          19,
          20,
          21,
          22,
          23,
          24,
          25,
          26,
          27,
          28,
          29,
          30,
          31,
          32,
          33,
          34,
          35,
          36,
          37,
          38,
          39,
          40,
          41,
          42,
          43,
          44,
          45,
          46,
          47,
          48,
          49,
          50,
          51,
          52,
          53,
          54,
          55,
          56,
          57,
          58,
          59,
          60,
          61,
          62,
          63,
          64,
          65,
          66,
          67,
          68,
          69,
          70,
          71,
          72,
          73,
          74,
          75,
          76,
          77,
          78,
          79,
          80,
          81,
          82,
          83,
          84,
          85,
          86,
          87,
          88,
          89,
          90,
          91,
          92,
          93,
          94,
          95,
          96,
          97,
          98,
          99,
          100,
          101,
          102,
          103,
          104,
          105,
          106,
          107,
          108,
          109,
          110,
          111,
          112,
          113,
          114,
          115,
          116,
          117,
          118,
          119,
          120,
          121,
          122,
          123,
          124,
          125,
          126,
          127,
          128,
          129,
          130,
          131,
          132,
          133,
          134,
          135,
          136,
          137,
          138,
          139,
          140,
          141,
          142,
          143,
          144,
          145,
          146,
          147,
          148,
          149,
          150,
          151,
          152,
          153,
          154,
          155,
          156,
          157,
          158,
          159,
          160,
          161,
          162,
          163,
          164,
          165,
          166,
          167,
          168,
          169,
          170,
          171,
          172,
          173,
          174,
          175,
          176,
          177,
          178,
          179,
          180,
          181,
          182,
          183,
          184,
          185,
          186,
          187,
          188,
          189,
          190,
          191,
          192,
          193,
          194,
          195,
          196,
          197,
          198,
          199,
          200,
          201,
          202,
          203,
          204,
          205,
          206,
          207,
          208,
          209,
          210,
          211,
          212,
          213,
          214,
          215,
          216,
          217,
          218,
          219,
          220,
          221,
          222,
          223,
          224,
          225,
          226,
          227,
          228,
          229,
          230,
          231,
          232,
          233,
          234,
          235,
          236,
          237,
          238,
          239,
          240,
          241,
          242,
          243,
          244,
          245,
          246,
          247,
          248,
          249,
          250,
          251,
          252,
          253,
          254,
          255,
          256,
          257,
          258,
          259,
          260,
          261,
          262,
          263,
          264,
          265,
          266,
          267,
          268,
          269,
          270,
          271,
          272,
          273,
          274,
          275,
          276,
          277,
          278,
          279,
          280,
          281,
          282,
          283,
          284,
          285,
          286,
          287,
          288,
          289,
          290,
          291,
          292,
          293,
          294,
          295,
          296,
          297,
          298,
          299,
          300,
          301,
          302,
          303,
          304,
          305,
          306,
          307,
          308,
          309,
          310,
          311,
          312,
          313,
          314,
          315,
          316,
          317,
          318,
          319,
          320,
          321,
          322,
          323,
          324,
          325,
          326,
          327,
          328,
          329,
          330,
          331,
          332,
          333,
          334,
          335,
          336,
          337,
          338,
          339,
          340,
          341,
          342,
          343,
          344,
          345,
          346,
          347,
          348,
          349,
          350,
          351,
          352,
          353,
          354,
          355,
          356,
          357,
          358,
          359,
          360,
          361,
          362,
          363,
          364,
          365,
          366,
          367,
          368,
          369,
          370,
          371,
          372,
          373,
          374,
          375,
          376,
          377,
          378,
          379,
          380,
          381,
          382,
          383,
          384,
          385,
          386,
          387,
          388,
          389,
          390,
          391,
          392,
          393,
          394,
          395,
          396,
          397,
          398,
          399,
          400,
          401,
          402,
          403,
          404,
          405,
          406,
          407,
          408,
          409,
          410
        ],
        "AcquisitionTime": [
          "141759.420000",
          "141800.910000",
          "141802.400000",
          "141803.890000",
          "141805.380000",
          "141806.870000",
          "141808.360000",
          "141809.850000",
          "141811.340000",
          "141812.830000",
          "141814.320000",
          "141815.810000",
          "141817.300000",
          "141818.790000",
          "141820.280000",
          "141821.770000",
          "141823.260000",
          "141824.750000",
          "141826.240000",
          "141827.730000",
          "141829.220000",
          "141830.710000",
          "141832.200000",
          "141833.690000",
          "141835.180000",
          "141836.670000",
          "141838.160000",
          "141839.650000",
          "141841.140000",
          "141842.630000",
          "141844.120000",
          "141845.610000",
          "141847.100000",
          "141848.590000",
          "141850.080000",
          "141851.570000",
          "141853.060000",
          "141854.550000",
          "141856.040000",
          "141857.530000",
          "141859.020000",
          "141900.510000",
          "141902.000000",
          "141903.490000",
          "141904.980000",
          "141906.470000",
          "141907.960000",
          "141909.450000",
          "141910.940000",
          "141912.430000",
          "141913.920000",
          "141915.410000",
          "141916.900000",
          "141918.390000",
          "141919.880000",
          "141921.370000",
          "141922.860000",
          "141924.350000",
          "141925.840000",
          "141927.330000",
          "141928.820000",
          "141930.310000",
          "141931.800000",
          "141933.290000",
          "141934.780000",
          "141936.270000",
          "141937.760000",
          "141939.250000",
          "141940.740000",
          "141942.230000",
          "141943.720000",
          "141945.210000",
          "141946.700000",
          "141948.190000",
          "141949.680000",
          "141951.170000",
          "141952.660000",
          "141954.150000",
          "141955.640000",
          "141957.130000",
          "141958.620000",
          "142000.110000",
          "142001.600000",
          "142003.090000",
          "142004.580000",
          "142006.070000",
          "142007.560000",
          "142009.050000",
          "142010.540000",
          "142012.030000",
          "142013.520000",
          "142015.010000",
          "142016.500000",
          "142017.990000",
          "142019.480000",
          "142020.970000",
          "142022.460000",
          "142023.950000",
          "142025.440000",
          "142026.930000",
          "142028.420000",
          "142029.910000",
          "142031.400000",
          "142032.890000",
          "142034.380000",
          "142035.870000",
          "142037.360000",
          "142038.850000",
          "142040.340000",
          "142041.830000",
          "142043.320000",
          "142044.810000",
          "142046.300000",
          "142047.790000",
          "142049.280000",
          "142050.770000",
          "142052.260000",
          "142053.750000",
          "142055.240000",
          "142056.730000",
          "142058.220000",
          "142059.710000",
          "142101.200000",
          "142102.690000",
          "142104.180000",
          "142105.670000",
          "142107.160000",
          "142108.650000",
          "142110.140000",
          "142111.630000",
          "142113.120000",
          "142114.610000",
          "142116.100000",
          "142117.590000",
          "142119.080000",
          "142120.570000",
          "142122.060000",
          "142123.550000",
          "142125.040000",
          "142126.530000",
          "142128.020000",
          "142129.510000",
          "142131.000000",
          "142132.490000",
          "142133.980000",
          "142135.470000",
          "142136.960000",
          "142138.450000",
          "142139.940000",
          "142141.430000",
          "142142.920000",
          "142144.410000",
          "142145.900000",
          "142147.390000",
          "142148.880000",
          "142150.370000",
          "142151.860000",
          "142153.350000",
          "142154.840000",
          "142156.330000",
          "142157.820000",
          "142159.310000",
          "142200.800000",
          "142202.290000",
          "142203.780000",
          "142205.270000",
          "142206.760000",
          "142208.250000",
          "142209.740000",
          "142211.230000",
          "142212.720000",
          "142214.210000",
          "142215.700000",
          "142217.190000",
          "142218.680000",
          "142220.170000",
          "142221.660000",
          "142223.150000",
          "142224.640000",
          "142226.130000",
          "142227.620000",
          "142229.110000",
          "142230.600000",
          "142232.090000",
          "142233.580000",
          "142235.070000",
          "142236.560000",
          "142238.050000",
          "142239.540000",
          "142241.030000",
          "142242.520000",
          "142244.010000",
          "142245.500000",
          "142246.990000",
          "142248.480000",
          "142249.970000",
          "142251.460000",
          "142252.950000",
          "142254.440000",
          "142255.930000",
          "142257.420000",
          "142258.910000",
          "142300.400000",
          "142301.890000",
          "142303.380000",
          "142304.870000",
          "142306.360000",
          "142307.850000",
          "142309.340000",
          "142310.830000",
          "142312.320000",
          "142313.810000",
          "142315.300000",
          "142316.790000",
          "142318.280000",
          "142319.770000",
          "142321.260000",
          "142322.750000",
          "142324.240000",
          "142325.730000",
          "142327.220000",
          "142328.710000",
          "142330.200000",
          "142331.690000",
          "142333.180000",
          "142334.670000",
          "142336.160000",
          "142337.650000",
          "142339.140000",
          "142340.630000",
          "142342.120000",
          "142343.610000",
          "142345.100000",
          "142346.590000",
          "142348.080000",
          "142349.570000",
          "142351.060000",
          "142352.550000",
          "142354.040000",
          "142355.530000",
          "142357.020000",
          "142358.510000",
          "142400.000000",
          "142401.490000",
          "142402.980000",
          "142404.470000",
          "142405.960000",
          "142407.450000",
          "142408.940000",
          "142410.430000",
          "142411.920000",
          "142413.410000",
          "142414.900000",
          "142416.390000",
          "142417.880000",
          "142419.370000",
          "142420.860000",
          "142422.350000",
          "142423.840000",
          "142425.330000",
          "142426.820000",
          "142428.310000",
          "142429.800000",
          "142431.290000",
          "142432.780000",
          "142434.270000",
          "142435.760000",
          "142437.250000",
          "142438.740000",
          "142440.230000",
          "142441.720000",
          "142443.210000",
          "142444.700000",
          "142446.190000",
          "142447.680000",
          "142449.170000",
          "142450.660000",
          "142452.150000",
          "142453.640000",
          "142455.130000",
          "142456.620000",
          "142458.110000",
          "142459.600000",
          "142501.090000",
          "142502.580000",
          "142504.070000",
          "142505.560000",
          "142507.050000",
          "142508.540000",
          "142510.030000",
          "142511.520000",
          "142513.010000",
          "142514.500000",
          "142515.990000",
          "142517.480000",
          "142518.970000",
          "142520.460000",
          "142521.950000",
          "142523.440000",
          "142524.930000",
          "142526.420000",
          "142527.910000",
          "142529.400000",
          "142530.890000",
          "142532.380000",
          "142533.870000",
          "142535.360000",
          "142536.850000",
          "142538.340000",
          "142539.830000",
          "142541.320000",
          "142542.810000",
          "142544.300000",
          "142545.790000",
          "142547.280000",
          "142548.770000",
          "142550.260000",
          "142551.750000",
          "142553.240000",
          "142554.730000",
          "142556.220000",
          "142557.710000",
          "142559.200000",
          "142600.690000",
          "142602.180000",
          "142603.670000",
          "142605.160000",
          "142606.650000",
          "142608.140000",
          "142609.630000",
          "142611.120000",
          "142612.610000",
          "142614.100000",
          "142615.590000",
          "142617.080000",
          "142618.570000",
          "142620.060000",
          "142621.550000",
          "142623.040000",
          "142624.530000",
          "142626.020000",
          "142627.510000",
          "142629.000000",
          "142630.490000",
          "142631.980000",
          "142633.470000",
          "142634.960000",
          "142636.450000",
          "142637.940000",
          "142639.430000",
          "142640.920000",
          "142642.410000",
          "142643.900000",
          "142645.390000",
          "142646.880000",
          "142648.370000",
          "142649.860000",
          "142651.350000",
          "142652.840000",
          "142654.330000",
          "142655.820000",
          "142657.310000",
          "142658.800000",
          "142700.290000",
          "142701.780000",
          "142703.270000",
          "142704.760000",
          "142706.250000",
          "142707.740000",
          "142709.230000",
          "142710.720000",
          "142712.210000",
          "142713.700000",
          "142715.190000",
          "142716.680000",
          "142718.170000",
          "142719.660000",
          "142721.150000",
          "142722.640000",
          "142724.130000",
          "142725.620000",
          "142727.110000",
          "142728.600000",
          "142730.090000",
          "142731.580000",
          "142733.070000",
          "142734.560000",
          "142736.050000",
          "142737.540000",
          "142739.030000",
          "142740.520000",
          "142742.010000",
          "142743.500000",
          "142744.990000",
          "142746.480000",
          "142747.970000",
          "142749.460000",
          "142750.950000",
          "142752.440000",
          "142753.930000",
          "142755.420000",
          "142756.910000",
          "142758.400000",
          "142759.890000",
          "142801.380000",
          "142802.870000",
          "142804.360000",
          "142805.850000",
          "142807.340000",
          "142808.830000"
        ],
        "ContentTime": [
          "141917.686000",
          "141917.689000",
          "141917.692000",
          "141917.695000",
          "141917.698000",
          "141917.700000",
          "141917.703000",
          "141917.716000",
          "141917.719000",
          "141917.722000",
          "141917.731000",
          "141917.734000",
          "141917.737000",
          "141917.740000",
          "141917.742000",
          "141917.745000",
          "141917.754000",
          "141917.757000",
          "141917.759000",
          "141917.762000",
          "141917.765000",
          "141937.660000",
          "141937.663000",
          "141937.666000",
          "141937.669000",
          "141937.673000",
          "141937.676000",
          "141937.679000",
          "141937.682000",
          "141937.686000",
          "141937.689000",
          "141937.692000",
          "141937.695000",
          "141937.698000",
          "141937.701000",
          "141937.704000",
          "141937.707000",
          "141937.709000",
          "141937.712000",
          "141937.715000",
          "141937.718000",
          "141957.661000",
          "141957.664000",
          "141957.667000",
          "141957.669000",
          "141957.672000",
          "141957.675000",
          "141957.678000",
          "141957.680000",
          "141957.683000",
          "141957.686000",
          "141957.689000",
          "141957.691000",
          "141957.694000",
          "141957.697000",
          "141957.700000",
          "141957.703000",
          "141957.706000",
          "141957.708000",
          "141957.711000",
          "141957.714000",
          "141957.717000",
          "142017.660000",
          "142017.663000",
          "142017.666000",
          "142017.669000",
          "142017.671000",
          "142017.674000",
          "142017.677000",
          "142017.680000",
          "142017.683000",
          "142017.685000",
          "142017.688000",
          "142017.691000",
          "142017.694000",
          "142017.697000",
          "142017.699000",
          "142017.702000",
          "142017.705000",
          "142017.708000",
          "142017.711000",
          "142017.713000",
          "142037.660000",
          "142037.663000",
          "142037.672000",
          "142037.675000",
          "142037.677000",
          "142037.680000",
          "142037.683000",
          "142037.686000",
          "142037.689000",
          "142037.692000",
          "142037.695000",
          "142037.698000",
          "142037.701000",
          "142037.704000",
          "142037.707000",
          "142037.709000",
          "142037.712000",
          "142037.715000",
          "142037.718000",
          "142037.721000",
          "142117.660000",
          "142117.663000",
          "142117.670000",
          "142117.673000",
          "142117.676000",
          "142117.679000",
          "142117.682000",
          "142117.685000",
          "142117.687000",
          "142117.690000",
          "142117.693000",
          "142117.696000",
          "142117.699000",
          "142117.701000",
          "142117.704000",
          "142117.707000",
          "142117.710000",
          "142117.713000",
          "142117.715000",
          "142117.718000",
          "142117.721000",
          "142117.724000",
          "142117.727000",
          "142117.730000",
          "142117.732000",
          "142117.735000",
          "142117.738000",
          "142117.741000",
          "142117.744000",
          "142117.746000",
          "142157.660000",
          "142157.663000",
          "142157.666000",
          "142157.669000",
          "142157.672000",
          "142157.675000",
          "142157.678000",
          "142157.680000",
          "142157.683000",
          "142157.692000",
          "142157.695000",
          "142157.698000",
          "142157.701000",
          "142157.704000",
          "142157.707000",
          "142157.710000",
          "142157.712000",
          "142157.715000",
          "142157.718000",
          "142157.721000",
          "142157.724000",
          "142157.727000",
          "142157.730000",
          "142157.733000",
          "142157.736000",
          "142157.739000",
          "142157.742000",
          "142237.660000",
          "142237.663000",
          "142237.666000",
          "142237.669000",
          "142237.672000",
          "142237.674000",
          "142237.677000",
          "142237.680000",
          "142237.683000",
          "142237.686000",
          "142237.688000",
          "142237.691000",
          "142237.694000",
          "142237.697000",
          "142237.700000",
          "142237.702000",
          "142237.705000",
          "142237.708000",
          "142237.711000",
          "142237.714000",
          "142237.716000",
          "142237.719000",
          "142237.722000",
          "142237.725000",
          "142237.728000",
          "142237.730000",
          "142237.733000",
          "142317.660000",
          "142317.663000",
          "142317.666000",
          "142317.669000",
          "142317.672000",
          "142317.675000",
          "142317.677000",
          "142317.681000",
          "142317.686000",
          "142317.689000",
          "142317.692000",
          "142317.695000",
          "142317.698000",
          "142317.701000",
          "142317.704000",
          "142317.707000",
          "142317.710000",
          "142317.713000",
          "142317.716000",
          "142317.719000",
          "142317.722000",
          "142317.724000",
          "142317.727000",
          "142317.730000",
          "142317.733000",
          "142317.736000",
          "142357.660000",
          "142357.663000",
          "142357.666000",
          "142357.669000",
          "142357.672000",
