{
  "aor": 0.00045174019607843133,
  "aqi": 0.006519598480392157,
  "bids_meta": {
    "AcquisitionMatrixPE": 104,
    "AcquisitionNumber": 1,
    "AcquisitionTime": "13:46:1.055000",
    "BandwidthPerPixelPhaseEncode": 17.17,
    "BaseResolution": 104,
    "BodyPartExamined": "BRAIN",
    "CogAtlasID": "trm_4c898da401420",
    "ConsistencyInfo": "N4_VE11C_LATEST_20160120",
    "ConversionSoftware": "dcm2niix",
    "ConversionSoftwareVersion": "v1.0.20171215 (OpenJPEG build) GCC7.3.0",
    "DerivedVendorReportedEchoSpacing": 0.000560011,
    "DeviceSerialNumber": "167006",
    "DwellTime": 2.1e-06,
    "EchoTime": 0.037,
    "EchoTrainLength": 104,
    "EffectiveEchoSpacing": 0.000560011,
    "FlipAngle": 52,
    "ImageComments": "Unaliased_MB4_PE3_LB",
    "ImageOrientationPatientDICOM": [
      0.999359,
      0.0312091,
      -0.0175142,
      -0.0357715,
      0.885793,
      -0.4627
    ],
    "ImageType": [
      "ORIGINAL",
      "PRIMARY",
      "M",
      "MB",
      "ND",
      "MOSAIC"
    ],
    "InPlanePhaseEncodingDirectionDICOM": "COL",
    "InstitutionAddress": "Chemin_Queen-Mary_4565_Montreal_District_CA_H3W_1W5",
    "InstitutionName": "IUGM",
    "InstitutionalDepartmentName": "Department",
    "MRAcquisitionType": "2D",
    "MagneticFieldStrength": 3,
    "Manufacturer": "Siemens",
    "ManufacturersModelName": "Prisma_fit",
    "Modality": "MR",
    "MultibandAccelerationFactor": 4,
    "PartialFourier": 1,
    "PatientPosition": "HFS",
    "PercentPhaseFOV": 100,
    "PhaseEncodingDirection": "j-",
    "PhaseEncodingSteps": 104,
    "PhaseResolution": 1,
    "PixelBandwidth": 2290,
    "ProcedureStepDescription": "video5_generic",
    "ProtocolName": "func_task-figures1",
    "PulseSequenceDetails": "%CustomerSeq%_cmrr_mbep2d_bold",
    "ReceiveCoilActiveElements": "HC1-7;NC1,2",
    "ReceiveCoilName": "HeadNeck_64",
    "ReconMatrixPE": 104,
    "RepetitionTime": 1.49,
    "SAR": 0.0361385,
    "ScanOptions": "FS",
    "ScanningSequence": "EP",
    "SequenceName": "epfid2d1_104",
    "SequenceVariant": "SK_SS",
    "SeriesDescription": "func_task-figures1",
    "SeriesNumber": 7,
    "ShimSetting": [
      623,
      -7176,
      -8915,
      377,
      5,
      -175,
      31,
      -15
    ],
    "SliceThickness": 2,
    "SliceTiming": [
      0,
      0.785,
      0.1,
      0.8825,
      0.1975,
      0.98,
      0.295,
      1.08,
      0.3925,
      1.1775,
      0.49,
      1.275,
      0.59,
      1.3725,
      0.6875,
      0,
      0.785,
      0.1,
      0.8825,
      0.1975,
      0.98,
      0.295,
      1.08,
      0.3925,
      1.1775,
      0.49,
      1.275,
      0.59,
      1.3725,
      0.6875,
      0,
      0.785,
      0.1,
      0.8825,
      0.1975,
      0.98,
      0.295,
      1.08,
      0.3925,
      1.1775,
      0.49,
      1.275,
      0.59,
      1.3725,
      0.6875,
      0,
      0.785,
      0.1,
      0.8825,
      0.1975,
      0.98,
      0.295,
      1.08,
      0.3925,
      1.1775,
      0.49,
      1.275,
      0.59,
      1.3725,
      0.6875
    ],
    "SoftwareVersions": "syngo_MR_E11",
    "SpacingBetweenSlices": 2,
    "StationName": "MRC35049",
    "TaskName": "figures01",
    "TotalReadoutTime": 0.0576811,
    "TxRefAmp": 250.048,
    "dataset": "<unset>",
    "dcmmeta_affine": [
      [
        -1.9987188577651978,
        -0.07154308259487152,
        -0.002147085964679718,
        109.37051391601562
      ],
      [
        -0.06241818144917488,
        1.7715859413146973,
        -0.9260600805282593,
        -58.3380241394043
      ],
      [
        -0.035028472542762756,
        0.9253998398780823,
        1.77268385887146,
        -115.20152282714844
      ],
      [
        0.0,
        0.0,
        0.0,
        1.0
      ]
    ],
    "dcmmeta_reorient_transform": [
      [
        0.0,
        -1.0,
        0.0,
        103.0
      ],
      [
        1.0,
        0.0,
        0.0,
        0.0
      ],
      [
        0.0,
        0.0,
        1.0,
        0.0
      ],
      [
        0.0,
        0.0,
        0.0,
        1.0
      ]
    ],
    "dcmmeta_shape": [
      104,
      104,
      60,
      410
    ],
    "dcmmeta_slice_dim": 2,
    "dcmmeta_version": 0.6,
    "global": {
      "const": {
        "AcquisitionMatrix": [
          104,
          0,
          0,
          104
        ],
        "AngioFlag": "N",
        "BitsAllocated": 16,
        "BitsStored": 16,
        "BodyPartExamined": "BRAIN",
        "Columns": 832,
        "EchoNumbers": 1,
        "EchoTime": 37.0,
        "EchoTrainLength": 104,
        "FlipAngle": 52.0,
        "HighBit": 15,
        "ImageOrientationPatient": [
          0.99935941694574,
          0.03120909013322,
          -0.0175142357791,
          -0.0357715427022,
          0.88579296241332,
          -0.4626999291893
        ],
        "ImagePositionPatient": [
          -803.49354694897,
          -791.71281854331,
          329.7105714231
        ],
        "ImageType": [
          "ORIGINAL",
          "PRIMARY",
          "M",
          "MB",
          "ND",
          "MOSAIC"
        ],
        "ImagedNucleus": "1H",
        "ImagingFrequency": 123.259429,
        "InPlanePhaseEncodingDirection": "COL",
        "MRAcquisitionType": "2D",
        "MagneticFieldStrength": 3.0,
        "Manufacturer": "SIEMENS",
        "ManufacturerModelName": "Prisma_fit",
        "Modality": "MR",
        "NumberOfAverages": 1.0,
        "NumberOfPhaseEncodingSteps": 104,
        "PercentPhaseFieldOfView": 100.0,
        "PercentSampling": 100.0,
        "PerformedProcedureStepStartTime": "132751.036000",
        "PhotometricInterpretation": "MONOCHROME2",
        "PixelBandwidth": 2290.0,
        "PixelRepresentation": 0,
        "PixelSpacing": [
          2.0,
          2.0
        ],
        "ProtocolName": "func_task-figures1",
        "RepetitionTime": 1490.0,
        "Rows": 832,
        "SAR": 0.03613854447976,
        "SamplesPerPixel": 1,
        "ScanOptions": "FS",
        "ScanningSequence": "EP",
        "SequenceName": "epfid2d1_104",
        "SequenceVariant": [
          "SK",
          "SS"
        ],
        "SeriesDescription": "func_task-figures1",
        "SeriesNumber": 7,
        "SeriesTime": "134717.691000",
        "SliceLocation": -75.213098927185,
        "SliceThickness": 2.0,
        "SmallestImagePixelValue": 0,
        "SoftwareVersions": "syngo MR E11",
        "SpacingBetweenSlices": 1.9999999963416,
        "SpecificCharacterSet": "ISO_IR 100",
        "StudyID": "1",
        "StudyTime": "132750.940000",
        "TransmitCoilName": "Body",
        "VariableFlipAngleFlag": "N",
        "WindowCenterWidthExplanation": "Algo1",
        "dBdt": 0.0
      },
      "slices": {}
    },
    "modality": "bold",
    "run_id": 2,
    "session_id": "010",
    "subject_id": "02",
    "task_id": "figures01",
    "time": {
      "samples": {
        "AcquisitionNumber": [
          1,
          2,
          3,
          4,
          5,
          6,
          7,
          8,
          9,
          10,
          11,
          12,
          13,
          14,
          15,
          16,
          17,
          18,
          19,
          20,
          21,
          22,
          23,
          24,
          25,
          26,
          27,
          28,
          29,
          30,
          31,
          32,
          33,
          34,
          35,
          36,
          37,
          38,
          39,
          40,
          41,
          42,
          43,
          44,
          45,
          46,
          47,
          48,
          49,
          50,
          51,
          52,
          53,
          54,
          55,
          56,
          57,
          58,
          59,
          60,
          61,
          62,
          63,
          64,
          65,
          66,
          67,
          68,
          69,
          70,
          71,
          72,
          73,
          74,
          75,
          76,
          77,
          78,
          79,
          80,
          81,
          82,
          83,
          84,
          85,
          86,
          87,
          88,
          89,
          90,
          91,
          92,
          93,
          94,
          95,
          96,
          97,
          98,
          99,
          100,
          101,
          102,
          103,
          104,
          105,
          106,
          107,
          108,
          109,
          110,
          111,
          112,
          113,
          114,
          115,
          116,
          117,
          118,
          119,
          120,
          121,
          122,
          123,
          124,
          125,
          126,
          127,
          128,
          129,
          130,
          131,
          132,
          133,
          134,
          135,
          136,
          137,
          138,
          139,
          140,
          141,
          142,
          143,
          144,
          145,
          146,
          147,
          148,
          149,
          150,
          151,
          152,
          153,
          154,
          155,
          156,
          157,
          158,
          159,
          160,
          161,
          162,
          163,
          164,
          165,
          166,
          167,
          168,
          169,
          170,
          171,
          172,
          173,
          174,
          175,
          176,
          177,
          178,
          179,
          180,
          181,
          182,
          183,
          184,
          185,
          186,
          187,
          188,
          189,
          190,
          191,
          192,
          193,
          194,
          195,
          196,
          197,
          198,
          199,
          200,
          201,
          202,
          203,
          204,
          205,
          206,
          207,
          208,
          209,
          210,
          211,
          212,
          213,
          214,
          215,
          216,
          217,
          218,
          219,
          220,
          221,
          222,
          223,
          224,
          225,
          226,
          227,
          228,
          229,
          230,
          231,
          232,
          233,
          234,
          235,
          236,
          237,
          238,
          239,
          240,
          241,
          242,
          243,
          244,
          245,
          246,
          247,
          248,
          249,
          250,
          251,
          252,
          253,
          254,
          255,
          256,
          257,
          258,
          259,
          260,
          261,
          262,
          263,
          264,
          265,
          266,
          267,
          268,
          269,
          270,
          271,
          272,
          273,
          274,
          275,
          276,
          277,
          278,
          279,
          280,
          281,
          282,
          283,
          284,
          285,
          286,
          287,
          288,
          289,
          290,
          291,
          292,
          293,
          294,
          295,
          296,
          297,
          298,
          299,
          300,
          301,
          302,
          303,
          304,
          305,
          306,
          307,
          308,
          309,
          310,
          311,
          312,
          313,
          314,
          315,
          316,
          317,
          318,
          319,
          320,
          321,
          322,
          323,
          324,
          325,
          326,
          327,
          328,
          329,
          330,
          331,
          332,
          333,
          334,
          335,
          336,
          337,
          338,
          339,
          340,
          341,
          342,
          343,
          344,
          345,
          346,
          347,
          348,
          349,
          350,
          351,
          352,
          353,
          354,
          355,
          356,
          357,
          358,
          359,
          360,
          361,
          362,
          363,
          364,
          365,
          366,
          367,
          368,
          369,
          370,
          371,
          372,
          373,
          374,
          375,
          376,
          377,
          378,
          379,
          380,
          381,
          382,
          383,
          384,
          385,
          386,
          387,
          388,
          389,
          390,
          391,
          392,
          393,
          394,
          395,
          396,
          397,
          398,
          399,
          400,
          401,
          402,
          403,
          404,
          405,
          406,
          407,
          408,
          409,
          410
        ],
        "AcquisitionTime": [
          "134601.055000",
          "134602.545000",
          "134604.035000",
          "134605.525000",
          "134607.015000",
          "134608.505000",
          "134609.995000",
          "134611.485000",
          "134612.975000",
          "134614.465000",
          "134615.955000",
          "134617.445000",
          "134618.935000",
          "134620.425000",
          "134621.915000",
          "134623.405000",
          "134624.895000",
          "134626.385000",
          "134627.875000",
          "134629.365000",
          "134630.855000",
          "134632.345000",
          "134633.835000",
          "134635.325000",
          "134636.815000",
          "134638.305000",
          "134639.795000",
          "134641.285000",
          "134642.775000",
          "134644.265000",
          "134645.755000",
          "134647.245000",
          "134648.735000",
          "134650.225000",
          "134651.715000",
          "134653.205000",
          "134654.695000",
          "134656.185000",
          "134657.675000",
          "134659.165000",
          "134700.655000",
          "134702.145000",
          "134703.635000",
          "134705.125000",
          "134706.615000",
          "134708.105000",
          "134709.595000",
          "134711.085000",
          "134712.575000",
          "134714.065000",
          "134715.555000",
          "134717.045000",
          "134718.535000",
          "134720.025000",
          "134721.515000",
          "134723.005000",
          "134724.495000",
          "134725.985000",
          "134727.475000",
          "134728.965000",
          "134730.455000",
          "134731.945000",
          "134733.435000",
          "134734.925000",
          "134736.415000",
          "134737.905000",
          "134739.395000",
          "134740.885000",
          "134742.375000",
          "134743.865000",
          "134745.355000",
          "134746.845000",
          "134748.335000",
          "134749.825000",
          "134751.315000",
          "134752.805000",
          "134754.295000",
          "134755.785000",
          "134757.275000",
          "134758.765000",
          "134800.255000",
          "134801.745000",
          "134803.235000",
          "134804.725000",
          "134806.215000",
          "134807.705000",
          "134809.195000",
          "134810.685000",
          "134812.175000",
          "134813.665000",
          "134815.155000",
          "134816.645000",
          "134818.135000",
          "134819.625000",
          "134821.115000",
          "134822.605000",
          "134824.095000",
          "134825.585000",
          "134827.075000",
          "134828.565000",
          "134830.055000",
          "134831.545000",
          "134833.035000",
          "134834.525000",
          "134836.015000",
          "134837.505000",
          "134838.995000",
          "134840.485000",
          "134841.975000",
          "134843.465000",
          "134844.955000",
          "134846.445000",
          "134847.935000",
          "134849.425000",
          "134850.915000",
          "134852.405000",
          "134853.895000",
          "134855.385000",
          "134856.875000",
          "134858.365000",
          "134859.855000",
          "134901.345000",
          "134902.835000",
          "134904.325000",
          "134905.815000",
          "134907.305000",
          "134908.795000",
          "134910.285000",
          "134911.775000",
          "134913.265000",
          "134914.755000",
          "134916.245000",
          "134917.735000",
          "134919.225000",
          "134920.715000",
          "134922.205000",
          "134923.695000",
          "134925.185000",
          "134926.675000",
          "134928.165000",
          "134929.655000",
          "134931.145000",
          "134932.635000",
          "134934.125000",
          "134935.615000",
          "134937.105000",
          "134938.595000",
          "134940.085000",
          "134941.575000",
          "134943.065000",
          "134944.555000",
          "134946.045000",
          "134947.535000",
          "134949.025000",
          "134950.515000",
          "134952.005000",
          "134953.495000",
          "134954.985000",
          "134956.475000",
          "134957.965000",
          "134959.455000",
          "135000.945000",
          "135002.435000",
          "135003.925000",
          "135005.415000",
          "135006.905000",
          "135008.395000",
          "135009.885000",
          "135011.375000",
          "135012.865000",
          "135014.355000",
          "135015.845000",
          "135017.335000",
          "135018.825000",
          "135020.315000",
          "135021.805000",
          "135023.295000",
          "135024.785000",
          "135026.275000",
          "135027.765000",
          "135029.255000",
          "135030.745000",
          "135032.235000",
          "135033.725000",
          "135035.215000",
          "135036.705000",
          "135038.195000",
          "135039.685000",
          "135041.175000",
          "135042.665000",
          "135044.155000",
          "135045.645000",
          "135047.135000",
          "135048.625000",
          "135050.115000",
          "135051.605000",
          "135053.095000",
          "135054.585000",
          "135056.075000",
          "135057.565000",
          "135059.055000",
          "135100.545000",
          "135102.035000",
          "135103.525000",
          "135105.015000",
          "135106.505000",
          "135107.995000",
          "135109.485000",
          "135110.975000",
          "135112.465000",
          "135113.955000",
          "135115.445000",
          "135116.935000",
          "135118.425000",
          "135119.915000",
          "135121.405000",
          "135122.895000",
          "135124.385000",
          "135125.875000",
          "135127.365000",
          "135128.855000",
          "135130.345000",
          "135131.835000",
          "135133.325000",
          "135134.815000",
          "135136.305000",
          "135137.795000",
          "135139.285000",
          "135140.775000",
          "135142.265000",
          "135143.755000",
          "135145.245000",
          "135146.735000",
          "135148.225000",
          "135149.715000",
          "135151.205000",
          "135152.695000",
          "135154.185000",
          "135155.675000",
          "135157.165000",
          "135158.655000",
          "135200.145000",
          "135201.635000",
          "135203.125000",
          "135204.615000",
          "135206.105000",
          "135207.595000",
          "135209.085000",
          "135210.575000",
          "135212.065000",
          "135213.555000",
          "135215.045000",
          "135216.535000",
          "135218.025000",
          "135219.515000",
          "135221.005000",
          "135222.495000",
          "135223.985000",
          "135225.475000",
          "135226.965000",
          "135228.455000",
          "135229.945000",
          "135231.435000",
          "135232.925000",
          "135234.415000",
          "135235.905000",
          "135237.395000",
          "135238.885000",
          "135240.375000",
          "135241.865000",
          "135243.355000",
          "135244.845000",
          "135246.335000",
          "135247.825000",
          "135249.315000",
          "135250.805000",
          "135252.295000",
          "135253.785000",
          "135255.275000",
          "135256.765000",
          "135258.255000",
          "135259.745000",
          "135301.235000",
          "135302.725000",
          "135304.215000",
          "135305.705000",
          "135307.195000",
          "135308.685000",
          "135310.175000",
          "135311.665000",
          "135313.155000",
          "135314.645000",
          "135316.135000",
          "135317.625000",
          "135319.115000",
          "135320.605000",
          "135322.095000",
          "135323.585000",
          "135325.075000",
          "135326.565000",
          "135328.055000",
          "135329.545000",
          "135331.035000",
          "135332.525000",
          "135334.015000",
          "135335.505000",
          "135336.995000",
          "135338.485000",
          "135339.975000",
          "135341.465000",
          "135342.955000",
          "135344.445000",
          "135345.935000",
          "135347.425000",
          "135348.915000",
          "135350.405000",
          "135351.895000",
          "135353.385000",
          "135354.875000",
          "135356.365000",
          "135357.855000",
          "135359.345000",
          "135400.835000",
          "135402.325000",
          "135403.815000",
          "135405.305000",
          "135406.795000",
          "135408.285000",
          "135409.775000",
          "135411.265000",
          "135412.755000",
          "135414.245000",
          "135415.735000",
          "135417.225000",
          "135418.715000",
          "135420.205000",
          "135421.695000",
          "135423.185000",
          "135424.675000",
          "135426.165000",
          "135427.655000",
          "135429.145000",
          "135430.635000",
          "135432.125000",
          "135433.615000",
          "135435.105000",
          "135436.595000",
          "135438.085000",
          "135439.575000",
          "135441.065000",
          "135442.555000",
          "135444.045000",
          "135445.535000",
          "135447.025000",
          "135448.515000",
          "135450.005000",
          "135451.495000",
          "135452.985000",
          "135454.475000",
          "135455.965000",
          "135457.455000",
          "135458.945000",
          "135500.435000",
          "135501.925000",
          "135503.415000",
          "135504.905000",
          "135506.395000",
          "135507.885000",
          "135509.375000",
          "135510.865000",
          "135512.355000",
          "135513.845000",
          "135515.335000",
          "135516.825000",
          "135518.315000",
          "135519.805000",
          "135521.295000",
          "135522.785000",
          "135524.275000",
          "135525.765000",
          "135527.255000",
          "135528.745000",
          "135530.235000",
          "135531.725000",
          "135533.215000",
          "135534.705000",
          "135536.195000",
          "135537.685000",
          "135539.175000",
          "135540.665000",
          "135542.155000",
          "135543.645000",
          "135545.135000",
          "135546.625000",
          "135548.115000",
          "135549.605000",
          "135551.095000",
          "135552.585000",
          "135554.075000",
          "135555.565000",
          "135557.055000",
          "135558.545000",
          "135600.035000",
          "135601.525000",
          "135603.015000",
          "135604.505000",
          "135605.995000",
          "135607.485000",
          "135608.975000",
          "135610.465000"
        ],
        "ContentTime": [
          "134717.694000",
          "134717.701000",
          "134717.704000",
          "134717.707000",
          "134717.710000",
          "134717.712000",
          "134717.715000",
          "134717.732000",
          "134717.735000",
          "134717.738000",
          "134717.742000",
          "134717.745000",
          "134717.748000",
          "134717.756000",
          "134717.759000",
          "134717.761000",
          "134717.765000",
          "134717.767000",
          "134717.770000",
          "134717.773000",
          "134717.776000",
          "134737.661000",
          "134737.664000",
          "134737.668000",
          "134737.671000",
          "134737.674000",
          "134737.677000",
          "134737.680000",
          "134737.684000",
          "134737.687000",
          "134737.690000",
          "134737.694000",
          "134737.697000",
          "134737.700000",
          "134737.703000",
          "134737.706000",
          "134737.709000",
          "134737.712000",
          "134737.715000",
          "134737.718000",
          "134737.721000",
          "134757.660000",
          "134757.663000",
          "134757.666000",
          "134757.669000",
          "134757.671000",
          "134757.674000",
          "134757.683000",
          "134757.686000",
          "134757.689000",
          "134757.691000",
          "134757.699000",
          "134757.702000",
          "134757.705000",
          "134757.708000",
          "134757.711000",
          "134757.714000",
          "134757.716000",
          "134757.719000",
          "134757.722000",
          "134757.725000",
          "134817.660000",
          "134817.663000",
          "134817.666000",
          "134817.669000",
          "134817.685000",
          "134817.688000",
          "134817.690000",
          "134817.693000",
          "134817.696000",
          "134817.699000",
          "134817.702000",
          "134817.705000",
          "134817.707000",
          "134817.710000",
          "134817.713000",
          "134817.716000",
          "134817.719000",
          "134817.721000",
          "134817.724000",
          "134817.727000",
          "134837.660000",
          "134837.663000",
          "134837.666000",
          "134837.669000",
          "134837.672000",
          "134837.675000",
          "134837.677000",
          "134837.680000",
          "134837.683000",
          "134837.686000",
          "134837.690000",
          "134837.693000",
          "134837.696000",
          "134837.699000",
          "134837.702000",
          "134837.705000",
          "134837.709000",
          "134837.713000",
          "134837.717000",
          "134837.720000",
          "134917.660000",
          "134917.663000",
          "134917.666000",
          "134917.669000",
          "134917.672000",
          "134917.675000",
          "134917.678000",
          "134917.680000",
          "134917.683000",
          "134917.686000",
          "134917.689000",
          "134917.692000",
          "134917.695000",
          "134917.697000",
          "134917.700000",
          "134917.703000",
          "134917.706000",
          "134917.709000",
          "134917.711000",
          "134917.714000",
          "134917.717000",
          "134917.720000",
          "134917.723000",
          "134917.725000",
          "134917.728000",
          "134917.731000",
          "134917.734000",
          "134917.737000",
          "134917.739000",
          "134917.742000",
          "134957.661000",
          "134957.664000",
          "134957.667000",
          "134957.670000",
          "134957.673000",
          "134957.675000",
          "134957.678000",
          "134957.681000",
          "134957.684000",
          "134957.687000",
          "134957.690000",
          "134957.693000",
          "134957.695000",
          "134957.698000",
          "134957.701000",
          "134957.704000",
          "134957.707000",
          "134957.710000",
          "134957.713000",
          "134957.715000",
          "134957.718000",
          "134957.721000",
          "134957.724000",
          "134957.727000",
          "134957.730000",
          "134957.732000",
          "134957.735000",
          "135037.660000",
          "135037.663000",
          "135037.676000",
          "135037.679000",
          "135037.682000",
          "135037.685000",
          "135037.689000",
          "135037.692000",
          "135037.695000",
          "135037.698000",
          "135037.701000",
          "135037.704000",
          "135037.706000",
          "135037.709000",
          "135037.712000",
          "135037.715000",
          "135037.718000",
          "135037.721000",
          "135037.724000",
          "135037.727000",
          "135037.729000",
          "135037.732000",
          "135037.735000",
          "135037.738000",
          "135037.741000",
          "135037.744000",
          "135117.660000",
          "135117.663000",
          "135117.666000",
          "135117.669000",
          "135117.671000",
          "135117.674000",
          "135117.677000",
          "135117.680000",
          "135117.683000",
          "135117.686000",
          "135117.688000",
          "135117.691000",
          "135117.694000",
          "135117.697000",
          "135117.700000",
          "135117.702000",
          "135117.705000",
          "135117.708000",
          "135117.711000",
          "135117.714000",
          "135117.716000",
          "135117.719000",
          "135117.722000",
          "135117.725000",
          "135117.728000",
          "135117.730000",
          "135117.733000",
          "135157.661000",
          "135157.664000",
          "135157.667000",
          "135157.670000",
          "135157.672000",
          "135157.675000",
