{
  "aor": 0.000569704433497537,
  "aqi": 0.007573431995073891,
  "bids_meta": {
    "AcquisitionMatrixPE": 104,
    "AcquisitionNumber": 1,
    "AcquisitionTime": "09:37:33.507500",
    "BandwidthPerPixelPhaseEncode": 17.17,
    "BaseResolution": 104,
    "BodyPartExamined": "BRAIN",
    "CogAtlasID": "trm_4c898da401420",
    "ConsistencyInfo": "N4_VE11C_LATEST_20160120",
    "ConversionSoftware": "dcm2niix",
    "ConversionSoftwareVersion": "v1.0.20171215 (OpenJPEG build) GCC7.3.0",
    "DerivedVendorReportedEchoSpacing": 0.000560011,
    "DeviceSerialNumber": "167006",
    "DwellTime": 2.1e-06,
    "EchoTime": 0.037,
    "EchoTrainLength": 104,
    "EffectiveEchoSpacing": 0.000560011,
    "FlipAngle": 52,
    "ImageComments": "Unaliased_MB4_PE3_LB",
    "ImageOrientationPatientDICOM": [
      0.999618,
      0.0275532,
      -0.00235712,
      -0.0272234,
      0.965496,
      -0.258991
    ],
    "ImageType": [
      "ORIGINAL",
      "PRIMARY",
      "M",
      "MB",
      "ND",
      "MOSAIC"
    ],
    "InPlanePhaseEncodingDirectionDICOM": "COL",
    "InstitutionAddress": "Chemin_Queen-Mary_4565_Montreal_District_CA_H3W_1W5",
    "InstitutionName": "IUGM",
    "InstitutionalDepartmentName": "Department",
    "MRAcquisitionType": "2D",
    "MagneticFieldStrength": 3,
    "Manufacturer": "Siemens",
    "ManufacturersModelName": "Prisma_fit",
    "Modality": "MR",
    "MultibandAccelerationFactor": 4,
    "PartialFourier": 1,
    "PatientPosition": "HFS",
    "PercentPhaseFOV": 100,
    "PhaseEncodingDirection": "j-",
    "PhaseEncodingSteps": 104,
    "PhaseResolution": 1,
    "PixelBandwidth": 2290,
    "ProcedureStepDescription": "video5_generic",
    "ProtocolName": "func_task-wolf8",
    "PulseSequenceDetails": "%CustomerSeq%_cmrr_mbep2d_bold",
    "ReceiveCoilActiveElements": "HC1-7;NC1,2",
    "ReceiveCoilName": "HeadNeck_64",
    "ReconMatrixPE": 104,
    "RepetitionTime": 1.49,
    "SAR": 0.0301936,
    "ScanOptions": "FS",
    "ScanningSequence": "EP",
    "SequenceName": "epfid2d1_104",
    "SequenceVariant": "SK_SS",
    "SeriesDescription": "func_task-wolf8",
    "SeriesNumber": 9,
    "ShimSetting": [
      624,
      -7209,
      -8799,
      662,
      18,
      -21,
      22,
      1
    ],
    "SliceThickness": 2,
    "SliceTiming": [
      0,
      0.785,
      0.1,
      0.8825,
      0.1975,
      0.98,
      0.295,
      1.08,
      0.3925,
      1.1775,
      0.49,
      1.275,
      0.59,
      1.3725,
      0.6875,
      0,
      0.785,
      0.1,
      0.8825,
      0.1975,
      0.98,
      0.295,
      1.08,
      0.3925,
      1.1775,
      0.49,
      1.275,
      0.59,
      1.3725,
      0.6875,
      0,
      0.785,
      0.1,
      0.8825,
      0.1975,
      0.98,
      0.295,
      1.08,
      0.3925,
      1.1775,
      0.49,
      1.275,
      0.59,
      1.3725,
      0.6875,
      0,
      0.785,
      0.1,
      0.8825,
      0.1975,
      0.98,
      0.295,
      1.08,
      0.3925,
      1.1775,
      0.49,
      1.275,
      0.59,
      1.3725,
      0.6875
    ],
    "SoftwareVersions": "syngo_MR_E11",
    "SpacingBetweenSlices": 2,
    "StationName": "MRC35049",
    "TaskName": "wolf08",
    "TotalReadoutTime": 0.0576811,
    "TxRefAmp": 208.306,
    "dataset": "<unset>",
    "dcmmeta_affine": [
      [
        -1.9992351531982422,
        -0.054446831345558167,
        0.00972048006951809,
        110.43488311767578
      ],
      [
        -0.055106453597545624,
        1.9309922456741333,
        -0.5179116129875183,
        -69.08301544189453
      ],
      [
        -0.004714237991720438,
        0.5179813504219055,
        1.9317538738250732,
        -58.27206039428711
      ],
      [
        0.0,
        0.0,
        0.0,
        1.0
      ]
    ],
    "dcmmeta_reorient_transform": [
      [
        0.0,
        -1.0,
        0.0,
        103.0
      ],
      [
        1.0,
        0.0,
        0.0,
        0.0
      ],
      [
        0.0,
        0.0,
        1.0,
        0.0
      ],
      [
        0.0,
        0.0,
        0.0,
        1.0
      ]
    ],
    "dcmmeta_shape": [
      104,
      104,
      60,
      406
    ],
    "dcmmeta_slice_dim": 2,
    "dcmmeta_version": 0.6,
    "global": {
      "const": {
        "AcquisitionMatrix": [
          104,
          0,
          0,
          104
        ],
        "AngioFlag": "N",
        "BitsAllocated": 16,
        "BitsStored": 16,
        "BodyPartExamined": "BRAIN",
        "Columns": 832,
        "EchoNumbers": 1,
        "EchoTime": 37.0,
        "EchoTrainLength": 104,
        "FlipAngle": 52.0,
        "HighBit": 15,
        "ImageOrientationPatient": [
          0.99961755869791,
          0.02755322725893,
          -0.0023571190997,
          -0.0272234166038,
          0.9654960963854,
          -0.258990682174
        ],
        "ImagePositionPatient": [
          -812.72979504629,
          -852.74908835851,
          185.34121959778
        ],
        "ImageType": [
          "ORIGINAL",
          "PRIMARY",
          "M",
          "MB",
          "ND",
          "MOSAIC"
        ],
        "ImagedNucleus": "1H",
        "ImagingFrequency": 123.257988,
        "InPlanePhaseEncodingDirection": "COL",
        "MRAcquisitionType": "2D",
        "MagneticFieldStrength": 3.0,
        "Manufacturer": "SIEMENS",
        "ManufacturerModelName": "Prisma_fit",
        "Modality": "MR",
        "NumberOfAverages": 1.0,
        "NumberOfPhaseEncodingSteps": 104,
        "PercentPhaseFieldOfView": 100.0,
        "PercentSampling": 100.0,
        "PerformedProcedureStepStartTime": "092437.265000",
        "PhotometricInterpretation": "MONOCHROME2",
        "PixelBandwidth": 2290.0,
        "PixelRepresentation": 0,
        "PixelSpacing": [
          2.0,
          2.0
        ],
        "ProtocolName": "func_task-wolf8",
        "RepetitionTime": 1490.0,
        "Rows": 832,
        "SAR": 0.03019361213191,
        "SamplesPerPixel": 1,
        "ScanOptions": "FS",
        "ScanningSequence": "EP",
        "SequenceName": "epfid2d1_104",
        "SequenceVariant": [
          "SK",
          "SS"
        ],
        "SeriesDescription": "func_task-wolf8",
        "SeriesNumber": 9,
        "SeriesTime": "093851.503000",
        "SliceLocation": -37.857451848572,
        "SliceThickness": 2.0,
        "SmallestImagePixelValue": 0,
        "SoftwareVersions": "syngo MR E11",
        "SpacingBetweenSlices": 2.0000000139503,
        "SpecificCharacterSet": "ISO_IR 100",
        "StudyID": "1",
        "StudyTime": "092437.123000",
        "TransmitCoilName": "Body",
        "VariableFlipAngleFlag": "N",
        "WindowCenterWidthExplanation": "Algo1",
        "dBdt": 0.0
      },
      "slices": {}
    },
    "modality": "bold",
    "session_id": "004",
    "subject_id": "03",
    "task_id": "wolf08",
    "time": {
      "samples": {
        "AcquisitionNumber": [
          1,
          2,
          3,
          4,
          5,
          6,
          7,
          8,
          9,
          10,
          11,
          12,
          13,
          14,
          15,
          16,
          17,
          18,
          19,
          20,
          21,
          22,
          23,
          24,
          25,
          26,
          27,
          28,
          29,
          30,
          31,
          32,
          33,
          34,
          35,
          36,
          37,
          38,
          39,
          40,
          41,
          42,
          43,
          44,
          45,
          46,
          47,
          48,
          49,
          50,
          51,
          52,
          53,
          54,
          55,
          56,
          57,
          58,
          59,
          60,
          61,
          62,
          63,
          64,
          65,
          66,
          67,
          68,
          69,
          70,
          71,
          72,
          73,
          74,
          75,
          76,
          77,
          78,
          79,
          80,
          81,
          82,
          83,
          84,
          85,
          86,
          87,
          88,
          89,
          90,
          91,
          92,
          93,
          94,
          95,
          96,
          97,
          98,
          99,
          100,
          101,
          102,
          103,
          104,
          105,
          106,
          107,
          108,
          109,
          110,
          111,
          112,
          113,
          114,
          115,
          116,
          117,
          118,
          119,
          120,
          121,
          122,
          123,
          124,
          125,
          126,
          127,
          128,
          129,
          130,
          131,
          132,
          133,
          134,
          135,
          136,
          137,
          138,
          139,
          140,
          141,
          142,
          143,
          144,
          145,
          146,
          147,
          148,
          149,
          150,
          151,
          152,
          153,
          154,
          155,
          156,
          157,
          158,
          159,
          160,
          161,
          162,
          163,
          164,
          165,
          166,
          167,
          168,
          169,
          170,
          171,
          172,
          173,
          174,
          175,
          176,
          177,
          178,
          179,
          180,
          181,
          182,
          183,
          184,
          185,
          186,
          187,
          188,
          189,
          190,
          191,
          192,
          193,
          194,
          195,
          196,
          197,
          198,
          199,
          200,
          201,
          202,
          203,
          204,
          205,
          206,
          207,
          208,
          209,
          210,
          211,
          212,
          213,
          214,
          215,
          216,
          217,
          218,
          219,
          220,
          221,
          222,
          223,
          224,
          225,
          226,
          227,
          228,
          229,
          230,
          231,
          232,
          233,
          234,
          235,
          236,
          237,
          238,
          239,
          240,
          241,
          242,
          243,
          244,
          245,
          246,
          247,
          248,
          249,
          250,
          251,
          252,
          253,
          254,
          255,
          256,
          257,
          258,
          259,
          260,
          261,
          262,
          263,
          264,
          265,
          266,
          267,
          268,
          269,
          270,
          271,
          272,
          273,
          274,
          275,
          276,
          277,
          278,
          279,
          280,
          281,
          282,
          283,
          284,
          285,
          286,
          287,
          288,
          289,
          290,
          291,
          292,
          293,
          294,
          295,
          296,
          297,
          298,
          299,
          300,
          301,
          302,
          303,
          304,
          305,
          306,
          307,
          308,
          309,
          310,
          311,
          312,
          313,
          314,
          315,
          316,
          317,
          318,
          319,
          320,
          321,
          322,
          323,
          324,
          325,
          326,
          327,
          328,
          329,
          330,
          331,
          332,
          333,
          334,
          335,
          336,
          337,
          338,
          339,
          340,
          341,
          342,
          343,
          344,
          345,
          346,
          347,
          348,
          349,
          350,
          351,
          352,
          353,
          354,
          355,
          356,
          357,
          358,
          359,
          360,
          361,
          362,
          363,
          364,
          365,
          366,
          367,
          368,
          369,
          370,
          371,
          372,
          373,
          374,
          375,
          376,
          377,
          378,
          379,
          380,
          381,
          382,
          383,
          384,
          385,
          386,
          387,
          388,
          389,
          390,
          391,
          392,
          393,
          394,
          395,
          396,
          397,
          398,
          399,
          400,
          401,
          402,
          403,
          404,
          405,
          406
        ],
        "AcquisitionTime": [
          "093733.507500",
          "093734.997500",
          "093736.487500",
          "093737.977500",
          "093739.467500",
          "093740.957500",
          "093742.447500",
          "093743.937500",
          "093745.427500",
          "093746.917500",
          "093748.407500",
          "093749.897500",
          "093751.387500",
          "093752.877500",
          "093754.367500",
          "093755.857500",
          "093757.347500",
          "093758.837500",
          "093800.327500",
          "093801.817500",
          "093803.307500",
          "093804.797500",
          "093806.287500",
          "093807.777500",
          "093809.267500",
          "093810.757500",
          "093812.247500",
          "093813.737500",
          "093815.227500",
          "093816.717500",
          "093818.207500",
          "093819.697500",
          "093821.187500",
          "093822.677500",
          "093824.167500",
          "093825.657500",
          "093827.147500",
          "093828.637500",
          "093830.127500",
          "093831.617500",
          "093833.107500",
          "093834.597500",
          "093836.087500",
          "093837.577500",
          "093839.067500",
          "093840.557500",
          "093842.047500",
          "093843.537500",
          "093845.027500",
          "093846.517500",
          "093848.007500",
          "093849.497500",
          "093850.987500",
          "093852.477500",
          "093853.967500",
          "093855.457500",
          "093856.947500",
          "093858.437500",
          "093859.927500",
          "093901.417500",
          "093902.907500",
          "093904.397500",
          "093905.887500",
          "093907.377500",
          "093908.867500",
          "093910.357500",
          "093911.847500",
          "093913.337500",
          "093914.827500",
          "093916.317500",
          "093917.807500",
          "093919.297500",
          "093920.787500",
          "093922.277500",
          "093923.767500",
          "093925.257500",
          "093926.747500",
          "093928.237500",
          "093929.727500",
          "093931.217500",
          "093932.707500",
          "093934.197500",
          "093935.687500",
          "093937.177500",
          "093938.667500",
          "093940.157500",
          "093941.647500",
          "093943.137500",
          "093944.627500",
          "093946.117500",
          "093947.607500",
          "093949.097500",
          "093950.587500",
          "093952.077500",
          "093953.567500",
          "093955.057500",
          "093956.547500",
          "093958.037500",
          "093959.527500",
          "094001.017500",
          "094002.507500",
          "094003.997500",
          "094005.487500",
          "094006.977500",
          "094008.467500",
          "094009.957500",
          "094011.447500",
          "094012.937500",
          "094014.427500",
          "094015.917500",
          "094017.407500",
          "094018.897500",
          "094020.387500",
          "094021.877500",
          "094023.367500",
          "094024.857500",
          "094026.347500",
          "094027.837500",
          "094029.327500",
          "094030.817500",
          "094032.307500",
          "094033.797500",
          "094035.287500",
          "094036.777500",
          "094038.267500",
          "094039.757500",
          "094041.247500",
          "094042.737500",
          "094044.227500",
          "094045.717500",
          "094047.207500",
          "094048.697500",
          "094050.187500",
          "094051.677500",
          "094053.167500",
          "094054.657500",
          "094056.147500",
          "094057.637500",
          "094059.127500",
          "094100.617500",
          "094102.107500",
          "094103.597500",
          "094105.087500",
          "094106.577500",
          "094108.067500",
          "094109.557500",
          "094111.047500",
          "094112.537500",
          "094114.027500",
          "094115.517500",
          "094117.007500",
          "094118.497500",
          "094119.987500",
          "094121.477500",
          "094122.967500",
          "094124.457500",
          "094125.947500",
          "094127.437500",
          "094128.927500",
          "094130.417500",
          "094131.907500",
          "094133.397500",
          "094134.887500",
          "094136.377500",
          "094137.867500",
          "094139.357500",
          "094140.847500",
          "094142.337500",
          "094143.827500",
          "094145.317500",
          "094146.807500",
          "094148.297500",
          "094149.787500",
          "094151.277500",
          "094152.767500",
          "094154.257500",
          "094155.747500",
          "094157.237500",
          "094158.727500",
          "094200.217500",
          "094201.707500",
          "094203.197500",
          "094204.687500",
          "094206.177500",
          "094207.667500",
          "094209.157500",
          "094210.647500",
          "094212.137500",
          "094213.627500",
          "094215.117500",
          "094216.607500",
          "094218.097500",
          "094219.587500",
          "094221.077500",
          "094222.567500",
          "094224.057500",
          "094225.547500",
          "094227.037500",
          "094228.527500",
          "094230.017500",
          "094231.507500",
          "094232.997500",
          "094234.487500",
          "094235.977500",
          "094237.467500",
          "094238.957500",
          "094240.447500",
          "094241.937500",
          "094243.427500",
          "094244.917500",
          "094246.407500",
          "094247.897500",
          "094249.387500",
          "094250.877500",
          "094252.367500",
          "094253.857500",
          "094255.347500",
          "094256.837500",
          "094258.327500",
          "094259.817500",
          "094301.307500",
          "094302.797500",
          "094304.287500",
          "094305.777500",
          "094307.267500",
          "094308.757500",
          "094310.247500",
          "094311.737500",
          "094313.227500",
          "094314.717500",
          "094316.207500",
          "094317.697500",
          "094319.187500",
          "094320.677500",
          "094322.167500",
          "094323.657500",
          "094325.147500",
          "094326.637500",
          "094328.127500",
          "094329.617500",
          "094331.107500",
          "094332.597500",
          "094334.087500",
          "094335.577500",
          "094337.067500",
          "094338.557500",
          "094340.047500",
          "094341.537500",
          "094343.027500",
          "094344.517500",
          "094346.007500",
          "094347.497500",
          "094348.987500",
          "094350.477500",
          "094351.967500",
          "094353.457500",
          "094354.947500",
          "094356.437500",
          "094357.927500",
          "094359.417500",
          "094400.907500",
          "094402.397500",
          "094403.887500",
          "094405.377500",
          "094406.867500",
          "094408.357500",
          "094409.847500",
          "094411.337500",
          "094412.827500",
          "094414.317500",
          "094415.807500",
          "094417.297500",
          "094418.787500",
          "094420.277500",
          "094421.767500",
          "094423.257500",
          "094424.747500",
          "094426.237500",
          "094427.727500",
          "094429.217500",
          "094430.707500",
          "094432.197500",
          "094433.687500",
          "094435.177500",
          "094436.667500",
          "094438.157500",
          "094439.647500",
          "094441.137500",
          "094442.627500",
          "094444.117500",
          "094445.607500",
          "094447.097500",
          "094448.587500",
          "094450.077500",
          "094451.567500",
          "094453.057500",
          "094454.547500",
          "094456.037500",
          "094457.527500",
          "094459.017500",
          "094500.507500",
          "094501.997500",
          "094503.487500",
          "094504.977500",
          "094506.467500",
          "094507.957500",
          "094509.447500",
          "094510.937500",
          "094512.427500",
          "094513.917500",
          "094515.407500",
          "094516.897500",
          "094518.387500",
          "094519.877500",
          "094521.367500",
          "094522.857500",
          "094524.347500",
          "094525.837500",
          "094527.327500",
          "094528.817500",
          "094530.307500",
          "094531.797500",
          "094533.287500",
          "094534.777500",
          "094536.267500",
          "094537.757500",
          "094539.247500",
          "094540.737500",
          "094542.227500",
          "094543.717500",
          "094545.207500",
          "094546.697500",
          "094548.187500",
          "094549.677500",
          "094551.167500",
          "094552.657500",
          "094554.147500",
          "094555.637500",
          "094557.127500",
          "094558.617500",
          "094600.107500",
          "094601.597500",
          "094603.087500",
          "094604.577500",
          "094606.067500",
          "094607.557500",
          "094609.047500",
          "094610.537500",
          "094612.027500",
          "094613.517500",
          "094615.007500",
          "094616.497500",
          "094617.987500",
          "094619.477500",
          "094620.967500",
          "094622.457500",
          "094623.947500",
          "094625.437500",
          "094626.927500",
          "094628.417500",
          "094629.907500",
          "094631.397500",
          "094632.887500",
          "094634.377500",
          "094635.867500",
          "094637.357500",
          "094638.847500",
          "094640.337500",
          "094641.827500",
          "094643.317500",
          "094644.807500",
          "094646.297500",
          "094647.787500",
          "094649.277500",
          "094650.767500",
          "094652.257500",
          "094653.747500",
          "094655.237500",
          "094656.727500",
          "094658.217500",
          "094659.707500",
          "094701.197500",
          "094702.687500",
          "094704.177500",
          "094705.667500",
          "094707.157500",
          "094708.647500",
          "094710.137500",
          "094711.627500",
          "094713.117500",
          "094714.607500",
          "094716.097500",
          "094717.587500",
          "094719.077500",
          "094720.567500",
          "094722.057500",
          "094723.547500",
          "094725.037500",
          "094726.527500",
          "094728.017500",
          "094729.507500",
          "094730.997500",
          "094732.487500",
          "094733.977500",
          "094735.467500",
          "094736.957500"
        ],
        "ContentTime": [
          "093851.505000",
          "093851.509000",
          "093851.518000",
          "093851.526000",
          "093851.529000",
          "093851.532000",
          "093851.535000",
          "093851.538000",
          "093851.541000",
          "093851.544000",
          "093851.547000",
          "093851.550000",
          "093851.553000",
          "093851.556000",
          "093851.559000",
          "093851.562000",
          "093851.565000",
          "093851.568000",
          "093851.571000",
          "093851.574000",
          "093851.577000",
          "093851.580000",
          "093911.455000",
          "093911.458000",
          "093911.461000",
          "093911.464000",
          "093911.467000",
          "093911.470000",
          "093911.473000",
          "093911.476000",
          "093911.479000",
          "093911.482000",
          "093911.485000",
          "093911.493000",
          "093911.496000",
          "093911.499000",
          "093911.501000",
          "093911.505000",
          "093911.508000",
          "093911.511000",
          "093911.513000",
          "093911.517000",
          "093931.455000",
          "093931.458000",
          "093931.461000",
          "093931.464000",
          "093931.467000",
          "093931.470000",
          "093931.473000",
          "093931.484000",
          "093931.487000",
          "093931.490000",
          "093931.493000",
          "093931.496000",
          "093931.499000",
          "093931.502000",
          "093931.505000",
          "093931.508000",
          "093931.511000",
          "093931.514000",
          "093931.516000",
          "093931.519000",
          "093931.522000",
          "093951.454000",
          "093951.457000",
          "093951.464000",
          "093951.467000",
          "093951.470000",
          "093951.473000",
          "093951.476000",
          "093951.479000",
          "093951.482000",
          "093951.485000",
          "093951.488000",
          "093951.491000",
          "093951.494000",
          "093951.497000",
          "093951.500000",
          "093951.503000",
          "093951.506000",
          "093951.509000",
          "093951.512000",
          "093951.515000",
          "094011.454000",
          "094011.457000",
          "094011.460000",
          "094011.463000",
          "094011.466000",
          "094011.469000",
          "094011.472000",
          "094011.475000",
          "094011.478000",
          "094011.481000",
          "094011.484000",
          "094011.487000",
          "094011.490000",
          "094011.493000",
          "094011.496000",
          "094011.499000",
          "094011.502000",
          "094011.505000",
          "094011.508000",
          "094011.511000",
          "094051.455000",
          "094051.458000",
          "094051.461000",
          "094051.464000",
          "094051.467000",
          "094051.470000",
          "094051.473000",
          "094051.476000",
          "094051.479000",
          "094051.482000",
          "094051.485000",
          "094051.488000",
          "094051.497000",
          "094051.501000",
          "094051.504000",
          "094051.507000",
          "094051.510000",
          "094051.513000",
          "094051.516000",
          "094051.519000",
          "094051.522000",
          "094051.525000",
          "094051.528000",
          "094051.531000",
          "094051.534000",
          "094051.537000",
          "094051.550000",
          "094051.553000",
          "094051.556000",
          "094131.455000",
          "094131.458000",
          "094131.461000",
          "094131.464000",
          "094131.467000",
          "094131.470000",
          "094131.473000",
          "094131.476000",
          "094131.479000",
          "094131.482000",
          "094131.485000",
          "094131.488000",
          "094131.491000",
          "094131.494000",
          "094131.497000",
          "094131.500000",
          "094131.503000",
          "094131.506000",
          "094131.509000",
          "094131.512000",
          "094131.515000",
          "094131.518000",
          "094131.521000",
          "094131.524000",
          "094131.527000",
          "094131.530000",
          "094131.533000",
          "094151.455000",
          "094151.458000",
          "094151.461000",
          "094151.464000",
          "094151.467000",
          "094151.470000",
          "094151.473000",
          "094151.476000",
          "094151.479000",
          "094151.482000",
          "094151.485000",
          "094151.488000",
          "094151.491000",
          "094231.454000",
          "094231.457000",
          "094231.460000",
          "094231.463000",
          "094231.466000",
          "094231.469000",
          "094231.472000",
          "094231.475000",
          "094231.478000",
          "094231.481000",
          "094231.484000",
          "094231.487000",
          "094231.490000",
          "094231.493000",
          "094231.496000",
          "094231.499000",
          "094231.502000",
          "094231.505000",
          "094231.508000",
          "094231.510000",
          "094231.513000",
          "094231.516000",
          "094231.519000",
          "094231.522000",
          "094231.525000",
          "094231.528000",
          "094231.531000",
          "094311.455000",
          "094311.458000",
          "094311.461000",
          "094311.464000",
          "094311.467000",
          "094311.470000",
          "094311.473000",
          "094311.476000",
          "094311.479000",
          "094311.482000",
          "094311.485000",
          "094311.488000",
          "094311.491000",
          "094311.494000",
          "094311.497000",
          "094311.500000",
          "094311.503000",
          "094311.506000",
          "094311.509000",
          "094311.512000",
          "094311.515000",
          "094311.518000",
          "094311.521000",
          "094311.524000",
          "094311.527000",
