{
  "aor": 0.0012544088669950739,
  "aqi": 0.008201881206896551,
  "bids_meta": {
    "AcquisitionMatrixPE": 104,
    "AcquisitionNumber": 1,
    "AcquisitionTime": "09:48:2.135000",
    "BandwidthPerPixelPhaseEncode": 17.17,
    "BaseResolution": 104,
    "BodyPartExamined": "BRAIN",
    "CogAtlasID": "trm_4c898da401420",
    "ConsistencyInfo": "N4_VE11C_LATEST_20160120",
    "ConversionSoftware": "dcm2niix",
    "ConversionSoftwareVersion": "v1.0.20171215 (OpenJPEG build) GCC7.3.0",
    "DerivedVendorReportedEchoSpacing": 0.000560011,
    "DeviceSerialNumber": "167006",
    "DwellTime": 2.1e-06,
    "EchoTime": 0.037,
    "EchoTrainLength": 104,
    "EffectiveEchoSpacing": 0.000560011,
    "FlipAngle": 52,
    "ImageComments": "Unaliased_MB4_PE3_LB",
    "ImageOrientationPatientDICOM": [
      0.999618,
      0.0275532,
      -0.00235712,
      -0.0272234,
      0.965496,
      -0.258991
    ],
    "ImageType": [
      "ORIGINAL",
      "PRIMARY",
      "M",
      "MB",
      "ND",
      "MOSAIC"
    ],
    "InPlanePhaseEncodingDirectionDICOM": "COL",
    "InstitutionAddress": "Chemin_Queen-Mary_4565_Montreal_District_CA_H3W_1W5",
    "InstitutionName": "IUGM",
    "InstitutionalDepartmentName": "Department",
    "MRAcquisitionType": "2D",
    "MagneticFieldStrength": 3,
    "Manufacturer": "Siemens",
    "ManufacturersModelName": "Prisma_fit",
    "Modality": "MR",
    "MultibandAccelerationFactor": 4,
    "PartialFourier": 1,
    "PatientPosition": "HFS",
    "PercentPhaseFOV": 100,
    "PhaseEncodingDirection": "j-",
    "PhaseEncodingSteps": 104,
    "PhaseResolution": 1,
    "PixelBandwidth": 2290,
    "ProcedureStepDescription": "video5_generic",
    "ProtocolName": "func_task-wolf9",
    "PulseSequenceDetails": "%CustomerSeq%_cmrr_mbep2d_bold",
    "ReceiveCoilActiveElements": "HC1-7;NC1,2",
    "ReceiveCoilName": "HeadNeck_64",
    "ReconMatrixPE": 104,
    "RepetitionTime": 1.49,
    "SAR": 0.0301936,
    "ScanOptions": "FS",
    "ScanningSequence": "EP",
    "SequenceName": "epfid2d1_104",
    "SequenceVariant": "SK_SS",
    "SeriesDescription": "func_task-wolf9",
    "SeriesNumber": 11,
    "ShimSetting": [
      624,
      -7209,
      -8799,
      662,
      18,
      -21,
      22,
      1
    ],
    "SliceThickness": 2,
    "SliceTiming": [
      0,
      0.785,
      0.0975,
      0.8825,
      0.1975,
      0.98,
      0.295,
      1.0775,
      0.3925,
      1.1775,
      0.49,
      1.275,
      0.5875,
      1.3725,
      0.6875,
      0,
      0.785,
      0.0975,
      0.8825,
      0.1975,
      0.98,
      0.295,
      1.0775,
      0.3925,
      1.1775,
      0.49,
      1.275,
      0.5875,
      1.3725,
      0.6875,
      0,
      0.785,
      0.0975,
      0.8825,
      0.1975,
      0.98,
      0.295,
      1.0775,
      0.3925,
      1.1775,
      0.49,
      1.275,
      0.5875,
      1.3725,
      0.6875,
      0,
      0.785,
      0.0975,
      0.8825,
      0.1975,
      0.98,
      0.295,
      1.0775,
      0.3925,
      1.1775,
      0.49,
      1.275,
      0.5875,
      1.3725,
      0.6875
    ],
    "SoftwareVersions": "syngo_MR_E11",
    "SpacingBetweenSlices": 2,
    "StationName": "MRC35049",
    "TaskName": "wolf09",
    "TotalReadoutTime": 0.0576811,
    "TxRefAmp": 208.306,
    "dataset": "<unset>",
    "dcmmeta_affine": [
      [
        -1.9992351531982422,
        -0.054446831345558167,
        0.00972048006951809,
        110.43488311767578
      ],
      [
        -0.055106453597545624,
        1.9309922456741333,
        -0.5179116129875183,
        -69.08301544189453
      ],
      [
        -0.004714237991720438,
        0.5179813504219055,
        1.9317538738250732,
        -58.27206039428711
      ],
      [
        0.0,
        0.0,
        0.0,
        1.0
      ]
    ],
    "dcmmeta_reorient_transform": [
      [
        0.0,
        -1.0,
        0.0,
        103.0
      ],
      [
        1.0,
        0.0,
        0.0,
        0.0
      ],
      [
        0.0,
        0.0,
        1.0,
        0.0
      ],
      [
        0.0,
        0.0,
        0.0,
        1.0
      ]
    ],
    "dcmmeta_shape": [
      104,
      104,
      60,
      406
    ],
    "dcmmeta_slice_dim": 2,
    "dcmmeta_version": 0.6,
    "global": {
      "const": {
        "AcquisitionMatrix": [
          104,
          0,
          0,
          104
        ],
        "AngioFlag": "N",
        "BitsAllocated": 16,
        "BitsStored": 16,
        "BodyPartExamined": "BRAIN",
        "Columns": 832,
        "EchoNumbers": 1,
        "EchoTime": 37.0,
        "EchoTrainLength": 104,
        "FlipAngle": 52.0,
        "HighBit": 15,
        "ImageOrientationPatient": [
          0.99961755869791,
          0.02755322725893,
          -0.0023571190997,
          -0.0272234166038,
          0.9654960963854,
          -0.258990682174
        ],
        "ImagePositionPatient": [
          -812.72979504629,
          -852.74908835851,
          185.34121959778
        ],
        "ImageType": [
          "ORIGINAL",
          "PRIMARY",
          "M",
          "MB",
          "ND",
          "MOSAIC"
        ],
        "ImagedNucleus": "1H",
        "ImagingFrequency": 123.257995,
        "InPlanePhaseEncodingDirection": "COL",
        "MRAcquisitionType": "2D",
        "MagneticFieldStrength": 3.0,
        "Manufacturer": "SIEMENS",
        "ManufacturerModelName": "Prisma_fit",
        "Modality": "MR",
        "NumberOfAverages": 1.0,
        "NumberOfPhaseEncodingSteps": 104,
        "PercentPhaseFieldOfView": 100.0,
        "PercentSampling": 100.0,
        "PerformedProcedureStepStartTime": "092437.265000",
        "PhotometricInterpretation": "MONOCHROME2",
        "PixelBandwidth": 2290.0,
        "PixelRepresentation": 0,
        "PixelSpacing": [
          2.0,
          2.0
        ],
        "ProtocolName": "func_task-wolf9",
        "RepetitionTime": 1490.0,
        "Rows": 832,
        "SAR": 0.03019361213191,
        "SamplesPerPixel": 1,
        "ScanOptions": "FS",
        "ScanningSequence": "EP",
        "SequenceName": "epfid2d1_104",
        "SequenceVariant": [
          "SK",
          "SS"
        ],
        "SeriesDescription": "func_task-wolf9",
        "SeriesNumber": 11,
        "SeriesTime": "094916.670000",
        "SliceLocation": -37.857451848572,
        "SliceThickness": 2.0,
        "SmallestImagePixelValue": 0,
        "SoftwareVersions": "syngo MR E11",
        "SpacingBetweenSlices": 2.0000000139503,
        "SpecificCharacterSet": "ISO_IR 100",
        "StudyID": "1",
        "StudyTime": "092437.123000",
        "TransmitCoilName": "Body",
        "VariableFlipAngleFlag": "N",
        "WindowCenterWidthExplanation": "Algo1",
        "dBdt": 0.0
      },
      "slices": {}
    },
    "modality": "bold",
    "session_id": "004",
    "subject_id": "03",
    "task_id": "wolf09",
    "time": {
      "samples": {
        "AcquisitionNumber": [
          1,
          2,
          3,
          4,
          5,
          6,
          7,
          8,
          9,
          10,
          11,
          12,
          13,
          14,
          15,
          16,
          17,
          18,
          19,
          20,
          21,
          22,
          23,
          24,
          25,
          26,
          27,
          28,
          29,
          30,
          31,
          32,
          33,
          34,
          35,
          36,
          37,
          38,
          39,
          40,
          41,
          42,
          43,
          44,
          45,
          46,
          47,
          48,
          49,
          50,
          51,
          52,
          53,
          54,
          55,
          56,
          57,
          58,
          59,
          60,
          61,
          62,
          63,
          64,
          65,
          66,
          67,
          68,
          69,
          70,
          71,
          72,
          73,
          74,
          75,
          76,
          77,
          78,
          79,
          80,
          81,
          82,
          83,
          84,
          85,
          86,
          87,
          88,
          89,
          90,
          91,
          92,
          93,
          94,
          95,
          96,
          97,
          98,
          99,
          100,
          101,
          102,
          103,
          104,
          105,
          106,
          107,
          108,
          109,
          110,
          111,
          112,
          113,
          114,
          115,
          116,
          117,
          118,
          119,
          120,
          121,
          122,
          123,
          124,
          125,
          126,
          127,
          128,
          129,
          130,
          131,
          132,
          133,
          134,
          135,
          136,
          137,
          138,
          139,
          140,
          141,
          142,
          143,
          144,
          145,
          146,
          147,
          148,
          149,
          150,
          151,
          152,
          153,
          154,
          155,
          156,
          157,
          158,
          159,
          160,
          161,
          162,
          163,
          164,
          165,
          166,
          167,
          168,
          169,
          170,
          171,
          172,
          173,
          174,
          175,
          176,
          177,
          178,
          179,
          180,
          181,
          182,
          183,
          184,
          185,
          186,
          187,
          188,
          189,
          190,
          191,
          192,
          193,
          194,
          195,
          196,
          197,
          198,
          199,
          200,
          201,
          202,
          203,
          204,
          205,
          206,
          207,
          208,
          209,
          210,
          211,
          212,
          213,
          214,
          215,
          216,
          217,
          218,
          219,
          220,
          221,
          222,
          223,
          224,
          225,
          226,
          227,
          228,
          229,
          230,
          231,
          232,
          233,
          234,
          235,
          236,
          237,
          238,
          239,
          240,
          241,
          242,
          243,
          244,
          245,
          246,
          247,
          248,
          249,
          250,
          251,
          252,
          253,
          254,
          255,
          256,
          257,
          258,
          259,
          260,
          261,
          262,
          263,
          264,
          265,
          266,
          267,
          268,
          269,
          270,
          271,
          272,
          273,
          274,
          275,
          276,
          277,
          278,
          279,
          280,
          281,
          282,
          283,
          284,
          285,
          286,
          287,
          288,
          289,
          290,
          291,
          292,
          293,
          294,
          295,
          296,
          297,
          298,
          299,
          300,
          301,
          302,
          303,
          304,
          305,
          306,
          307,
          308,
          309,
          310,
          311,
          312,
          313,
          314,
          315,
          316,
          317,
          318,
          319,
          320,
          321,
          322,
          323,
          324,
          325,
          326,
          327,
          328,
          329,
          330,
          331,
          332,
          333,
          334,
          335,
          336,
          337,
          338,
          339,
          340,
          341,
          342,
          343,
          344,
          345,
          346,
          347,
          348,
          349,
          350,
          351,
          352,
          353,
          354,
          355,
          356,
          357,
          358,
          359,
          360,
          361,
          362,
          363,
          364,
          365,
          366,
          367,
          368,
          369,
          370,
          371,
          372,
          373,
          374,
          375,
          376,
          377,
          378,
          379,
          380,
          381,
          382,
          383,
          384,
          385,
          386,
          387,
          388,
          389,
          390,
          391,
          392,
          393,
          394,
          395,
          396,
          397,
          398,
          399,
          400,
          401,
          402,
          403,
          404,
          405,
          406
        ],
        "AcquisitionTime": [
          "094802.135000",
          "094803.625000",
          "094805.115000",
          "094806.605000",
          "094808.095000",
          "094809.585000",
          "094811.075000",
          "094812.565000",
          "094814.055000",
          "094815.545000",
          "094817.035000",
          "094818.525000",
          "094820.015000",
          "094821.505000",
          "094822.995000",
          "094824.485000",
          "094825.975000",
          "094827.465000",
          "094828.955000",
          "094830.445000",
          "094831.935000",
          "094833.425000",
          "094834.915000",
          "094836.405000",
          "094837.895000",
          "094839.385000",
          "094840.875000",
          "094842.365000",
          "094843.855000",
          "094845.345000",
          "094846.835000",
          "094848.325000",
          "094849.815000",
          "094851.305000",
          "094852.795000",
          "094854.285000",
          "094855.775000",
          "094857.265000",
          "094858.755000",
          "094900.245000",
          "094901.735000",
          "094903.225000",
          "094904.715000",
          "094906.205000",
          "094907.695000",
          "094909.185000",
          "094910.675000",
          "094912.165000",
          "094913.655000",
          "094915.145000",
          "094916.635000",
          "094918.125000",
          "094919.615000",
          "094921.105000",
          "094922.595000",
          "094924.085000",
          "094925.575000",
          "094927.065000",
          "094928.555000",
          "094930.045000",
          "094931.535000",
          "094933.025000",
          "094934.515000",
          "094936.005000",
          "094937.495000",
          "094938.985000",
          "094940.475000",
          "094941.965000",
          "094943.455000",
          "094944.945000",
          "094946.435000",
          "094947.925000",
          "094949.415000",
          "094950.905000",
          "094952.395000",
          "094953.885000",
          "094955.375000",
          "094956.865000",
          "094958.355000",
          "094959.845000",
          "095001.335000",
          "095002.825000",
          "095004.315000",
          "095005.805000",
          "095007.295000",
          "095008.785000",
          "095010.275000",
          "095011.765000",
          "095013.255000",
          "095014.745000",
          "095016.235000",
          "095017.725000",
          "095019.215000",
          "095020.705000",
          "095022.195000",
          "095023.685000",
          "095025.175000",
          "095026.665000",
          "095028.155000",
          "095029.645000",
          "095031.135000",
          "095032.625000",
          "095034.115000",
          "095035.605000",
          "095037.095000",
          "095038.585000",
          "095040.075000",
          "095041.565000",
          "095043.055000",
          "095044.545000",
          "095046.035000",
          "095047.525000",
          "095049.015000",
          "095050.505000",
          "095051.995000",
          "095053.485000",
          "095054.975000",
          "095056.465000",
          "095057.955000",
          "095059.445000",
          "095100.935000",
          "095102.425000",
          "095103.915000",
          "095105.405000",
          "095106.895000",
          "095108.385000",
          "095109.875000",
          "095111.365000",
          "095112.855000",
          "095114.345000",
          "095115.835000",
          "095117.325000",
          "095118.815000",
          "095120.305000",
          "095121.795000",
          "095123.285000",
          "095124.775000",
          "095126.265000",
          "095127.755000",
          "095129.245000",
          "095130.735000",
          "095132.225000",
          "095133.715000",
          "095135.205000",
          "095136.695000",
          "095138.185000",
          "095139.675000",
          "095141.165000",
          "095142.655000",
          "095144.145000",
          "095145.635000",
          "095147.125000",
          "095148.615000",
          "095150.105000",
          "095151.595000",
          "095153.085000",
          "095154.575000",
          "095156.065000",
          "095157.555000",
          "095159.045000",
          "095200.535000",
          "095202.025000",
          "095203.515000",
          "095205.005000",
          "095206.495000",
          "095207.985000",
          "095209.475000",
          "095210.965000",
          "095212.455000",
          "095213.945000",
          "095215.435000",
          "095216.925000",
          "095218.415000",
          "095219.905000",
          "095221.395000",
          "095222.885000",
          "095224.375000",
          "095225.865000",
          "095227.355000",
          "095228.845000",
          "095230.335000",
          "095231.825000",
          "095233.315000",
          "095234.805000",
          "095236.295000",
          "095237.785000",
          "095239.275000",
          "095240.765000",
          "095242.255000",
          "095243.745000",
          "095245.235000",
          "095246.725000",
          "095248.215000",
          "095249.705000",
          "095251.195000",
          "095252.685000",
          "095254.175000",
          "095255.665000",
          "095257.155000",
          "095258.645000",
          "095300.135000",
          "095301.625000",
          "095303.115000",
          "095304.605000",
          "095306.095000",
          "095307.585000",
          "095309.075000",
          "095310.565000",
          "095312.055000",
          "095313.545000",
          "095315.035000",
          "095316.525000",
          "095318.015000",
          "095319.505000",
          "095320.995000",
          "095322.485000",
          "095323.975000",
          "095325.465000",
          "095326.955000",
          "095328.445000",
          "095329.935000",
          "095331.425000",
          "095332.915000",
          "095334.405000",
          "095335.895000",
          "095337.385000",
          "095338.875000",
          "095340.365000",
          "095341.855000",
          "095343.345000",
          "095344.835000",
          "095346.325000",
          "095347.815000",
          "095349.305000",
          "095350.795000",
          "095352.285000",
          "095353.775000",
          "095355.265000",
          "095356.755000",
          "095358.245000",
          "095359.735000",
          "095401.225000",
          "095402.715000",
          "095404.205000",
          "095405.695000",
          "095407.185000",
          "095408.675000",
          "095410.165000",
          "095411.655000",
          "095413.145000",
          "095414.635000",
          "095416.125000",
          "095417.615000",
          "095419.105000",
          "095420.595000",
          "095422.085000",
          "095423.575000",
          "095425.065000",
          "095426.555000",
          "095428.045000",
          "095429.535000",
          "095431.025000",
          "095432.515000",
          "095434.005000",
          "095435.495000",
          "095436.985000",
          "095438.475000",
          "095439.965000",
          "095441.455000",
          "095442.945000",
          "095444.435000",
          "095445.925000",
          "095447.415000",
          "095448.905000",
          "095450.395000",
          "095451.885000",
          "095453.375000",
          "095454.865000",
          "095456.355000",
          "095457.845000",
          "095459.335000",
          "095500.825000",
          "095502.315000",
          "095503.805000",
          "095505.295000",
          "095506.785000",
          "095508.275000",
          "095509.765000",
          "095511.255000",
          "095512.745000",
          "095514.235000",
          "095515.725000",
          "095517.215000",
          "095518.705000",
          "095520.195000",
          "095521.685000",
          "095523.175000",
          "095524.665000",
          "095526.155000",
          "095527.645000",
          "095529.135000",
          "095530.625000",
          "095532.115000",
          "095533.605000",
          "095535.095000",
          "095536.585000",
          "095538.075000",
          "095539.565000",
          "095541.055000",
          "095542.545000",
          "095544.035000",
          "095545.525000",
          "095547.015000",
          "095548.505000",
          "095549.995000",
          "095551.485000",
          "095552.975000",
          "095554.465000",
          "095555.955000",
          "095557.445000",
          "095558.935000",
          "095600.425000",
          "095601.915000",
          "095603.405000",
          "095604.895000",
          "095606.385000",
          "095607.875000",
          "095609.365000",
          "095610.855000",
          "095612.345000",
          "095613.835000",
          "095615.325000",
          "095616.815000",
          "095618.305000",
          "095619.795000",
          "095621.285000",
          "095622.775000",
          "095624.265000",
          "095625.755000",
          "095627.245000",
          "095628.735000",
          "095630.225000",
          "095631.715000",
          "095633.205000",
          "095634.695000",
          "095636.185000",
          "095637.675000",
          "095639.165000",
          "095640.655000",
          "095642.145000",
          "095643.635000",
          "095645.125000",
          "095646.615000",
          "095648.105000",
          "095649.595000",
          "095651.085000",
          "095652.575000",
          "095654.065000",
          "095655.555000",
          "095657.045000",
          "095658.535000",
          "095700.025000",
          "095701.515000",
          "095703.005000",
          "095704.495000",
          "095705.985000",
          "095707.475000",
          "095708.965000",
          "095710.455000",
          "095711.945000",
          "095713.435000",
          "095714.925000",
          "095716.415000",
          "095717.905000",
          "095719.395000",
          "095720.885000",
          "095722.375000",
          "095723.865000",
          "095725.355000",
          "095726.845000",
          "095728.335000",
          "095729.825000",
          "095731.315000",
          "095732.805000",
          "095734.295000",
          "095735.785000",
          "095737.275000",
          "095738.765000",
          "095740.255000",
          "095741.745000",
          "095743.235000",
          "095744.725000",
          "095746.215000",
          "095747.705000",
          "095749.195000",
          "095750.685000",
          "095752.175000",
          "095753.665000",
          "095755.155000",
          "095756.645000",
          "095758.135000",
          "095759.625000",
          "095801.115000",
          "095802.605000",
          "095804.095000",
          "095805.585000"
        ],
        "ContentTime": [
          "094916.672000",
          "094916.676000",
          "094916.682000",
          "094916.685000",
          "094916.689000",
          "094916.691000",
          "094916.695000",
          "094916.698000",
          "094916.701000",
          "094916.704000",
          "094916.707000",
          "094916.710000",
          "094916.713000",
          "094916.716000",
          "094916.720000",
          "094916.723000",
          "094916.726000",
          "094916.729000",
          "094916.732000",
          "094916.736000",
          "094936.632000",
          "094936.635000",
          "094936.638000",
          "094936.641000",
          "094936.644000",
          "094936.647000",
          "094936.650000",
          "094936.653000",
          "094936.656000",
          "094936.658000",
          "094936.661000",
          "094936.664000",
          "094936.667000",
          "094936.670000",
          "094936.673000",
          "094936.676000",
          "094936.679000",
          "094936.682000",
          "094936.685000",
          "094936.697000",
          "094956.632000",
          "094956.635000",
          "094956.647000",
          "094956.650000",
          "094956.654000",
          "094956.656000",
          "094956.659000",
          "094956.662000",
          "094956.665000",
          "094956.668000",
          "094956.671000",
          "094956.674000",
          "094956.683000",
          "094956.685000",
          "094956.688000",
          "094956.691000",
          "094956.694000",
          "094956.697000",
          "094956.700000",
          "094956.703000",
          "095016.632000",
          "095016.635000",
          "095016.638000",
          "095016.641000",
          "095016.644000",
          "095016.647000",
          "095016.650000",
          "095016.653000",
          "095016.656000",
          "095016.659000",
          "095016.661000",
          "095016.664000",
          "095016.667000",
          "095016.670000",
          "095016.673000",
          "095016.676000",
          "095016.679000",
          "095016.682000",
          "095016.685000",
          "095016.688000",
          "095016.691000",
          "095036.631000",
          "095036.634000",
          "095036.637000",
          "095036.641000",
          "095036.644000",
          "095036.647000",
          "095036.650000",
          "095036.653000",
          "095036.656000",
          "095036.659000",
          "095036.662000",
          "095036.665000",
          "095036.669000",
          "095036.672000",
          "095036.675000",
          "095036.678000",
          "095036.681000",
          "095036.684000",
          "095036.687000",
          "095036.690000",
          "095116.631000",
          "095116.634000",
          "095116.637000",
          "095116.640000",
          "095116.643000",
          "095116.646000",
          "095116.649000",
          "095116.652000",
          "095116.655000",
          "095116.658000",
          "095116.661000",
          "095116.664000",
          "095116.666000",
          "095116.669000",
          "095116.672000",
          "095116.675000",
          "095116.678000",
          "095116.681000",
          "095116.685000",
          "095116.687000",
          "095116.690000",
          "095116.700000",
          "095116.703000",
          "095116.706000",
          "095116.709000",
          "095116.712000",
          "095116.715000",
          "095116.718000",
          "095136.632000",
          "095136.636000",
          "095136.639000",
          "095136.642000",
          "095136.645000",
          "095136.648000",
          "095136.651000",
          "095136.654000",
          "095136.657000",
          "095136.660000",
          "095136.663000",
          "095136.666000",
          "095136.669000",
          "095136.672000",
          "095216.632000",
          "095216.635000",
          "095216.638000",
          "095216.641000",
          "095216.644000",
          "095216.647000",
          "095216.650000",
          "095216.653000",
          "095216.656000",
          "095216.659000",
          "095216.662000",
          "095216.665000",
          "095216.668000",
          "095216.671000",
          "095216.674000",
          "095216.677000",
          "095216.679000",
          "095216.682000",
          "095216.685000",
          "095216.694000",
          "095216.697000",
          "095216.700000",
          "095216.702000",
          "095216.705000",
          "095216.708000",
          "095216.711000",
          "095216.714000",
          "095256.631000",
          "095256.634000",
          "095256.637000",
          "095256.640000",
          "095256.643000",
          "095256.646000",
          "095256.649000",
          "095256.652000",
          "095256.655000",
          "095256.658000",
          "095256.661000",
          "095256.663000",
          "095256.666000",
          "095256.669000",
          "095256.672000",
          "095256.675000",
          "095256.678000",
          "095256.681000",
          "095256.684000",
          "095256.687000",
          "095256.690000",
          "095256.693000",
          "095256.696000",
          "095256.699000",
          "095256.702000",
          "095256.705000",
          "095256.708000",
          "095336.631000",
          "095336.634000",
          "095336.637000",
          "095336.640000",
          "095336.643000",
          "095336.646000",
          "095336.649000",
          "095336.652000",
          "095336.655000",
          "095336.658000",
          "095336.660000",
          "095336.663000",
          "095336.666000",
          "095336.669000",
          "095336.672000",
          "095336.675000",
          "095336.678000",
          "095336.681000",
          "095336.691000",
          "095336.694000",
          "095336.697000",
          "095336.700000",
          "095336.703000",
          "095336.706000",
          "095336.709000",
          "095336.712000",
