{
  "aor": 0.0010296534653465345,
  "aqi": 0.005798534084158416,
  "bids_meta": {
    "AcquisitionMatrixPE": 104,
    "AcquisitionNumber": 1,
    "AcquisitionTime": "09:27:5.092500",
    "BandwidthPerPixelPhaseEncode": 17.17,
    "BaseResolution": 104,
    "BodyPartExamined": "BRAIN",
    "CogAtlasID": "trm_4c898da401420",
    "ConsistencyInfo": "N4_VE11C_LATEST_20160120",
    "ConversionSoftware": "dcm2niix",
    "ConversionSoftwareVersion": "v1.0.20171215 (OpenJPEG build) GCC7.3.0",
    "DerivedVendorReportedEchoSpacing": 0.000560011,
    "DeviceSerialNumber": "167006",
    "DwellTime": 2.1e-06,
    "EchoTime": 0.037,
    "EchoTrainLength": 104,
    "EffectiveEchoSpacing": 0.000560011,
    "FlipAngle": 52,
    "ImageComments": "Unaliased_MB4_PE3_LB",
    "ImageOrientationPatientDICOM": [
      0.999618,
      0.0275532,
      -0.00235712,
      -0.0272234,
      0.965496,
      -0.258991
    ],
    "ImageType": [
      "ORIGINAL",
      "PRIMARY",
      "M",
      "MB",
      "ND",
      "MOSAIC"
    ],
    "InPlanePhaseEncodingDirectionDICOM": "COL",
    "InstitutionAddress": "Chemin_Queen-Mary_4565_Montreal_District_CA_H3W_1W5",
    "InstitutionName": "IUGM",
    "InstitutionalDepartmentName": "Department",
    "MRAcquisitionType": "2D",
    "MagneticFieldStrength": 3,
    "Manufacturer": "Siemens",
    "ManufacturersModelName": "Prisma_fit",
    "Modality": "MR",
    "MultibandAccelerationFactor": 4,
    "PartialFourier": 1,
    "PatientPosition": "HFS",
    "PercentPhaseFOV": 100,
    "PhaseEncodingDirection": "j-",
    "PhaseEncodingSteps": 104,
    "PhaseResolution": 1,
    "PixelBandwidth": 2290,
    "ProcedureStepDescription": "video5_generic",
    "ProtocolName": "func_task-wolf7",
    "PulseSequenceDetails": "%CustomerSeq%_cmrr_mbep2d_bold",
    "ReceiveCoilActiveElements": "HC1-7;NC1,2",
    "ReceiveCoilName": "HeadNeck_64",
    "ReconMatrixPE": 104,
    "RepetitionTime": 1.49,
    "SAR": 0.0301936,
    "ScanOptions": "FS",
    "ScanningSequence": "EP",
    "SequenceName": "epfid2d1_104",
    "SequenceVariant": "SK_SS",
    "SeriesDescription": "func_task-wolf7",
    "SeriesNumber": 7,
    "ShimSetting": [
      624,
      -7209,
      -8799,
      662,
      18,
      -21,
      22,
      1
    ],
    "SliceThickness": 2,
    "SliceTiming": [
      0,
      0.785,
      0.1,
      0.8825,
      0.1975,
      0.98,
      0.295,
      1.08,
      0.3925,
      1.1775,
      0.49,
      1.275,
      0.59,
      1.3725,
      0.6875,
      0,
      0.785,
      0.1,
      0.8825,
      0.1975,
      0.98,
      0.295,
      1.08,
      0.3925,
      1.1775,
      0.49,
      1.275,
      0.59,
      1.3725,
      0.6875,
      0,
      0.785,
      0.1,
      0.8825,
      0.1975,
      0.98,
      0.295,
      1.08,
      0.3925,
      1.1775,
      0.49,
      1.275,
      0.59,
      1.3725,
      0.6875,
      0,
      0.785,
      0.1,
      0.8825,
      0.1975,
      0.98,
      0.295,
      1.08,
      0.3925,
      1.1775,
      0.49,
      1.275,
      0.59,
      1.3725,
      0.6875
    ],
    "SoftwareVersions": "syngo_MR_E11",
    "SpacingBetweenSlices": 2,
    "StationName": "MRC35049",
    "TaskName": "wolf07",
    "TotalReadoutTime": 0.0576811,
    "TxRefAmp": 208.306,
    "dataset": "<unset>",
    "dcmmeta_affine": [
      [
        -1.9992351531982422,
        -0.054446831345558167,
        0.00972048006951809,
        110.43488311767578
      ],
      [
        -0.055106453597545624,
        1.9309922456741333,
        -0.5179116129875183,
        -69.08301544189453
      ],
      [
        -0.004714237991720438,
        0.5179813504219055,
        1.9317538738250732,
        -58.27206039428711
      ],
      [
        0.0,
        0.0,
        0.0,
        1.0
      ]
    ],
    "dcmmeta_reorient_transform": [
      [
        0.0,
        -1.0,
        0.0,
        103.0
      ],
      [
        1.0,
        0.0,
        0.0,
        0.0
      ],
      [
        0.0,
        0.0,
        1.0,
        0.0
      ],
      [
        0.0,
        0.0,
        0.0,
        1.0
      ]
    ],
    "dcmmeta_shape": [
      104,
      104,
      60,
      406
    ],
    "dcmmeta_slice_dim": 2,
    "dcmmeta_version": 0.6,
    "global": {
      "const": {
        "AcquisitionMatrix": [
          104,
          0,
          0,
          104
        ],
        "AngioFlag": "N",
        "BitsAllocated": 16,
        "BitsStored": 16,
        "BodyPartExamined": "BRAIN",
        "Columns": 832,
        "EchoNumbers": 1,
        "EchoTime": 37.0,
        "EchoTrainLength": 104,
        "FlipAngle": 52.0,
        "HighBit": 15,
        "ImageOrientationPatient": [
          0.99961755869791,
          0.02755322725893,
          -0.0023571190997,
          -0.0272234166038,
          0.9654960963854,
          -0.258990682174
        ],
        "ImagePositionPatient": [
          -812.72979504629,
          -852.74908835851,
          185.34121959778
        ],
        "ImageType": [
          "ORIGINAL",
          "PRIMARY",
          "M",
          "MB",
          "ND",
          "MOSAIC"
        ],
        "ImagedNucleus": "1H",
        "ImagingFrequency": 123.257978,
        "InPlanePhaseEncodingDirection": "COL",
        "MRAcquisitionType": "2D",
        "MagneticFieldStrength": 3.0,
        "Manufacturer": "SIEMENS",
        "ManufacturerModelName": "Prisma_fit",
        "Modality": "MR",
        "NumberOfAverages": 1.0,
        "NumberOfPhaseEncodingSteps": 104,
        "PercentPhaseFieldOfView": 100.0,
        "PercentSampling": 100.0,
        "PerformedProcedureStepStartTime": "092437.265000",
        "PhotometricInterpretation": "MONOCHROME2",
        "PixelBandwidth": 2290.0,
        "PixelRepresentation": 0,
        "PixelSpacing": [
          2.0,
          2.0
        ],
        "ProtocolName": "func_task-wolf7",
        "RepetitionTime": 1490.0,
        "Rows": 832,
        "SAR": 0.03019361213191,
        "SamplesPerPixel": 1,
        "ScanOptions": "FS",
        "ScanningSequence": "EP",
        "SequenceName": "epfid2d1_104",
        "SequenceVariant": [
          "SK",
          "SS"
        ],
        "SeriesDescription": "func_task-wolf7",
        "SeriesNumber": 7,
        "SeriesTime": "092831.755000",
        "SliceLocation": -37.857451848572,
        "SliceThickness": 2.0,
        "SmallestImagePixelValue": 0,
        "SoftwareVersions": "syngo MR E11",
        "SpacingBetweenSlices": 2.0000000139503,
        "SpecificCharacterSet": "ISO_IR 100",
        "StudyID": "1",
        "StudyTime": "092437.123000",
        "TransmitCoilName": "Body",
        "VariableFlipAngleFlag": "N",
        "WindowCenterWidthExplanation": "Algo1",
        "dBdt": 0.0
      },
      "slices": {}
    },
    "modality": "bold",
    "session_id": "004",
    "subject_id": "03",
    "task_id": "wolf07",
    "time": {
      "samples": {
        "AcquisitionNumber": [
          1,
          2,
          3,
          4,
          5,
          6,
          7,
          8,
          9,
          10,
          11,
          12,
          13,
          14,
          15,
          16,
          17,
          18,
          19,
          20,
          21,
          22,
          23,
          24,
          25,
          26,
          27,
          28,
          29,
          30,
          31,
          32,
          33,
          34,
          35,
          36,
          37,
          38,
          39,
          40,
          41,
          42,
          43,
          44,
          45,
          46,
          47,
          48,
          49,
          50,
          51,
          52,
          53,
          54,
          55,
          56,
          57,
          58,
          59,
          60,
          61,
          62,
          63,
          64,
          65,
          66,
          67,
          68,
          69,
          70,
          71,
          72,
          73,
          74,
          75,
          76,
          77,
          78,
          79,
          80,
          81,
          82,
          83,
          84,
          85,
          86,
          87,
          88,
          89,
          90,
          91,
          92,
          93,
          94,
          95,
          96,
          97,
          98,
          99,
          100,
          101,
          102,
          103,
          104,
          105,
          106,
          107,
          108,
          109,
          110,
          111,
          112,
          113,
          114,
          115,
          116,
          117,
          118,
          119,
          120,
          121,
          122,
          123,
          124,
          125,
          126,
          127,
          128,
          129,
          130,
          131,
          132,
          133,
          134,
          135,
          136,
          137,
          138,
          139,
          140,
          141,
          142,
          143,
          144,
          145,
          146,
          147,
          148,
          149,
          150,
          151,
          152,
          153,
          154,
          155,
          156,
          157,
          158,
          159,
          160,
          161,
          162,
          163,
          164,
          165,
          166,
          167,
          168,
          169,
          170,
          171,
          172,
          173,
          174,
          175,
          176,
          177,
          178,
          179,
          180,
          181,
          182,
          183,
          184,
          185,
          186,
          187,
          188,
          189,
          190,
          191,
          192,
          193,
          194,
          195,
          196,
          197,
          198,
          199,
          200,
          201,
          202,
          203,
          204,
          205,
          206,
          207,
          208,
          209,
          210,
          211,
          212,
          213,
          214,
          215,
          216,
          217,
          218,
          219,
          220,
          221,
          222,
          223,
          224,
          225,
          226,
          227,
          228,
          229,
          230,
          231,
          232,
          233,
          234,
          235,
          236,
          237,
          238,
          239,
          240,
          241,
          242,
          243,
          244,
          245,
          246,
          247,
          248,
          249,
          250,
          251,
          252,
          253,
          254,
          255,
          256,
          257,
          258,
          259,
          260,
          261,
          262,
          263,
          264,
          265,
          266,
          267,
          268,
          269,
          270,
          271,
          272,
          273,
          274,
          275,
          276,
          277,
          278,
          279,
          280,
          281,
          282,
          283,
          284,
          285,
          286,
          287,
          288,
          289,
          290,
          291,
          292,
          293,
          294,
          295,
          296,
          297,
          298,
          299,
          300,
          301,
          302,
          303,
          304,
          305,
          306,
          307,
          308,
          309,
          310,
          311,
          312,
          313,
          314,
          315,
          316,
          317,
          318,
          319,
          320,
          321,
          322,
          323,
          324,
          325,
          326,
          327,
          328,
          329,
          330,
          331,
          332,
          333,
          334,
          335,
          336,
          337,
          338,
          339,
          340,
          341,
          342,
          343,
          344,
          345,
          346,
          347,
          348,
          349,
          350,
          351,
          352,
          353,
          354,
          355,
          356,
          357,
          358,
          359,
          360,
          361,
          362,
          363,
          364,
          365,
          366,
          367,
          368,
          369,
          370,
          371,
          372,
          373,
          374,
          375,
          376,
          377,
          378,
          379,
          380,
          381,
          382,
          383,
          384,
          385,
          386,
          387,
          388,
          389,
          390,
          391,
          392,
          393,
          394,
          395,
          396,
          397,
          398,
          399,
          400,
          401,
          402,
          403,
          404,
          405,
          406
        ],
        "AcquisitionTime": [
          "092705.092500",
          "092706.582500",
          "092708.072500",
          "092709.562500",
          "092711.052500",
          "092712.542500",
          "092714.032500",
          "092715.522500",
          "092717.012500",
          "092718.502500",
          "092719.992500",
          "092721.482500",
          "092722.972500",
          "092724.462500",
          "092725.952500",
          "092727.442500",
          "092728.932500",
          "092730.422500",
          "092731.912500",
          "092733.402500",
          "092734.892500",
          "092736.382500",
          "092737.872500",
          "092739.362500",
          "092740.852500",
          "092742.342500",
          "092743.832500",
          "092745.322500",
          "092746.812500",
          "092748.302500",
          "092749.792500",
          "092751.282500",
          "092752.772500",
          "092754.262500",
          "092755.752500",
          "092757.242500",
          "092758.732500",
          "092800.222500",
          "092801.712500",
          "092803.202500",
          "092804.692500",
          "092806.182500",
          "092807.672500",
          "092809.162500",
          "092810.652500",
          "092812.142500",
          "092813.632500",
          "092815.122500",
          "092816.612500",
          "092818.102500",
          "092819.592500",
          "092821.082500",
          "092822.572500",
          "092824.062500",
          "092825.552500",
          "092827.042500",
          "092828.532500",
          "092830.022500",
          "092831.512500",
          "092833.002500",
          "092834.492500",
          "092835.982500",
          "092837.472500",
          "092838.962500",
          "092840.452500",
          "092841.942500",
          "092843.432500",
          "092844.922500",
          "092846.412500",
          "092847.902500",
          "092849.392500",
          "092850.882500",
          "092852.372500",
          "092853.862500",
          "092855.352500",
          "092856.842500",
          "092858.332500",
          "092859.822500",
          "092901.312500",
          "092902.802500",
          "092904.292500",
          "092905.782500",
          "092907.272500",
          "092908.762500",
          "092910.252500",
          "092911.742500",
          "092913.232500",
          "092914.722500",
          "092916.212500",
          "092917.702500",
          "092919.192500",
          "092920.682500",
          "092922.172500",
          "092923.662500",
          "092925.152500",
          "092926.642500",
          "092928.132500",
          "092929.622500",
          "092931.112500",
          "092932.602500",
          "092934.092500",
          "092935.582500",
          "092937.072500",
          "092938.562500",
          "092940.052500",
          "092941.542500",
          "092943.032500",
          "092944.522500",
          "092946.012500",
          "092947.502500",
          "092948.992500",
          "092950.482500",
          "092951.972500",
          "092953.462500",
          "092954.952500",
          "092956.442500",
          "092957.932500",
          "092959.422500",
          "093000.912500",
          "093002.402500",
          "093003.892500",
          "093005.382500",
          "093006.872500",
          "093008.362500",
          "093009.852500",
          "093011.342500",
          "093012.832500",
          "093014.322500",
          "093015.812500",
          "093017.302500",
          "093018.792500",
          "093020.282500",
          "093021.772500",
          "093023.262500",
          "093024.752500",
          "093026.242500",
          "093027.732500",
          "093029.222500",
          "093030.712500",
          "093032.202500",
          "093033.692500",
          "093035.182500",
          "093036.672500",
          "093038.162500",
          "093039.652500",
          "093041.142500",
          "093042.632500",
          "093044.122500",
          "093045.612500",
          "093047.102500",
          "093048.592500",
          "093050.082500",
          "093051.572500",
          "093053.062500",
          "093054.552500",
          "093056.042500",
          "093057.532500",
          "093059.022500",
          "093100.512500",
          "093102.002500",
          "093103.492500",
          "093104.982500",
          "093106.472500",
          "093107.962500",
          "093109.452500",
          "093110.942500",
          "093112.432500",
          "093113.922500",
          "093115.412500",
          "093116.902500",
          "093118.392500",
          "093119.882500",
          "093121.372500",
          "093122.862500",
          "093124.352500",
          "093125.842500",
          "093127.332500",
          "093128.822500",
          "093130.312500",
          "093131.802500",
          "093133.292500",
          "093134.782500",
          "093136.272500",
          "093137.762500",
          "093139.252500",
          "093140.742500",
          "093142.232500",
          "093143.722500",
          "093145.212500",
          "093146.702500",
          "093148.192500",
          "093149.682500",
          "093151.172500",
          "093152.662500",
          "093154.152500",
          "093155.642500",
          "093157.132500",
          "093158.622500",
          "093200.112500",
          "093201.602500",
          "093203.092500",
          "093204.582500",
          "093206.072500",
          "093207.562500",
          "093209.052500",
          "093210.542500",
          "093212.032500",
          "093213.522500",
          "093215.012500",
          "093216.502500",
          "093217.992500",
          "093219.482500",
          "093220.972500",
          "093222.462500",
          "093223.952500",
          "093225.442500",
          "093226.932500",
          "093228.422500",
          "093229.912500",
          "093231.402500",
          "093232.892500",
          "093234.382500",
          "093235.872500",
          "093237.362500",
          "093238.852500",
          "093240.342500",
          "093241.832500",
          "093243.322500",
          "093244.812500",
          "093246.302500",
          "093247.792500",
          "093249.282500",
          "093250.772500",
          "093252.262500",
          "093253.752500",
          "093255.242500",
          "093256.732500",
          "093258.222500",
          "093259.712500",
          "093301.202500",
          "093302.692500",
          "093304.182500",
          "093305.672500",
          "093307.162500",
          "093308.652500",
          "093310.142500",
          "093311.632500",
          "093313.122500",
          "093314.612500",
          "093316.102500",
          "093317.592500",
          "093319.082500",
          "093320.572500",
          "093322.062500",
          "093323.552500",
          "093325.042500",
          "093326.532500",
          "093328.022500",
          "093329.512500",
          "093331.002500",
          "093332.492500",
          "093333.982500",
          "093335.472500",
          "093336.962500",
          "093338.452500",
          "093339.942500",
          "093341.432500",
          "093342.922500",
          "093344.412500",
          "093345.902500",
          "093347.392500",
          "093348.882500",
          "093350.372500",
          "093351.862500",
          "093353.352500",
          "093354.842500",
          "093356.332500",
          "093357.822500",
          "093359.312500",
          "093400.802500",
          "093402.292500",
          "093403.782500",
          "093405.272500",
          "093406.762500",
          "093408.252500",
          "093409.742500",
          "093411.232500",
          "093412.722500",
          "093414.212500",
          "093415.702500",
          "093417.192500",
          "093418.682500",
          "093420.172500",
          "093421.662500",
          "093423.152500",
          "093424.642500",
          "093426.132500",
          "093427.622500",
          "093429.112500",
          "093430.602500",
          "093432.092500",
          "093433.582500",
          "093435.072500",
          "093436.562500",
          "093438.052500",
          "093439.542500",
          "093441.032500",
          "093442.522500",
          "093444.012500",
          "093445.502500",
          "093446.992500",
          "093448.482500",
          "093449.972500",
          "093451.462500",
          "093452.952500",
          "093454.442500",
          "093455.932500",
          "093457.422500",
          "093458.912500",
          "093500.402500",
          "093501.892500",
          "093503.382500",
          "093504.872500",
          "093506.362500",
          "093507.852500",
          "093509.342500",
          "093510.832500",
          "093512.322500",
          "093513.812500",
          "093515.302500",
          "093516.792500",
          "093518.282500",
          "093519.772500",
          "093521.262500",
          "093522.752500",
          "093524.242500",
          "093525.732500",
          "093527.222500",
          "093528.712500",
          "093530.202500",
          "093531.692500",
          "093533.182500",
          "093534.672500",
          "093536.162500",
          "093537.652500",
          "093539.142500",
          "093540.632500",
          "093542.122500",
          "093543.612500",
          "093545.102500",
          "093546.592500",
          "093548.082500",
          "093549.572500",
          "093551.062500",
          "093552.552500",
          "093554.042500",
          "093555.532500",
          "093557.022500",
          "093558.512500",
          "093600.002500",
          "093601.492500",
          "093602.982500",
          "093604.472500",
          "093605.962500",
          "093607.452500",
          "093608.942500",
          "093610.432500",
          "093611.922500",
          "093613.412500",
          "093614.902500",
          "093616.392500",
          "093617.882500",
          "093619.372500",
          "093620.862500",
          "093622.352500",
          "093623.842500",
          "093625.332500",
          "093626.822500",
          "093628.312500",
          "093629.802500",
          "093631.292500",
          "093632.782500",
          "093634.272500",
          "093635.762500",
          "093637.252500",
          "093638.742500",
          "093640.232500",
          "093641.722500",
          "093643.212500",
          "093644.702500",
          "093646.192500",
          "093647.682500",
          "093649.172500",
          "093650.662500",
          "093652.152500",
          "093653.642500",
          "093655.132500",
          "093656.622500",
          "093658.112500",
          "093659.602500",
          "093701.092500",
          "093702.582500",
          "093704.072500",
          "093705.562500",
          "093707.052500",
          "093708.542500"
        ],
        "ContentTime": [
          "092831.758000",
          "092831.761000",
          "092831.764000",
          "092831.767000",
          "092831.770000",
          "092831.773000",
          "092831.776000",
          "092831.783000",
          "092831.786000",
          "092831.789000",
          "092831.792000",
          "092831.795000",
          "092831.798000",
          "092831.801000",
          "092831.804000",
          "092831.807000",
          "092831.810000",
          "092831.813000",
          "092831.816000",
          "092831.818000",
          "092831.821000",
          "092831.834000",
          "092831.837000",
          "092831.840000",
          "092831.843000",
          "092831.846000",
          "092831.849000",
          "092831.852000",
          "092831.855000",
          "092851.704000",
          "092851.713000",
          "092851.716000",
          "092851.719000",
          "092851.722000",
          "092851.725000",
          "092851.728000",
          "092851.731000",
          "092851.734000",
          "092851.737000",
          "092851.740000",
          "092851.743000",
          "092851.745000",
          "092851.748000",
          "092851.751000",
          "092851.754000",
          "092851.757000",
          "092851.760000",
          "092851.763000",
          "092851.766000",
          "092911.703000",
          "092911.706000",
          "092911.709000",
          "092911.712000",
          "092911.715000",
          "092911.718000",
          "092911.721000",
          "092911.723000",
          "092911.726000",
          "092911.729000",
          "092911.732000",
          "092911.735000",
          "092911.738000",
          "092911.741000",
          "092911.744000",
          "092911.747000",
          "092911.750000",
          "092911.753000",
          "092911.756000",
          "092911.759000",
          "092931.703000",
          "092931.706000",
          "092931.709000",
          "092931.712000",
          "092931.715000",
          "092931.718000",
          "092931.721000",
          "092931.724000",
          "092931.731000",
          "092931.734000",
          "092931.737000",
          "092931.740000",
          "092931.743000",
          "092931.746000",
          "092931.749000",
          "092931.752000",
          "092931.754000",
          "092931.757000",
          "092931.760000",
          "092931.763000",
          "092931.766000",
          "092951.703000",
          "092951.706000",
          "092951.709000",
          "092951.712000",
          "092951.715000",
          "092951.718000",
          "092951.721000",
          "092951.724000",
          "092951.726000",
          "092951.729000",
          "092951.732000",
          "092951.735000",
          "092951.738000",
          "092951.741000",
          "092951.744000",
          "092951.747000",
          "092951.752000",
          "092951.755000",
          "092951.758000",
          "092951.761000",
          "093031.703000",
          "093031.706000",
          "093031.709000",
          "093031.712000",
          "093031.715000",
          "093031.718000",
          "093031.721000",
          "093031.724000",
          "093031.727000",
          "093031.730000",
          "093031.733000",
          "093031.736000",
          "093031.739000",
          "093031.741000",
          "093031.744000",
          "093031.747000",
          "093031.750000",
          "093031.753000",
          "093031.756000",
          "093031.759000",
          "093031.762000",
          "093031.771000",
          "093031.774000",
          "093031.777000",
          "093031.780000",
          "093031.783000",
          "093031.786000",
          "093031.789000",
          "093111.704000",
          "093111.707000",
          "093111.710000",
          "093111.713000",
          "093111.716000",
          "093111.719000",
          "093111.722000",
          "093111.725000",
          "093111.728000",
          "093111.731000",
          "093111.733000",
          "093111.736000",
          "093111.739000",
          "093111.742000",
          "093111.745000",
          "093111.748000",
          "093111.751000",
          "093111.754000",
          "093111.757000",
          "093111.760000",
          "093111.763000",
          "093111.766000",
          "093111.769000",
          "093111.772000",
          "093111.775000",
          "093111.778000",
          "093111.780000",
          "093151.703000",
          "093151.706000",
          "093151.709000",
          "093151.712000",
          "093151.715000",
          "093151.718000",
          "093151.721000",
          "093151.724000",
          "093151.727000",
          "093151.730000",
          "093151.733000",
          "093151.736000",
          "093151.739000",
          "093151.742000",
          "093151.745000",
          "093151.748000",
          "093151.751000",
          "093151.754000",
          "093151.757000",
          "093151.760000",
          "093151.763000",
          "093151.766000",
          "093151.769000",
          "093151.785000",
          "093151.788000",
          "093151.791000",
          "093231.703000",
          "093231.706000",
          "093231.709000",
          "093231.712000",
          "093231.715000",
          "093231.718000",
          "093231.721000",
          "093231.724000",
          "093231.727000",
          "093231.745000",
          "093231.748000",
          "093231.751000",
          "093231.754000",
          "093231.757000",
          "093231.760000",
          "093231.763000",
          "093231.766000",
          "093231.769000",
          "093231.771000",
          "093231.774000",
          "093231.777000",
          "093231.780000",
          "093231.783000",
          "093231.786000",
          "093231.789000",
          "093231.792000",
          "093231.795000",
          "093311.703000",
          "093311.706000",
          "093311.709000",
          "093311.712000",
          "093311.715000",
          "093311.718000",
