{
  "aor": 0.00389283950617284,
  "aqi": 0.009246081925925926,
  "bids_meta": {
    "AcquisitionMatrixPE": 104,
    "AcquisitionNumber": 1,
    "AcquisitionTime": "18:27:1.255000",
    "BandwidthPerPixelPhaseEncode": 17.17,
    "BaseResolution": 104,
    "BodyPartExamined": "BRAIN",
    "CogAtlasID": "trm_4c898da401420",
    "ConsistencyInfo": "N4_VE11C_LATEST_20160120",
    "ConversionSoftware": "dcm2niix",
    "ConversionSoftwareVersion": "v1.0.20171215 (OpenJPEG build) GCC7.3.0",
    "DerivedVendorReportedEchoSpacing": 0.000560011,
    "DeviceSerialNumber": "167006",
    "DwellTime": 2.1e-06,
    "EchoTime": 0.037,
    "EchoTrainLength": 104,
    "EffectiveEchoSpacing": 0.000560011,
    "FlipAngle": 52,
    "ImageComments": "Unaliased_MB4_PE3_LB",
    "ImageOrientationPatientDICOM": [
      0.999393,
      0.0114321,
      -0.0329094,
      -0.0219813,
      0.939782,
      -0.341066
    ],
    "ImageType": [
      "ORIGINAL",
      "PRIMARY",
      "M",
      "MB",
      "ND",
      "MOSAIC"
    ],
    "InPlanePhaseEncodingDirectionDICOM": "COL",
    "InstitutionAddress": "Chemin_Queen-Mary_4565_Montreal_District_CA_H3W_1W5",
    "InstitutionName": "IUGM",
    "InstitutionalDepartmentName": "Department",
    "MRAcquisitionType": "2D",
    "MagneticFieldStrength": 3,
    "Manufacturer": "Siemens",
    "ManufacturersModelName": "Prisma_fit",
    "Modality": "MR",
    "MultibandAccelerationFactor": 4,
    "PartialFourier": 1,
    "PatientPosition": "HFS",
    "PercentPhaseFOV": 100,
    "PhaseEncodingDirection": "j-",
    "PhaseEncodingSteps": 104,
    "PhaseResolution": 1,
    "PixelBandwidth": 2290,
    "ProcedureStepDescription": "video5_generic",
    "ProtocolName": "func_task-bourne2",
    "PulseSequenceDetails": "%CustomerSeq%_cmrr_mbep2d_bold",
    "ReceiveCoilActiveElements": "HC1-7;NC1,2",
    "ReceiveCoilName": "HeadNeck_64",
    "ReconMatrixPE": 104,
    "RepetitionTime": 1.49,
    "SAR": 0.0345887,
    "ScanOptions": "FS",
    "ScanningSequence": "EP",
    "SequenceName": "epfid2d1_104",
    "SequenceVariant": "SK_SS",
    "SeriesDescription": "func_task-bourne2",
    "SeriesNumber": 16,
    "ShimSetting": [
      613,
      -7234,
      -8871,
      402,
      -1,
      -355,
      -1,
      40
    ],
    "SliceThickness": 2,
    "SliceTiming": [
      0,
      0.785,
      0.0975,
      0.8825,
      0.195,
      0.98,
      0.295,
      1.0775,
      0.3925,
      1.175,
      0.49,
      1.275,
      0.5875,
      1.3725,
      0.685,
      0,
      0.785,
      0.0975,
      0.8825,
      0.195,
      0.98,
      0.295,
      1.0775,
      0.3925,
      1.175,
      0.49,
      1.275,
      0.5875,
      1.3725,
      0.685,
      0,
      0.785,
      0.0975,
      0.8825,
      0.195,
      0.98,
      0.295,
      1.0775,
      0.3925,
      1.175,
      0.49,
      1.275,
      0.5875,
      1.3725,
      0.685,
      0,
      0.785,
      0.0975,
      0.8825,
      0.195,
      0.98,
      0.295,
      1.0775,
      0.3925,
      1.175,
      0.49,
      1.275,
      0.5875,
      1.3725,
      0.685
    ],
    "SoftwareVersions": "syngo_MR_E11",
    "SpacingBetweenSlices": 2,
    "StationName": "MRC35049",
    "TaskName": "bourne02",
    "TotalReadoutTime": 0.0576811,
    "TxRefAmp": 236.023,
    "dataset": "<unset>",
    "dcmmeta_affine": [
      [
        -1.9987858533859253,
        -0.043962568044662476,
        -0.05405709892511368,
        106.29731750488281
      ],
      [
        -0.022864172235131264,
        1.879564642906189,
        -0.6831647157669067,
        -60.62767791748047
      ],
      [
        -0.06581874191761017,
        0.6821320056915283,
        1.8789262771606445,
        -75.098876953125
      ],
      [
        0.0,
        0.0,
        0.0,
        1.0
      ]
    ],
    "dcmmeta_reorient_transform": [
      [
        0.0,
        -1.0,
        0.0,
        103.0
      ],
      [
        1.0,
        0.0,
        0.0,
        0.0
      ],
      [
        0.0,
        0.0,
        1.0,
        0.0
      ],
      [
        0.0,
        0.0,
        0.0,
        1.0
      ]
    ],
    "dcmmeta_shape": [
      104,
      104,
      60,
      406
    ],
    "dcmmeta_slice_dim": 2,
    "dcmmeta_version": 0.6,
    "global": {
      "const": {
        "AcquisitionMatrix": [
          104,
          0,
          0,
          104
        ],
        "AngioFlag": "N",
        "BitsAllocated": 16,
        "BitsStored": 16,
        "BodyPartExamined": "BRAIN",
        "Columns": 832,
        "EchoNumbers": 1,
        "EchoTime": 37.0,
        "EchoTrainLength": 104,
        "FlipAngle": 52.0,
        "HighBit": 15,
        "ImageOrientationPatient": [
          0.99939295614018,
          0.01143208636124,
          -0.0329093697724,
          -0.0219812831448,
          0.93978232136596,
          -0.3410659930854
        ],
        "ImagePositionPatient": [
          -813.32487322641,
          -825.45157070071,
          267.41478247626
        ],
        "ImageType": [
          "ORIGINAL",
          "PRIMARY",
          "M",
          "MB",
          "ND",
          "MOSAIC"
        ],
        "ImagedNucleus": "1H",
        "ImagingFrequency": 123.259417,
        "InPlanePhaseEncodingDirection": "COL",
        "MRAcquisitionType": "2D",
        "MagneticFieldStrength": 3.0,
        "Manufacturer": "SIEMENS",
        "ManufacturerModelName": "Prisma_fit",
        "Modality": "MR",
        "NumberOfAverages": 1.0,
        "NumberOfPhaseEncodingSteps": 104,
        "PercentPhaseFieldOfView": 100.0,
        "PercentSampling": 100.0,
        "PerformedProcedureStepStartTime": "174525.589000",
        "PhotometricInterpretation": "MONOCHROME2",
        "PixelBandwidth": 2290.0,
        "PixelRepresentation": 0,
        "PixelSpacing": [
          2.0,
          2.0
        ],
        "ProtocolName": "func_task-bourne2",
        "RepetitionTime": 1490.0,
        "Rows": 832,
        "SAR": 0.03458869700965,
        "SamplesPerPixel": 1,
        "ScanOptions": "FS",
        "ScanningSequence": "EP",
        "SequenceName": "epfid2d1_104",
        "SequenceVariant": [
          "SK",
          "SS"
        ],
        "SeriesDescription": "func_task-bourne2",
        "SeriesNumber": 16,
        "SeriesTime": "182758.362000",
        "SliceLocation": -52.716343500502,
        "SliceThickness": 2.0,
        "SmallestImagePixelValue": 0,
        "SoftwareVersions": "syngo MR E11",
        "SpacingBetweenSlices": 2.0000000426082,
        "SpecificCharacterSet": "ISO_IR 100",
        "StudyID": "1",
        "StudyTime": "174525.524000",
        "TransmitCoilName": "Body",
        "VariableFlipAngleFlag": "N",
        "WindowCenterWidthExplanation": "Algo1",
        "dBdt": 0.0
      },
      "slices": {}
    },
    "modality": "bold",
    "session_id": "009",
    "subject_id": "05",
    "task_id": "bourne02",
    "time": {
      "samples": {
        "AcquisitionNumber": [
          1,
          2,
          3,
          4,
          5,
          6,
          7,
          8,
          9,
          10,
          11,
          12,
          13,
          14,
          15,
          16,
          17,
          18,
          19,
          20,
          21,
          22,
          23,
          24,
          25,
          26,
          27,
          28,
          29,
          30,
          31,
          32,
          33,
          34,
          35,
          36,
          37,
          38,
          39,
          40,
          41,
          42,
          43,
          44,
          45,
          46,
          47,
          48,
          49,
          50,
          51,
          52,
          53,
          54,
          55,
          56,
          57,
          58,
          59,
          60,
          61,
          62,
          63,
          64,
          65,
          66,
          67,
          68,
          69,
          70,
          71,
          72,
          73,
          74,
          75,
          76,
          77,
          78,
          79,
          80,
          81,
          82,
          83,
          84,
          85,
          86,
          87,
          88,
          89,
          90,
          91,
          92,
          93,
          94,
          95,
          96,
          97,
          98,
          99,
          100,
          101,
          102,
          103,
          104,
          105,
          106,
          107,
          108,
          109,
          110,
          111,
          112,
          113,
          114,
          115,
          116,
          117,
          118,
          119,
          120,
          121,
          122,
          123,
          124,
          125,
          126,
          127,
          128,
          129,
          130,
          131,
          132,
          133,
          134,
          135,
          136,
          137,
          138,
          139,
          140,
          141,
          142,
          143,
          144,
          145,
          146,
          147,
          148,
          149,
          150,
          151,
          152,
          153,
          154,
          155,
          156,
          157,
          158,
          159,
          160,
          161,
          162,
          163,
          164,
          165,
          166,
          167,
          168,
          169,
          170,
          171,
          172,
          173,
          174,
          175,
          176,
          177,
          178,
          179,
          180,
          181,
          182,
          183,
          184,
          185,
          186,
          187,
          188,
          189,
          190,
          191,
          192,
          193,
          194,
          195,
          196,
          197,
          198,
          199,
          200,
          201,
          202,
          203,
          204,
          205,
          206,
          207,
          208,
          209,
          210,
          211,
          212,
          213,
          214,
          215,
          216,
          217,
          218,
          219,
          220,
          221,
          222,
          223,
          224,
          225,
          226,
          227,
          228,
          229,
          230,
          231,
          232,
          233,
          234,
          235,
          236,
          237,
          238,
          239,
          240,
          241,
          242,
          243,
          244,
          245,
          246,
          247,
          248,
          249,
          250,
          251,
          252,
          253,
          254,
          255,
          256,
          257,
          258,
          259,
          260,
          261,
          262,
          263,
          264,
          265,
          266,
          267,
          268,
          269,
          270,
          271,
          272,
          273,
          274,
          275,
          276,
          277,
          278,
          279,
          280,
          281,
          282,
          283,
          284,
          285,
          286,
          287,
          288,
          289,
          290,
          291,
          292,
          293,
          294,
          295,
          296,
          297,
          298,
          299,
          300,
          301,
          302,
          303,
          304,
          305,
          306,
          307,
          308,
          309,
          310,
          311,
          312,
          313,
          314,
          315,
          316,
          317,
          318,
          319,
          320,
          321,
          322,
          323,
          324,
          325,
          326,
          327,
          328,
          329,
          330,
          331,
          332,
          333,
          334,
          335,
          336,
          337,
          338,
          339,
          340,
          341,
          342,
          343,
          344,
          345,
          346,
          347,
          348,
          349,
          350,
          351,
          352,
          353,
          354,
          355,
          356,
          357,
          358,
          359,
          360,
          361,
          362,
          363,
          364,
          365,
          366,
          367,
          368,
          369,
          370,
          371,
          372,
          373,
          374,
          375,
          376,
          377,
          378,
          379,
          380,
          381,
          382,
          383,
          384,
          385,
          386,
          387,
          388,
          389,
          390,
          391,
          392,
          393,
          394,
          395,
          396,
          397,
          398,
          399,
          400,
          401,
          402,
          403,
          404,
          405,
          406
        ],
        "AcquisitionTime": [
          "182701.255000",
          "182702.745000",
          "182704.235000",
          "182705.725000",
          "182707.215000",
          "182708.705000",
          "182710.195000",
          "182711.685000",
          "182713.175000",
          "182714.665000",
          "182716.155000",
          "182717.645000",
          "182719.135000",
          "182720.625000",
          "182722.115000",
          "182723.605000",
          "182725.095000",
          "182726.585000",
          "182728.075000",
          "182729.565000",
          "182731.055000",
          "182732.545000",
          "182734.035000",
          "182735.525000",
          "182737.015000",
          "182738.505000",
          "182739.995000",
          "182741.485000",
          "182742.975000",
          "182744.465000",
          "182745.955000",
          "182747.445000",
          "182748.935000",
          "182750.425000",
          "182751.915000",
          "182753.405000",
          "182754.895000",
          "182756.385000",
          "182757.875000",
          "182759.365000",
          "182800.855000",
          "182802.345000",
          "182803.835000",
          "182805.325000",
          "182806.815000",
          "182808.305000",
          "182809.795000",
          "182811.285000",
          "182812.775000",
          "182814.265000",
          "182815.755000",
          "182817.245000",
          "182818.735000",
          "182820.225000",
          "182821.715000",
          "182823.205000",
          "182824.695000",
          "182826.185000",
          "182827.675000",
          "182829.165000",
          "182830.655000",
          "182832.145000",
          "182833.635000",
          "182835.125000",
          "182836.615000",
          "182838.105000",
          "182839.595000",
          "182841.085000",
          "182842.575000",
          "182844.065000",
          "182845.555000",
          "182847.045000",
          "182848.535000",
          "182850.025000",
          "182851.515000",
          "182853.005000",
          "182854.495000",
          "182855.985000",
          "182857.475000",
          "182858.965000",
          "182900.455000",
          "182901.945000",
          "182903.435000",
          "182904.925000",
          "182906.415000",
          "182907.905000",
          "182909.395000",
          "182910.885000",
          "182912.375000",
          "182913.865000",
          "182915.355000",
          "182916.845000",
          "182918.335000",
          "182919.825000",
          "182921.315000",
          "182922.805000",
          "182924.295000",
          "182925.785000",
          "182927.275000",
          "182928.765000",
          "182930.255000",
          "182931.745000",
          "182933.235000",
          "182934.725000",
          "182936.215000",
          "182937.705000",
          "182939.195000",
          "182940.685000",
          "182942.175000",
          "182943.665000",
          "182945.155000",
          "182946.645000",
          "182948.135000",
          "182949.625000",
          "182951.115000",
          "182952.605000",
          "182954.095000",
          "182955.585000",
          "182957.075000",
          "182958.565000",
          "183000.055000",
          "183001.545000",
          "183003.035000",
          "183004.525000",
          "183006.015000",
          "183007.505000",
          "183008.995000",
          "183010.485000",
          "183011.975000",
          "183013.465000",
          "183014.955000",
          "183016.445000",
          "183017.935000",
          "183019.425000",
          "183020.915000",
          "183022.405000",
          "183023.895000",
          "183025.385000",
          "183026.875000",
          "183028.365000",
          "183029.855000",
          "183031.345000",
          "183032.835000",
          "183034.325000",
          "183035.815000",
          "183037.305000",
          "183038.795000",
          "183040.285000",
          "183041.775000",
          "183043.265000",
          "183044.755000",
          "183046.245000",
          "183047.735000",
          "183049.225000",
          "183050.715000",
          "183052.205000",
          "183053.695000",
          "183055.185000",
          "183056.675000",
          "183058.165000",
          "183059.655000",
          "183101.145000",
          "183102.635000",
          "183104.125000",
          "183105.615000",
          "183107.105000",
          "183108.595000",
          "183110.085000",
          "183111.575000",
          "183113.065000",
          "183114.555000",
          "183116.045000",
          "183117.535000",
          "183119.025000",
          "183120.515000",
          "183122.005000",
          "183123.495000",
          "183124.985000",
          "183126.475000",
          "183127.965000",
          "183129.455000",
          "183130.945000",
          "183132.435000",
          "183133.925000",
          "183135.415000",
          "183136.905000",
          "183138.395000",
          "183139.885000",
          "183141.375000",
          "183142.865000",
          "183144.355000",
          "183145.845000",
          "183147.335000",
          "183148.825000",
          "183150.315000",
          "183151.805000",
          "183153.295000",
          "183154.785000",
          "183156.275000",
          "183157.765000",
          "183159.255000",
          "183200.745000",
          "183202.235000",
          "183203.725000",
          "183205.215000",
          "183206.705000",
          "183208.195000",
          "183209.685000",
          "183211.175000",
          "183212.665000",
          "183214.155000",
          "183215.645000",
          "183217.135000",
          "183218.625000",
          "183220.115000",
          "183221.605000",
          "183223.095000",
          "183224.585000",
          "183226.075000",
          "183227.565000",
          "183229.055000",
          "183230.545000",
          "183232.035000",
          "183233.525000",
          "183235.015000",
          "183236.505000",
          "183237.995000",
          "183239.485000",
          "183240.975000",
          "183242.465000",
          "183243.955000",
          "183245.445000",
          "183246.935000",
          "183248.425000",
          "183249.915000",
          "183251.405000",
          "183252.895000",
          "183254.385000",
          "183255.875000",
          "183257.365000",
          "183258.855000",
          "183300.345000",
          "183301.835000",
          "183303.325000",
          "183304.815000",
          "183306.305000",
          "183307.795000",
          "183309.285000",
          "183310.775000",
          "183312.265000",
          "183313.755000",
          "183315.245000",
          "183316.735000",
          "183318.225000",
          "183319.715000",
          "183321.205000",
          "183322.695000",
          "183324.185000",
          "183325.675000",
          "183327.165000",
          "183328.655000",
          "183330.145000",
          "183331.635000",
          "183333.125000",
          "183334.615000",
          "183336.105000",
          "183337.595000",
          "183339.085000",
          "183340.575000",
          "183342.065000",
          "183343.555000",
          "183345.045000",
          "183346.535000",
          "183348.025000",
          "183349.515000",
          "183351.005000",
          "183352.495000",
          "183353.985000",
          "183355.475000",
          "183356.965000",
          "183358.455000",
          "183359.945000",
          "183401.435000",
          "183402.925000",
          "183404.415000",
          "183405.905000",
          "183407.395000",
          "183408.885000",
          "183410.375000",
          "183411.865000",
          "183413.355000",
          "183414.845000",
          "183416.335000",
          "183417.825000",
          "183419.315000",
          "183420.805000",
          "183422.295000",
          "183423.785000",
          "183425.275000",
          "183426.765000",
          "183428.255000",
          "183429.745000",
          "183431.235000",
          "183432.725000",
          "183434.215000",
          "183435.705000",
          "183437.195000",
          "183438.685000",
          "183440.175000",
          "183441.665000",
          "183443.155000",
          "183444.645000",
          "183446.135000",
          "183447.625000",
          "183449.115000",
          "183450.605000",
          "183452.095000",
          "183453.585000",
          "183455.075000",
          "183456.565000",
          "183458.055000",
          "183459.545000",
          "183501.035000",
          "183502.525000",
          "183504.015000",
          "183505.505000",
          "183506.995000",
          "183508.485000",
          "183509.975000",
          "183511.465000",
          "183512.955000",
          "183514.445000",
          "183515.935000",
          "183517.425000",
          "183518.915000",
          "183520.405000",
          "183521.895000",
          "183523.385000",
          "183524.875000",
          "183526.365000",
          "183527.855000",
          "183529.345000",
          "183530.835000",
          "183532.325000",
          "183533.815000",
          "183535.305000",
          "183536.795000",
          "183538.285000",
          "183539.775000",
          "183541.265000",
          "183542.755000",
          "183544.245000",
          "183545.735000",
          "183547.225000",
          "183548.715000",
          "183550.205000",
          "183551.695000",
          "183553.185000",
          "183554.675000",
          "183556.165000",
          "183557.655000",
          "183559.145000",
          "183600.635000",
          "183602.125000",
          "183603.615000",
          "183605.105000",
          "183606.595000",
          "183608.085000",
          "183609.575000",
          "183611.065000",
          "183612.555000",
          "183614.045000",
          "183615.535000",
          "183617.025000",
          "183618.515000",
          "183620.005000",
          "183621.495000",
          "183622.985000",
          "183624.475000",
          "183625.965000",
          "183627.455000",
          "183628.945000",
          "183630.435000",
          "183631.925000",
          "183633.415000",
          "183634.905000",
          "183636.395000",
          "183637.885000",
          "183639.375000",
          "183640.865000",
          "183642.355000",
          "183643.845000",
          "183645.335000",
          "183646.825000",
          "183648.315000",
          "183649.805000",
          "183651.295000",
          "183652.785000",
          "183654.275000",
          "183655.765000",
          "183657.255000",
          "183658.745000",
          "183700.235000",
          "183701.725000",
          "183703.215000",
          "183704.705000"
        ],
        "ContentTime": [
          "182758.364000",
          "182758.368000",
          "182758.371000",
          "182818.334000",
          "182818.337000",
          "182818.340000",
          "182818.343000",
          "182818.346000",
          "182818.349000",
          "182818.352000",
          "182818.355000",
          "182818.357000",
          "182818.360000",
          "182818.363000",
          "182818.366000",
          "182818.369000",
          "182818.372000",
          "182818.374000",
          "182818.377000",
          "182818.388000",
          "182818.391000",
          "182818.394000",
          "182818.397000",
          "182838.335000",
          "182838.338000",
          "182838.353000",
          "182838.356000",
          "182838.358000",
          "182838.361000",
          "182838.364000",
          "182838.367000",
          "182838.370000",
          "182838.373000",
          "182838.375000",
          "182838.378000",
          "182838.381000",
          "182838.384000",
          "182838.386000",
          "182838.389000",
          "182838.392000",
          "182838.395000",
          "182838.405000",
          "182838.408000",
          "182838.411000",
          "182858.335000",
          "182858.338000",
          "182858.341000",
          "182858.343000",
          "182858.346000",
          "182858.349000",
          "182858.352000",
          "182858.355000",
          "182858.358000",
          "182858.360000",
          "182858.370000",
          "182858.373000",
          "182858.376000",
          "182858.379000",
          "182858.382000",
          "182858.384000",
          "182858.387000",
          "182858.390000",
          "182858.393000",
          "182858.396000",
          "182918.335000",
          "182918.338000",
          "182918.341000",
          "182918.344000",
          "182918.346000",
          "182918.349000",
          "182918.352000",
          "182918.355000",
          "182918.358000",
          "182918.361000",
          "182918.364000",
          "182918.366000",
          "182918.369000",
          "182918.372000",
          "182918.375000",
          "182918.378000",
          "182918.381000",
          "182918.384000",
          "182918.387000",
          "182918.389000",
          "182938.335000",
          "182938.338000",
          "182938.341000",
          "182938.344000",
          "182938.346000",
          "182938.349000",
          "182938.352000",
          "182938.355000",
          "182938.358000",
          "182938.361000",
          "182938.364000",
          "182938.367000",
          "182938.370000",
          "182938.372000",
          "182938.375000",
          "182938.378000",
          "182938.381000",
          "182938.384000",
          "182938.386000",
          "182938.389000",
          "182938.392000",
          "183018.335000",
          "183018.338000",
          "183018.341000",
          "183018.345000",
          "183018.347000",
          "183018.350000",
          "183018.353000",
          "183018.356000",
          "183018.359000",
          "183018.362000",
          "183018.364000",
          "183018.367000",
          "183018.370000",
          "183018.373000",
          "183018.376000",
          "183018.379000",
          "183018.381000",
          "183018.384000",
          "183018.387000",
          "183018.390000",
          "183018.393000",
          "183018.396000",
          "183018.399000",
          "183018.401000",
          "183018.404000",
          "183018.407000",
          "183058.335000",
          "183058.338000",
          "183058.341000",
          "183058.344000",
          "183058.347000",
          "183058.349000",
          "183058.352000",
          "183058.355000",
          "183058.358000",
          "183058.361000",
          "183058.364000",
          "183058.367000",
          "183058.369000",
          "183058.372000",
          "183058.375000",
          "183058.378000",
          "183058.381000",
          "183058.384000",
          "183058.386000",
          "183058.389000",
          "183058.392000",
          "183058.395000",
          "183058.398000",
          "183058.401000",
          "183058.404000",
          "183058.406000",
          "183058.409000",
          "183138.335000",
          "183138.338000",
          "183138.341000",
          "183138.344000",
          "183138.346000",
          "183138.349000",
          "183138.352000",
          "183138.355000",
          "183138.358000",
          "183138.361000",
          "183138.364000",
          "183138.367000",
          "183138.371000",
          "183138.373000",
          "183138.376000",
          "183138.379000",
          "183138.382000",
          "183138.385000",
          "183138.388000",
          "183138.390000",
          "183138.393000",
          "183138.396000",
          "183138.399000",
          "183138.402000",
          "183138.405000",
          "183138.407000",
          "183138.410000",
          "183218.335000",
          "183218.338000",
          "183218.341000",
          "183218.344000",
          "183218.347000",
          "183218.350000",
          "183218.353000",
          "183218.356000",
          "183218.359000",
          "183218.362000",
          "183218.365000",
          "183218.368000",
          "183218.371000",
          "183218.374000",
          "183218.376000",
          "183218.379000",
          "183218.382000",
          "183218.385000",
          "183218.388000",
          "183218.391000",
          "183218.394000",
          "183218.397000",
          "183218.400000",
          "183218.403000",
          "183218.405000",
          "183218.408000",
          "183218.411000",
          "183258.334000",
          "183258.337000",
          "183258.340000",
          "183258.343000",
          "183258.346000",
          "183258.349000",
          "183258.352000",
          "183258.355000",
          "183258.358000",
          "183258.361000",
          "183258.363000",
