{
  "aor": 0.000774246913580247,
  "aqi": 0.010811260024691356,
  "bids_meta": {
    "AcquisitionMatrixPE": 104,
    "AcquisitionNumber": 1,
    "AcquisitionTime": "19:22:27.255000",
    "BandwidthPerPixelPhaseEncode": 17.17,
    "BaseResolution": 104,
    "BodyPartExamined": "BRAIN",
    "CogAtlasID": "trm_4c898da401420",
    "ConsistencyInfo": "N4_VE11C_LATEST_20160120",
    "ConversionSoftware": "dcm2niix",
    "ConversionSoftwareVersion": "v1.0.20171215 (OpenJPEG build) GCC7.3.0",
    "DerivedVendorReportedEchoSpacing": 0.000560011,
    "DeviceSerialNumber": "167006",
    "DwellTime": 2.1e-06,
    "EchoTime": 0.037,
    "EchoTrainLength": 104,
    "EffectiveEchoSpacing": 0.000560011,
    "FlipAngle": 52,
    "ImageComments": "Unaliased_MB4_PE3_LB",
    "ImageOrientationPatientDICOM": [
      0.999393,
      0.0114321,
      -0.0329094,
      -0.0219813,
      0.939782,
      -0.341066
    ],
    "ImageType": [
      "ORIGINAL",
      "PRIMARY",
      "M",
      "MB",
      "ND",
      "MOSAIC"
    ],
    "InPlanePhaseEncodingDirectionDICOM": "COL",
    "InstitutionAddress": "Chemin_Queen-Mary_4565_Montreal_District_CA_H3W_1W5",
    "InstitutionName": "IUGM",
    "InstitutionalDepartmentName": "Department",
    "MRAcquisitionType": "2D",
    "MagneticFieldStrength": 3,
    "Manufacturer": "Siemens",
    "ManufacturersModelName": "Prisma_fit",
    "Modality": "MR",
    "MultibandAccelerationFactor": 4,
    "PartialFourier": 1,
    "PatientPosition": "HFS",
    "PercentPhaseFOV": 100,
    "PhaseEncodingDirection": "j-",
    "PhaseEncodingSteps": 104,
    "PhaseResolution": 1,
    "PixelBandwidth": 2290,
    "ProcedureStepDescription": "video5_generic",
    "ProtocolName": "func_task-bourne7",
    "PulseSequenceDetails": "%CustomerSeq%_cmrr_mbep2d_bold",
    "ReceiveCoilActiveElements": "HC1-7;NC1,2",
    "ReceiveCoilName": "HeadNeck_64",
    "ReconMatrixPE": 104,
    "RepetitionTime": 1.49,
    "SAR": 0.0345887,
    "ScanOptions": "FS",
    "ScanningSequence": "EP",
    "SequenceName": "epfid2d1_104",
    "SequenceVariant": "SK_SS",
    "SeriesDescription": "func_task-bourne7",
    "SeriesNumber": 26,
    "ShimSetting": [
      613,
      -7234,
      -8871,
      402,
      -1,
      -355,
      -1,
      40
    ],
    "SliceThickness": 2,
    "SliceTiming": [
      0,
      0.785,
      0.0975,
      0.8825,
      0.1975,
      0.98,
      0.295,
      1.0775,
      0.3925,
      1.1775,
      0.49,
      1.275,
      0.5875,
      1.3725,
      0.6875,
      0,
      0.785,
      0.0975,
      0.8825,
      0.1975,
      0.98,
      0.295,
      1.0775,
      0.3925,
      1.1775,
      0.49,
      1.275,
      0.5875,
      1.3725,
      0.6875,
      0,
      0.785,
      0.0975,
      0.8825,
      0.1975,
      0.98,
      0.295,
      1.0775,
      0.3925,
      1.1775,
      0.49,
      1.275,
      0.5875,
      1.3725,
      0.6875,
      0,
      0.785,
      0.0975,
      0.8825,
      0.1975,
      0.98,
      0.295,
      1.0775,
      0.3925,
      1.1775,
      0.49,
      1.275,
      0.5875,
      1.3725,
      0.6875
    ],
    "SoftwareVersions": "syngo_MR_E11",
    "SpacingBetweenSlices": 2,
    "StationName": "MRC35049",
    "TaskName": "bourne07",
    "TotalReadoutTime": 0.0576811,
    "TxRefAmp": 236.023,
    "dataset": "<unset>",
    "dcmmeta_affine": [
      [
        -1.9987858533859253,
        -0.043962568044662476,
        -0.05405709892511368,
        106.29731750488281
      ],
      [
        -0.022864172235131264,
        1.879564642906189,
        -0.6831647157669067,
        -60.62767791748047
      ],
      [
        -0.06581874191761017,
        0.6821320056915283,
        1.8789262771606445,
        -75.098876953125
      ],
      [
        0.0,
        0.0,
        0.0,
        1.0
      ]
    ],
    "dcmmeta_reorient_transform": [
      [
        0.0,
        -1.0,
        0.0,
        103.0
      ],
      [
        1.0,
        0.0,
        0.0,
        0.0
      ],
      [
        0.0,
        0.0,
        1.0,
        0.0
      ],
      [
        0.0,
        0.0,
        0.0,
        1.0
      ]
    ],
    "dcmmeta_shape": [
      104,
      104,
      60,
      406
    ],
    "dcmmeta_slice_dim": 2,
    "dcmmeta_version": 0.6,
    "global": {
      "const": {
        "AcquisitionMatrix": [
          104,
          0,
          0,
          104
        ],
        "AngioFlag": "N",
        "BitsAllocated": 16,
        "BitsStored": 16,
        "BodyPartExamined": "BRAIN",
        "Columns": 832,
        "EchoNumbers": 1,
        "EchoTime": 37.0,
        "EchoTrainLength": 104,
        "FlipAngle": 52.0,
        "HighBit": 15,
        "ImageOrientationPatient": [
          0.99939295614018,
          0.01143208636124,
          -0.0329093697724,
          -0.0219812831448,
          0.93978232136596,
          -0.3410659930854
        ],
        "ImagePositionPatient": [
          -813.32487322641,
          -825.45157070071,
          267.41478247626
        ],
        "ImageType": [
          "ORIGINAL",
          "PRIMARY",
          "M",
          "MB",
          "ND",
          "MOSAIC"
        ],
        "ImagedNucleus": "1H",
        "ImagingFrequency": 123.259436,
        "InPlanePhaseEncodingDirection": "COL",
        "MRAcquisitionType": "2D",
        "MagneticFieldStrength": 3.0,
        "Manufacturer": "SIEMENS",
        "ManufacturerModelName": "Prisma_fit",
        "Modality": "MR",
        "NumberOfAverages": 1.0,
        "NumberOfPhaseEncodingSteps": 104,
        "PercentPhaseFieldOfView": 100.0,
        "PercentSampling": 100.0,
        "PerformedProcedureStepStartTime": "174525.589000",
        "PhotometricInterpretation": "MONOCHROME2",
        "PixelBandwidth": 2290.0,
        "PixelRepresentation": 0,
        "PixelSpacing": [
          2.0,
          2.0
        ],
        "ProtocolName": "func_task-bourne7",
        "RepetitionTime": 1490.0,
        "Rows": 832,
        "SAR": 0.03458869700965,
        "SamplesPerPixel": 1,
        "ScanOptions": "FS",
        "ScanningSequence": "EP",
        "SequenceName": "epfid2d1_104",
        "SequenceVariant": [
          "SK",
          "SS"
        ],
        "SeriesDescription": "func_task-bourne7",
        "SeriesNumber": 26,
        "SeriesTime": "192346.184000",
        "SliceLocation": -52.716343500502,
        "SliceThickness": 2.0,
        "SmallestImagePixelValue": 0,
        "SoftwareVersions": "syngo MR E11",
        "SpacingBetweenSlices": 2.0000000426082,
        "SpecificCharacterSet": "ISO_IR 100",
        "StudyID": "1",
        "StudyTime": "174525.524000",
        "TransmitCoilName": "Body",
        "VariableFlipAngleFlag": "N",
        "WindowCenterWidthExplanation": "Algo1",
        "dBdt": 0.0
      },
      "slices": {}
    },
    "modality": "bold",
    "session_id": "009",
    "subject_id": "05",
    "task_id": "bourne07",
    "time": {
      "samples": {
        "AcquisitionNumber": [
          1,
          2,
          3,
          4,
          5,
          6,
          7,
          8,
          9,
          10,
          11,
          12,
          13,
          14,
          15,
          16,
          17,
          18,
          19,
          20,
          21,
          22,
          23,
          24,
          25,
          26,
          27,
          28,
          29,
          30,
          31,
          32,
          33,
          34,
          35,
          36,
          37,
          38,
          39,
          40,
          41,
          42,
          43,
          44,
          45,
          46,
          47,
          48,
          49,
          50,
          51,
          52,
          53,
          54,
          55,
          56,
          57,
          58,
          59,
          60,
          61,
          62,
          63,
          64,
          65,
          66,
          67,
          68,
          69,
          70,
          71,
          72,
          73,
          74,
          75,
          76,
          77,
          78,
          79,
          80,
          81,
          82,
          83,
          84,
          85,
          86,
          87,
          88,
          89,
          90,
          91,
          92,
          93,
          94,
          95,
          96,
          97,
          98,
          99,
          100,
          101,
          102,
          103,
          104,
          105,
          106,
          107,
          108,
          109,
          110,
          111,
          112,
          113,
          114,
          115,
          116,
          117,
          118,
          119,
          120,
          121,
          122,
          123,
          124,
          125,
          126,
          127,
          128,
          129,
          130,
          131,
          132,
          133,
          134,
          135,
          136,
          137,
          138,
          139,
          140,
          141,
          142,
          143,
          144,
          145,
          146,
          147,
          148,
          149,
          150,
          151,
          152,
          153,
          154,
          155,
          156,
          157,
          158,
          159,
          160,
          161,
          162,
          163,
          164,
          165,
          166,
          167,
          168,
          169,
          170,
          171,
          172,
          173,
          174,
          175,
          176,
          177,
          178,
          179,
          180,
          181,
          182,
          183,
          184,
          185,
          186,
          187,
          188,
          189,
          190,
          191,
          192,
          193,
          194,
          195,
          196,
          197,
          198,
          199,
          200,
          201,
          202,
          203,
          204,
          205,
          206,
          207,
          208,
          209,
          210,
          211,
          212,
          213,
          214,
          215,
          216,
          217,
          218,
          219,
          220,
          221,
          222,
          223,
          224,
          225,
          226,
          227,
          228,
          229,
          230,
          231,
          232,
          233,
          234,
          235,
          236,
          237,
          238,
          239,
          240,
          241,
          242,
          243,
          244,
          245,
          246,
          247,
          248,
          249,
          250,
          251,
          252,
          253,
          254,
          255,
          256,
          257,
          258,
          259,
          260,
          261,
          262,
          263,
          264,
          265,
          266,
          267,
          268,
          269,
          270,
          271,
          272,
          273,
          274,
          275,
          276,
          277,
          278,
          279,
          280,
          281,
          282,
          283,
          284,
          285,
          286,
          287,
          288,
          289,
          290,
          291,
          292,
          293,
          294,
          295,
          296,
          297,
          298,
          299,
          300,
          301,
          302,
          303,
          304,
          305,
          306,
          307,
          308,
          309,
          310,
          311,
          312,
          313,
          314,
          315,
          316,
          317,
          318,
          319,
          320,
          321,
          322,
          323,
          324,
          325,
          326,
          327,
          328,
          329,
          330,
          331,
          332,
          333,
          334,
          335,
          336,
          337,
          338,
          339,
          340,
          341,
          342,
          343,
          344,
          345,
          346,
          347,
          348,
          349,
          350,
          351,
          352,
          353,
          354,
          355,
          356,
          357,
          358,
          359,
          360,
          361,
          362,
          363,
          364,
          365,
          366,
          367,
          368,
          369,
          370,
          371,
          372,
          373,
          374,
          375,
          376,
          377,
          378,
          379,
          380,
          381,
          382,
          383,
          384,
          385,
          386,
          387,
          388,
          389,
          390,
          391,
          392,
          393,
          394,
          395,
          396,
          397,
          398,
          399,
          400,
          401,
          402,
          403,
          404,
          405,
          406
        ],
        "AcquisitionTime": [
          "192227.255000",
          "192228.745000",
          "192230.235000",
          "192231.725000",
          "192233.215000",
          "192234.705000",
          "192236.195000",
          "192237.685000",
          "192239.175000",
          "192240.665000",
          "192242.155000",
          "192243.645000",
          "192245.135000",
          "192246.625000",
          "192248.115000",
          "192249.605000",
          "192251.095000",
          "192252.585000",
          "192254.075000",
          "192255.565000",
          "192257.055000",
          "192258.545000",
          "192300.035000",
          "192301.525000",
          "192303.015000",
          "192304.505000",
          "192305.995000",
          "192307.485000",
          "192308.975000",
          "192310.465000",
          "192311.955000",
          "192313.445000",
          "192314.935000",
          "192316.425000",
          "192317.915000",
          "192319.405000",
          "192320.895000",
          "192322.385000",
          "192323.875000",
          "192325.365000",
          "192326.855000",
          "192328.345000",
          "192329.835000",
          "192331.325000",
          "192332.815000",
          "192334.305000",
          "192335.795000",
          "192337.285000",
          "192338.775000",
          "192340.265000",
          "192341.755000",
          "192343.245000",
          "192344.735000",
          "192346.225000",
          "192347.715000",
          "192349.205000",
          "192350.695000",
          "192352.185000",
          "192353.675000",
          "192355.165000",
          "192356.655000",
          "192358.145000",
          "192359.635000",
          "192401.125000",
          "192402.615000",
          "192404.105000",
          "192405.595000",
          "192407.085000",
          "192408.575000",
          "192410.065000",
          "192411.555000",
          "192413.045000",
          "192414.535000",
          "192416.025000",
          "192417.515000",
          "192419.005000",
          "192420.495000",
          "192421.985000",
          "192423.475000",
          "192424.965000",
          "192426.455000",
          "192427.945000",
          "192429.435000",
          "192430.925000",
          "192432.415000",
          "192433.905000",
          "192435.395000",
          "192436.885000",
          "192438.375000",
          "192439.865000",
          "192441.355000",
          "192442.845000",
          "192444.335000",
          "192445.825000",
          "192447.315000",
          "192448.805000",
          "192450.295000",
          "192451.785000",
          "192453.275000",
          "192454.765000",
          "192456.255000",
          "192457.745000",
          "192459.235000",
          "192500.725000",
          "192502.215000",
          "192503.705000",
          "192505.195000",
          "192506.685000",
          "192508.175000",
          "192509.665000",
          "192511.155000",
          "192512.645000",
          "192514.135000",
          "192515.625000",
          "192517.115000",
          "192518.605000",
          "192520.095000",
          "192521.585000",
          "192523.075000",
          "192524.565000",
          "192526.055000",
          "192527.545000",
          "192529.035000",
          "192530.525000",
          "192532.015000",
          "192533.505000",
          "192534.995000",
          "192536.485000",
          "192537.975000",
          "192539.465000",
          "192540.955000",
          "192542.445000",
          "192543.935000",
          "192545.425000",
          "192546.915000",
          "192548.405000",
          "192549.895000",
          "192551.385000",
          "192552.875000",
          "192554.365000",
          "192555.855000",
          "192557.345000",
          "192558.835000",
          "192600.325000",
          "192601.815000",
          "192603.305000",
          "192604.795000",
          "192606.285000",
          "192607.775000",
          "192609.265000",
          "192610.755000",
          "192612.245000",
          "192613.735000",
          "192615.225000",
          "192616.715000",
          "192618.205000",
          "192619.695000",
          "192621.185000",
          "192622.675000",
          "192624.165000",
          "192625.655000",
          "192627.145000",
          "192628.635000",
          "192630.125000",
          "192631.615000",
          "192633.105000",
          "192634.595000",
          "192636.085000",
          "192637.575000",
          "192639.065000",
          "192640.555000",
          "192642.045000",
          "192643.535000",
          "192645.025000",
          "192646.515000",
          "192648.005000",
          "192649.495000",
          "192650.985000",
          "192652.475000",
          "192653.965000",
          "192655.455000",
          "192656.945000",
          "192658.435000",
          "192659.925000",
          "192701.415000",
          "192702.905000",
          "192704.395000",
          "192705.885000",
          "192707.375000",
          "192708.865000",
          "192710.355000",
          "192711.845000",
          "192713.335000",
          "192714.825000",
          "192716.315000",
          "192717.805000",
          "192719.295000",
          "192720.785000",
          "192722.275000",
          "192723.765000",
          "192725.255000",
          "192726.745000",
          "192728.235000",
          "192729.725000",
          "192731.215000",
          "192732.705000",
          "192734.195000",
          "192735.685000",
          "192737.175000",
          "192738.665000",
          "192740.155000",
          "192741.645000",
          "192743.135000",
          "192744.625000",
          "192746.115000",
          "192747.605000",
          "192749.095000",
          "192750.585000",
          "192752.075000",
          "192753.565000",
          "192755.055000",
          "192756.545000",
          "192758.035000",
          "192759.525000",
          "192801.015000",
          "192802.505000",
          "192803.995000",
          "192805.485000",
          "192806.975000",
          "192808.465000",
          "192809.955000",
          "192811.445000",
          "192812.935000",
          "192814.425000",
          "192815.915000",
          "192817.405000",
          "192818.895000",
          "192820.385000",
          "192821.875000",
          "192823.365000",
          "192824.855000",
          "192826.345000",
          "192827.835000",
          "192829.325000",
          "192830.815000",
          "192832.305000",
          "192833.795000",
          "192835.285000",
          "192836.775000",
          "192838.265000",
          "192839.755000",
          "192841.245000",
          "192842.735000",
          "192844.225000",
          "192845.715000",
          "192847.205000",
          "192848.695000",
          "192850.185000",
          "192851.675000",
          "192853.165000",
          "192854.655000",
          "192856.145000",
          "192857.635000",
          "192859.125000",
          "192900.615000",
          "192902.105000",
          "192903.595000",
          "192905.085000",
          "192906.575000",
          "192908.065000",
          "192909.555000",
          "192911.045000",
          "192912.535000",
          "192914.025000",
          "192915.515000",
          "192917.005000",
          "192918.495000",
          "192919.985000",
          "192921.475000",
          "192922.965000",
          "192924.455000",
          "192925.945000",
          "192927.435000",
          "192928.925000",
          "192930.415000",
          "192931.905000",
          "192933.395000",
          "192934.885000",
          "192936.375000",
          "192937.865000",
          "192939.355000",
          "192940.845000",
          "192942.335000",
          "192943.825000",
          "192945.315000",
          "192946.805000",
          "192948.295000",
          "192949.785000",
          "192951.275000",
          "192952.765000",
          "192954.255000",
          "192955.745000",
          "192957.235000",
          "192958.725000",
          "193000.215000",
          "193001.705000",
          "193003.195000",
          "193004.685000",
          "193006.175000",
          "193007.665000",
          "193009.155000",
          "193010.645000",
          "193012.135000",
          "193013.625000",
          "193015.115000",
          "193016.605000",
          "193018.095000",
          "193019.585000",
          "193021.075000",
          "193022.565000",
          "193024.055000",
          "193025.545000",
          "193027.035000",
          "193028.525000",
          "193030.015000",
          "193031.505000",
          "193032.995000",
          "193034.485000",
          "193035.975000",
          "193037.465000",
          "193038.955000",
          "193040.445000",
          "193041.935000",
          "193043.425000",
          "193044.915000",
          "193046.405000",
          "193047.895000",
          "193049.385000",
          "193050.875000",
          "193052.365000",
          "193053.855000",
          "193055.345000",
          "193056.835000",
          "193058.325000",
          "193059.815000",
          "193101.305000",
          "193102.795000",
          "193104.285000",
          "193105.775000",
          "193107.265000",
          "193108.755000",
          "193110.245000",
          "193111.735000",
          "193113.225000",
          "193114.715000",
          "193116.205000",
          "193117.695000",
          "193119.185000",
          "193120.675000",
          "193122.165000",
          "193123.655000",
          "193125.145000",
          "193126.635000",
          "193128.125000",
          "193129.615000",
          "193131.105000",
          "193132.595000",
          "193134.085000",
          "193135.575000",
          "193137.065000",
          "193138.555000",
          "193140.045000",
          "193141.535000",
          "193143.025000",
          "193144.515000",
          "193146.005000",
          "193147.495000",
          "193148.985000",
          "193150.475000",
          "193151.965000",
          "193153.455000",
          "193154.945000",
          "193156.435000",
          "193157.925000",
          "193159.415000",
          "193200.905000",
          "193202.395000",
          "193203.885000",
          "193205.375000",
          "193206.865000",
          "193208.355000",
          "193209.845000",
          "193211.335000",
          "193212.825000",
          "193214.315000",
          "193215.805000",
          "193217.295000",
          "193218.785000",
          "193220.275000",
          "193221.765000",
          "193223.255000",
          "193224.745000",
          "193226.235000",
          "193227.725000",
          "193229.215000",
          "193230.705000"
        ],
        "ContentTime": [
          "192346.187000",
          "192346.190000",
          "192346.193000",
          "192346.196000",
          "192346.199000",
          "192346.202000",
          "192346.205000",
          "192346.208000",
          "192346.215000",
          "192346.218000",
          "192346.221000",
          "192346.223000",
          "192346.226000",
          "192346.229000",
          "192346.232000",
          "192346.238000",
          "192346.241000",
          "192346.249000",
          "192346.253000",
          "192346.256000",
          "192346.259000",
          "192346.262000",
          "192346.265000",
          "192346.267000",
          "192346.270000",
          "192406.158000",
          "192406.161000",
          "192406.164000",
          "192406.167000",
          "192406.170000",
          "192406.172000",
          "192406.175000",
          "192406.178000",
          "192406.181000",
          "192406.184000",
          "192406.186000",
          "192406.189000",
          "192406.192000",
          "192406.195000",
          "192406.219000",
          "192406.222000",
          "192406.225000",
          "192406.228000",
          "192406.231000",
          "192406.234000",
          "192406.236000",
          "192426.157000",
          "192426.160000",
          "192426.163000",
          "192426.168000",
          "192426.171000",
          "192426.174000",
          "192426.177000",
          "192426.180000",
          "192426.182000",
          "192426.185000",
          "192426.188000",
          "192426.191000",
          "192426.194000",
          "192426.196000",
          "192426.199000",
          "192426.202000",
          "192426.205000",
          "192426.208000",
          "192426.210000",
          "192426.213000",
          "192446.157000",
          "192446.160000",
          "192446.163000",
          "192446.166000",
          "192446.168000",
          "192446.171000",
          "192446.174000",
          "192446.177000",
          "192446.180000",
          "192446.183000",
          "192446.192000",
          "192446.195000",
          "192446.197000",
          "192446.200000",
          "192446.203000",
          "192446.206000",
          "192446.209000",
          "192446.212000",
          "192446.214000",
          "192446.217000",
          "192506.157000",
          "192506.160000",
          "192506.163000",
          "192506.165000",
          "192506.168000",
          "192506.171000",
          "192506.174000",
          "192506.177000",
          "192506.180000",
          "192506.183000",
          "192506.185000",
          "192506.188000",
          "192506.191000",
          "192506.194000",
          "192506.203000",
          "192506.205000",
          "192506.208000",
          "192506.211000",
          "192506.214000",
          "192506.217000",
          "192546.158000",
          "192546.161000",
          "192546.164000",
          "192546.167000",
          "192546.169000",
          "192546.172000",
          "192546.175000",
          "192546.178000",
          "192546.181000",
          "192546.184000",
          "192546.187000",
          "192546.189000",
          "192546.192000",
          "192546.195000",
          "192546.198000",
          "192546.201000",
          "192546.204000",
          "192546.206000",
          "192546.209000",
          "192546.212000",
          "192546.215000",
          "192546.218000",
          "192546.221000",
          "192546.223000",
          "192546.226000",
          "192546.229000",
          "192546.232000",
          "192626.158000",
          "192626.161000",
          "192626.164000",
          "192626.167000",
          "192626.170000",
          "192626.172000",
          "192626.175000",
          "192626.178000",
          "192626.181000",
          "192626.184000",
          "192626.187000",
          "192626.189000",
          "192626.192000",
          "192626.195000",
          "192626.198000",
          "192626.201000",
          "192626.204000",
          "192626.207000",
          "192626.209000",
          "192626.212000",
          "192626.215000",
          "192626.218000",
          "192626.221000",
          "192626.224000",
          "192626.226000",
          "192626.229000",
          "192626.232000",
          "192706.157000",
          "192706.160000",
          "192706.163000",
          "192706.166000",
          "192706.169000",
          "192706.172000",
          "192706.174000",
          "192706.177000",
          "192706.180000",
          "192706.183000",
          "192706.186000",
          "192706.189000",
          "192706.191000",
          "192706.194000",
          "192706.197000",
          "192706.200000",
          "192706.203000",
          "192706.206000",
          "192706.209000",
          "192706.212000",
          "192706.214000",
          "192706.217000",
          "192706.220000",
          "192706.223000",
          "192706.226000",
          "192706.229000",
          "192706.231000",
          "192726.157000",
          "192726.178000",
          "192726.181000",
          "192726.184000",
          "192726.187000",
          "192726.190000",
          "192726.193000",
          "192726.195000",
          "192726.198000",
          "192726.201000",
          "192726.204000",
          "192726.207000",
          "192726.210000",
          "192806.158000",
          "192806.161000",
          "192806.164000",
          "192806.170000",
          "192806.173000",
          "192806.176000",
          "192806.179000",
          "192806.182000",
          "192806.185000",
          "192806.187000",
          "192806.190000",
          "192806.193000",
          "192806.196000",
          "192806.199000",
          "192806.202000",
          "192806.204000",
          "192806.207000",
          "192806.210000",
          "192806.213000",
          "192806.216000",
          "192806.219000",
          "192806.222000",
          "192806.224000",
