{
  "aor": 0.0011770197044334975,
  "aqi": 0.0075432695320197035,
  "bids_meta": {
    "AcquisitionMatrixPE": 104,
    "AcquisitionNumber": 1,
    "AcquisitionTime": "18:37:29.520000",
    "BandwidthPerPixelPhaseEncode": 17.17,
    "BaseResolution": 104,
    "BodyPartExamined": "BRAIN",
    "CogAtlasID": "trm_4c898da401420",
    "ConsistencyInfo": "N4_VE11C_LATEST_20160120",
    "ConversionSoftware": "dcm2niix",
    "ConversionSoftwareVersion": "v1.0.20171215 (OpenJPEG build) GCC7.3.0",
    "DerivedVendorReportedEchoSpacing": 0.000560011,
    "DeviceSerialNumber": "167006",
    "DwellTime": 2.1e-06,
    "EchoTime": 0.037,
    "EchoTrainLength": 104,
    "EffectiveEchoSpacing": 0.000560011,
    "FlipAngle": 52,
    "ImageComments": "Unaliased_MB4_PE3_LB",
    "ImageOrientationPatientDICOM": [
      0.999393,
      0.0114321,
      -0.0329094,
      -0.0219813,
      0.939782,
      -0.341066
    ],
    "ImageType": [
      "ORIGINAL",
      "PRIMARY",
      "M",
      "MB",
      "ND",
      "MOSAIC"
    ],
    "InPlanePhaseEncodingDirectionDICOM": "COL",
    "InstitutionAddress": "Chemin_Queen-Mary_4565_Montreal_District_CA_H3W_1W5",
    "InstitutionName": "IUGM",
    "InstitutionalDepartmentName": "Department",
    "MRAcquisitionType": "2D",
    "MagneticFieldStrength": 3,
    "Manufacturer": "Siemens",
    "ManufacturersModelName": "Prisma_fit",
    "Modality": "MR",
    "MultibandAccelerationFactor": 4,
    "PartialFourier": 1,
    "PatientPosition": "HFS",
    "PercentPhaseFOV": 100,
    "PhaseEncodingDirection": "j-",
    "PhaseEncodingSteps": 104,
    "PhaseResolution": 1,
    "PixelBandwidth": 2290,
    "ProcedureStepDescription": "video5_generic",
    "ProtocolName": "func_task-bourne3",
    "PulseSequenceDetails": "%CustomerSeq%_cmrr_mbep2d_bold",
    "ReceiveCoilActiveElements": "HC1-7;NC1,2",
    "ReceiveCoilName": "HeadNeck_64",
    "ReconMatrixPE": 104,
    "RepetitionTime": 1.49,
    "SAR": 0.0345887,
    "ScanOptions": "FS",
    "ScanningSequence": "EP",
    "SequenceName": "epfid2d1_104",
    "SequenceVariant": "SK_SS",
    "SeriesDescription": "func_task-bourne3",
    "SeriesNumber": 18,
    "ShimSetting": [
      613,
      -7234,
      -8871,
      402,
      -1,
      -355,
      -1,
      40
    ],
    "SliceThickness": 2,
    "SliceTiming": [
      0,
      0.785,
      0.0975,
      0.8825,
      0.1975,
      0.98,
      0.295,
      1.0775,
      0.3925,
      1.1775,
      0.49,
      1.275,
      0.5875,
      1.3725,
      0.6875,
      0,
      0.785,
      0.0975,
      0.8825,
      0.1975,
      0.98,
      0.295,
      1.0775,
      0.3925,
      1.1775,
      0.49,
      1.275,
      0.5875,
      1.3725,
      0.6875,
      0,
      0.785,
      0.0975,
      0.8825,
      0.1975,
      0.98,
      0.295,
      1.0775,
      0.3925,
      1.1775,
      0.49,
      1.275,
      0.5875,
      1.3725,
      0.6875,
      0,
      0.785,
      0.0975,
      0.8825,
      0.1975,
      0.98,
      0.295,
      1.0775,
      0.3925,
      1.1775,
      0.49,
      1.275,
      0.5875,
      1.3725,
      0.6875
    ],
    "SoftwareVersions": "syngo_MR_E11",
    "SpacingBetweenSlices": 2,
    "StationName": "MRC35049",
    "TaskName": "bourne03",
    "TotalReadoutTime": 0.0576811,
    "TxRefAmp": 236.023,
    "dataset": "<unset>",
    "dcmmeta_affine": [
      [
        -1.9987858533859253,
        -0.043962568044662476,
        -0.05405709892511368,
        106.29731750488281
      ],
      [
        -0.022864172235131264,
        1.879564642906189,
        -0.6831647157669067,
        -60.62767791748047
      ],
      [
        -0.06581874191761017,
        0.6821320056915283,
        1.8789262771606445,
        -75.098876953125
      ],
      [
        0.0,
        0.0,
        0.0,
        1.0
      ]
    ],
    "dcmmeta_reorient_transform": [
      [
        0.0,
        -1.0,
        0.0,
        103.0
      ],
      [
        1.0,
        0.0,
        0.0,
        0.0
      ],
      [
        0.0,
        0.0,
        1.0,
        0.0
      ],
      [
        0.0,
        0.0,
        0.0,
        1.0
      ]
    ],
    "dcmmeta_shape": [
      104,
      104,
      60,
      406
    ],
    "dcmmeta_slice_dim": 2,
    "dcmmeta_version": 0.6,
    "global": {
      "const": {
        "AcquisitionMatrix": [
          104,
          0,
          0,
          104
        ],
        "AngioFlag": "N",
        "BitsAllocated": 16,
        "BitsStored": 16,
        "BodyPartExamined": "BRAIN",
        "Columns": 832,
        "EchoNumbers": 1,
        "EchoTime": 37.0,
        "EchoTrainLength": 104,
        "FlipAngle": 52.0,
        "HighBit": 15,
        "ImageOrientationPatient": [
          0.99939295614018,
          0.01143208636124,
          -0.0329093697724,
          -0.0219812831448,
          0.93978232136596,
          -0.3410659930854
        ],
        "ImagePositionPatient": [
          -813.32487322641,
          -825.45157070071,
          267.41478247626
        ],
        "ImageType": [
          "ORIGINAL",
          "PRIMARY",
          "M",
          "MB",
          "ND",
          "MOSAIC"
        ],
        "ImagedNucleus": "1H",
        "ImagingFrequency": 123.259425,
        "InPlanePhaseEncodingDirection": "COL",
        "MRAcquisitionType": "2D",
        "MagneticFieldStrength": 3.0,
        "Manufacturer": "SIEMENS",
        "ManufacturerModelName": "Prisma_fit",
        "Modality": "MR",
        "NumberOfAverages": 1.0,
        "NumberOfPhaseEncodingSteps": 104,
        "PercentPhaseFieldOfView": 100.0,
        "PercentSampling": 100.0,
        "PerformedProcedureStepStartTime": "174525.589000",
        "PhotometricInterpretation": "MONOCHROME2",
        "PixelBandwidth": 2290.0,
        "PixelRepresentation": 0,
        "PixelSpacing": [
          2.0,
          2.0
        ],
        "ProtocolName": "func_task-bourne3",
        "RepetitionTime": 1490.0,
        "Rows": 832,
        "SAR": 0.03458869700965,
        "SamplesPerPixel": 1,
        "ScanOptions": "FS",
        "ScanningSequence": "EP",
        "SequenceName": "epfid2d1_104",
        "SequenceVariant": [
          "SK",
          "SS"
        ],
        "SeriesDescription": "func_task-bourne3",
        "SeriesNumber": 18,
        "SeriesTime": "183840.810000",
        "SliceLocation": -52.716343500502,
        "SliceThickness": 2.0,
        "SmallestImagePixelValue": 0,
        "SoftwareVersions": "syngo MR E11",
        "SpacingBetweenSlices": 2.0000000426082,
        "SpecificCharacterSet": "ISO_IR 100",
        "StudyID": "1",
        "StudyTime": "174525.524000",
        "TransmitCoilName": "Body",
        "VariableFlipAngleFlag": "N",
        "WindowCenterWidthExplanation": "Algo1",
        "dBdt": 0.0
      },
      "slices": {}
    },
    "modality": "bold",
    "session_id": "009",
    "subject_id": "05",
    "task_id": "bourne03",
    "time": {
      "samples": {
        "AcquisitionNumber": [
          1,
          2,
          3,
          4,
          5,
          6,
          7,
          8,
          9,
          10,
          11,
          12,
          13,
          14,
          15,
          16,
          17,
          18,
          19,
          20,
          21,
          22,
          23,
          24,
          25,
          26,
          27,
          28,
          29,
          30,
          31,
          32,
          33,
          34,
          35,
          36,
          37,
          38,
          39,
          40,
          41,
          42,
          43,
          44,
          45,
          46,
          47,
          48,
          49,
          50,
          51,
          52,
          53,
          54,
          55,
          56,
          57,
          58,
          59,
          60,
          61,
          62,
          63,
          64,
          65,
          66,
          67,
          68,
          69,
          70,
          71,
          72,
          73,
          74,
          75,
          76,
          77,
          78,
          79,
          80,
          81,
          82,
          83,
          84,
          85,
          86,
          87,
          88,
          89,
          90,
          91,
          92,
          93,
          94,
          95,
          96,
          97,
          98,
          99,
          100,
          101,
          102,
          103,
          104,
          105,
          106,
          107,
          108,
          109,
          110,
          111,
          112,
          113,
          114,
          115,
          116,
          117,
          118,
          119,
          120,
          121,
          122,
          123,
          124,
          125,
          126,
          127,
          128,
          129,
          130,
          131,
          132,
          133,
          134,
          135,
          136,
          137,
          138,
          139,
          140,
          141,
          142,
          143,
          144,
          145,
          146,
          147,
          148,
          149,
          150,
          151,
          152,
          153,
          154,
          155,
          156,
          157,
          158,
          159,
          160,
          161,
          162,
          163,
          164,
          165,
          166,
          167,
          168,
          169,
          170,
          171,
          172,
          173,
          174,
          175,
          176,
          177,
          178,
          179,
          180,
          181,
          182,
          183,
          184,
          185,
          186,
          187,
          188,
          189,
          190,
          191,
          192,
          193,
          194,
          195,
          196,
          197,
          198,
          199,
          200,
          201,
          202,
          203,
          204,
          205,
          206,
          207,
          208,
          209,
          210,
          211,
          212,
          213,
          214,
          215,
          216,
          217,
          218,
          219,
          220,
          221,
          222,
          223,
          224,
          225,
          226,
          227,
          228,
          229,
          230,
          231,
          232,
          233,
          234,
          235,
          236,
          237,
          238,
          239,
          240,
          241,
          242,
          243,
          244,
          245,
          246,
          247,
          248,
          249,
          250,
          251,
          252,
          253,
          254,
          255,
          256,
          257,
          258,
          259,
          260,
          261,
          262,
          263,
          264,
          265,
          266,
          267,
          268,
          269,
          270,
          271,
          272,
          273,
          274,
          275,
          276,
          277,
          278,
          279,
          280,
          281,
          282,
          283,
          284,
          285,
          286,
          287,
          288,
          289,
          290,
          291,
          292,
          293,
          294,
          295,
          296,
          297,
          298,
          299,
          300,
          301,
          302,
          303,
          304,
          305,
          306,
          307,
          308,
          309,
          310,
          311,
          312,
          313,
          314,
          315,
          316,
          317,
          318,
          319,
          320,
          321,
          322,
          323,
          324,
          325,
          326,
          327,
          328,
          329,
          330,
          331,
          332,
          333,
          334,
          335,
          336,
          337,
          338,
          339,
          340,
          341,
          342,
          343,
          344,
          345,
          346,
          347,
          348,
          349,
          350,
          351,
          352,
          353,
          354,
          355,
          356,
          357,
          358,
          359,
          360,
          361,
          362,
          363,
          364,
          365,
          366,
          367,
          368,
          369,
          370,
          371,
          372,
          373,
          374,
          375,
          376,
          377,
          378,
          379,
          380,
          381,
          382,
          383,
          384,
          385,
          386,
          387,
          388,
          389,
          390,
          391,
          392,
          393,
          394,
          395,
          396,
          397,
          398,
          399,
          400,
          401,
          402,
          403,
          404,
          405,
          406
        ],
        "AcquisitionTime": [
          "183729.520000",
          "183731.010000",
          "183732.500000",
          "183733.990000",
          "183735.480000",
          "183736.970000",
          "183738.460000",
          "183739.950000",
          "183741.440000",
          "183742.930000",
          "183744.420000",
          "183745.910000",
          "183747.400000",
          "183748.890000",
          "183750.380000",
          "183751.870000",
          "183753.360000",
          "183754.850000",
          "183756.340000",
          "183757.830000",
          "183759.320000",
          "183800.810000",
          "183802.300000",
          "183803.790000",
          "183805.280000",
          "183806.770000",
          "183808.260000",
          "183809.750000",
          "183811.240000",
          "183812.730000",
          "183814.220000",
          "183815.710000",
          "183817.200000",
          "183818.690000",
          "183820.180000",
          "183821.670000",
          "183823.160000",
          "183824.650000",
          "183826.140000",
          "183827.630000",
          "183829.120000",
          "183830.610000",
          "183832.100000",
          "183833.590000",
          "183835.080000",
          "183836.570000",
          "183838.060000",
          "183839.550000",
          "183841.040000",
          "183842.530000",
          "183844.020000",
          "183845.510000",
          "183847.000000",
          "183848.490000",
          "183849.980000",
          "183851.470000",
          "183852.960000",
          "183854.450000",
          "183855.940000",
          "183857.430000",
          "183858.920000",
          "183900.410000",
          "183901.900000",
          "183903.390000",
          "183904.880000",
          "183906.370000",
          "183907.860000",
          "183909.350000",
          "183910.840000",
          "183912.330000",
          "183913.820000",
          "183915.310000",
          "183916.800000",
          "183918.290000",
          "183919.780000",
          "183921.270000",
          "183922.760000",
          "183924.250000",
          "183925.740000",
          "183927.230000",
          "183928.720000",
          "183930.210000",
          "183931.700000",
          "183933.190000",
          "183934.680000",
          "183936.170000",
          "183937.660000",
          "183939.150000",
          "183940.640000",
          "183942.130000",
          "183943.620000",
          "183945.110000",
          "183946.600000",
          "183948.090000",
          "183949.580000",
          "183951.070000",
          "183952.560000",
          "183954.050000",
          "183955.540000",
          "183957.030000",
          "183958.520000",
          "184000.010000",
          "184001.500000",
          "184002.990000",
          "184004.480000",
          "184005.970000",
          "184007.460000",
          "184008.950000",
          "184010.440000",
          "184011.930000",
          "184013.420000",
          "184014.910000",
          "184016.400000",
          "184017.890000",
          "184019.380000",
          "184020.870000",
          "184022.360000",
          "184023.850000",
          "184025.340000",
          "184026.830000",
          "184028.320000",
          "184029.810000",
          "184031.300000",
          "184032.790000",
          "184034.280000",
          "184035.770000",
          "184037.260000",
          "184038.750000",
          "184040.240000",
          "184041.730000",
          "184043.220000",
          "184044.710000",
          "184046.200000",
          "184047.690000",
          "184049.180000",
          "184050.670000",
          "184052.160000",
          "184053.650000",
          "184055.140000",
          "184056.630000",
          "184058.120000",
          "184059.610000",
          "184101.100000",
          "184102.590000",
          "184104.080000",
          "184105.570000",
          "184107.060000",
          "184108.550000",
          "184110.040000",
          "184111.530000",
          "184113.020000",
          "184114.510000",
          "184116.000000",
          "184117.490000",
          "184118.980000",
          "184120.470000",
          "184121.960000",
          "184123.450000",
          "184124.940000",
          "184126.430000",
          "184127.920000",
          "184129.410000",
          "184130.900000",
          "184132.390000",
          "184133.880000",
          "184135.370000",
          "184136.860000",
          "184138.350000",
          "184139.840000",
          "184141.330000",
          "184142.820000",
          "184144.310000",
          "184145.800000",
          "184147.290000",
          "184148.780000",
          "184150.270000",
          "184151.760000",
          "184153.250000",
          "184154.740000",
          "184156.230000",
          "184157.720000",
          "184159.210000",
          "184200.700000",
          "184202.190000",
          "184203.680000",
          "184205.170000",
          "184206.660000",
          "184208.150000",
          "184209.640000",
          "184211.130000",
          "184212.620000",
          "184214.110000",
          "184215.600000",
          "184217.090000",
          "184218.580000",
          "184220.070000",
          "184221.560000",
          "184223.050000",
          "184224.540000",
          "184226.030000",
          "184227.520000",
          "184229.010000",
          "184230.500000",
          "184231.990000",
          "184233.480000",
          "184234.970000",
          "184236.460000",
          "184237.950000",
          "184239.440000",
          "184240.930000",
          "184242.420000",
          "184243.910000",
          "184245.400000",
          "184246.890000",
          "184248.380000",
          "184249.870000",
          "184251.360000",
          "184252.850000",
          "184254.340000",
          "184255.830000",
          "184257.320000",
          "184258.810000",
          "184300.300000",
          "184301.790000",
          "184303.280000",
          "184304.770000",
          "184306.260000",
          "184307.750000",
          "184309.240000",
          "184310.730000",
          "184312.220000",
          "184313.710000",
          "184315.200000",
          "184316.690000",
          "184318.180000",
          "184319.670000",
          "184321.160000",
          "184322.650000",
          "184324.140000",
          "184325.630000",
          "184327.120000",
          "184328.610000",
          "184330.100000",
          "184331.590000",
          "184333.080000",
          "184334.570000",
          "184336.060000",
          "184337.550000",
          "184339.040000",
          "184340.530000",
          "184342.020000",
          "184343.510000",
          "184345.000000",
          "184346.490000",
          "184347.980000",
          "184349.470000",
          "184350.960000",
          "184352.450000",
          "184353.940000",
          "184355.430000",
          "184356.920000",
          "184358.410000",
          "184359.900000",
          "184401.390000",
          "184402.880000",
          "184404.370000",
          "184405.860000",
          "184407.350000",
          "184408.840000",
          "184410.330000",
          "184411.820000",
          "184413.310000",
          "184414.800000",
          "184416.290000",
          "184417.780000",
          "184419.270000",
          "184420.760000",
          "184422.250000",
          "184423.740000",
          "184425.230000",
          "184426.720000",
          "184428.210000",
          "184429.700000",
          "184431.190000",
          "184432.680000",
          "184434.170000",
          "184435.660000",
          "184437.150000",
          "184438.640000",
          "184440.130000",
          "184441.620000",
          "184443.110000",
          "184444.600000",
          "184446.090000",
          "184447.580000",
          "184449.070000",
          "184450.560000",
          "184452.050000",
          "184453.540000",
          "184455.030000",
          "184456.520000",
          "184458.010000",
          "184459.500000",
          "184500.990000",
          "184502.480000",
          "184503.970000",
          "184505.460000",
          "184506.950000",
          "184508.440000",
          "184509.930000",
          "184511.420000",
          "184512.910000",
          "184514.400000",
          "184515.890000",
          "184517.380000",
          "184518.870000",
          "184520.360000",
          "184521.850000",
          "184523.340000",
          "184524.830000",
          "184526.320000",
          "184527.810000",
          "184529.300000",
          "184530.790000",
          "184532.280000",
          "184533.770000",
          "184535.260000",
          "184536.750000",
          "184538.240000",
          "184539.730000",
          "184541.220000",
          "184542.710000",
          "184544.200000",
          "184545.690000",
          "184547.180000",
          "184548.670000",
          "184550.160000",
          "184551.650000",
          "184553.140000",
          "184554.630000",
          "184556.120000",
          "184557.610000",
          "184559.100000",
          "184600.590000",
          "184602.080000",
          "184603.570000",
          "184605.060000",
          "184606.550000",
          "184608.040000",
          "184609.530000",
          "184611.020000",
          "184612.510000",
          "184614.000000",
          "184615.490000",
          "184616.980000",
          "184618.470000",
          "184619.960000",
          "184621.450000",
          "184622.940000",
          "184624.430000",
          "184625.920000",
          "184627.410000",
          "184628.900000",
          "184630.390000",
          "184631.880000",
          "184633.370000",
          "184634.860000",
          "184636.350000",
          "184637.840000",
          "184639.330000",
          "184640.820000",
          "184642.310000",
          "184643.800000",
          "184645.290000",
          "184646.780000",
          "184648.270000",
          "184649.760000",
          "184651.250000",
          "184652.740000",
          "184654.230000",
          "184655.720000",
          "184657.210000",
          "184658.700000",
          "184700.190000",
          "184701.680000",
          "184703.170000",
          "184704.660000",
          "184706.150000",
          "184707.640000",
          "184709.130000",
          "184710.620000",
          "184712.110000",
          "184713.600000",
          "184715.090000",
          "184716.580000",
          "184718.070000",
          "184719.560000",
          "184721.050000",
          "184722.540000",
          "184724.030000",
          "184725.520000",
          "184727.010000",
          "184728.500000",
          "184729.990000",
          "184731.480000",
          "184732.970000"
        ],
        "ContentTime": [
          "183840.813000",
          "183840.817000",
          "183840.820000",
          "183840.822000",
          "183840.825000",
          "183840.828000",
          "183840.831000",
          "183840.838000",
          "183840.840000",
          "183840.850000",
          "183840.853000",
          "183840.855000",
          "183840.858000",
          "183840.861000",
          "183840.864000",
          "183840.867000",
          "183840.870000",
          "183840.873000",
          "183900.777000",
          "183900.780000",
          "183900.783000",
          "183900.786000",
          "183900.789000",
          "183900.792000",
          "183900.794000",
          "183900.797000",
          "183900.800000",
          "183900.803000",
          "183900.806000",
          "183900.809000",
          "183900.812000",
          "183900.815000",
          "183900.818000",
          "183900.821000",
          "183900.824000",
          "183900.826000",
          "183900.829000",
          "183900.832000",
          "183920.777000",
          "183920.780000",
          "183920.783000",
          "183920.795000",
          "183920.797000",
          "183920.800000",
          "183920.803000",
          "183920.806000",
          "183920.809000",
          "183920.812000",
          "183920.815000",
          "183920.817000",
          "183920.820000",
          "183920.823000",
          "183920.826000",
          "183920.830000",
          "183920.833000",
          "183920.836000",
          "183920.839000",
          "183920.841000",
          "183940.777000",
          "183940.780000",
          "183940.783000",
          "183940.785000",
          "183940.788000",
          "183940.791000",
          "183940.794000",
          "183940.797000",
          "183940.799000",
          "183940.802000",
          "183940.805000",
          "183940.808000",
          "183940.811000",
          "183940.814000",
          "183940.816000",
          "183940.819000",
          "183940.822000",
          "183940.825000",
          "183940.828000",
          "183940.831000",
          "183940.833000",
          "184000.778000",
          "184000.781000",
          "184000.784000",
          "184000.787000",
          "184000.789000",
          "184000.792000",
          "184000.795000",
          "184000.798000",
          "184000.801000",
          "184000.803000",
          "184000.806000",
          "184000.809000",
          "184000.812000",
          "184000.815000",
          "184000.818000",
          "184000.821000",
          "184000.824000",
          "184000.826000",
          "184000.829000",
          "184000.832000",
          "184040.778000",
          "184040.781000",
          "184040.784000",
          "184040.798000",
          "184040.801000",
          "184040.804000",
          "184040.807000",
          "184040.809000",
          "184040.812000",
          "184040.815000",
          "184040.818000",
          "184040.821000",
          "184040.824000",
          "184040.826000",
          "184040.829000",
          "184040.832000",
          "184040.835000",
          "184040.838000",
          "184040.840000",
          "184040.843000",
          "184040.846000",
          "184040.849000",
          "184040.852000",
          "184040.855000",
          "184040.858000",
          "184040.860000",
          "184040.863000",
          "184040.866000",
          "184120.777000",
          "184120.780000",
          "184120.783000",
          "184120.786000",
          "184120.788000",
          "184120.791000",
          "184120.794000",
          "184120.797000",
          "184120.800000",
          "184120.803000",
          "184120.806000",
          "184120.808000",
          "184120.818000",
          "184120.821000",
          "184120.824000",
          "184120.827000",
          "184120.830000",
          "184120.833000",
          "184120.835000",
          "184120.838000",
          "184120.841000",
          "184120.844000",
          "184120.847000",
          "184120.850000",
          "184120.853000",
          "184120.856000",
          "184120.858000",
          "184200.777000",
          "184200.780000",
          "184200.783000",
          "184200.786000",
          "184200.788000",
          "184200.791000",
          "184200.794000",
          "184200.797000",
          "184200.804000",
          "184200.807000",
          "184200.810000",
          "184200.813000",
          "184200.816000",
          "184200.818000",
          "184200.821000",
          "184200.824000",
          "184200.827000",
          "184200.830000",
          "184200.833000",
          "184200.835000",
          "184200.838000",
          "184200.841000",
          "184200.844000",
          "184200.847000",
          "184200.850000",
          "184200.853000",
          "184200.855000",
          "184240.778000",
          "184240.781000",
          "184240.784000",
          "184240.787000",
          "184240.789000",
          "184240.792000",
          "184240.815000",
          "184240.818000",
          "184240.821000",
          "184240.824000",
          "184240.827000",
          "184240.830000",
          "184240.832000",
          "184240.835000",
          "184240.838000",
          "184240.841000",
          "184240.844000",
          "184240.846000",
          "184240.849000",
          "184240.852000",
          "184240.855000",
          "184240.858000",
          "184240.861000",
          "184240.864000",
          "184240.866000",
          "184240.869000",
          "184240.872000",
          "184320.777000",
          "184320.780000",
          "184320.783000",
          "184320.786000",
          "184320.788000",
          "184320.791000",
          "184320.794000",
          "184320.797000",
          "184320.800000",
          "184320.803000",
          "184320.806000",
          "184320.808000",
          "184320.811000",
          "184320.814000",
          "184320.817000",
