{
  "aor": 0.0024314814814814815,
  "aqi": 0.01051662824691358,
  "bids_meta": {
    "AcquisitionMatrixPE": 104,
    "AcquisitionNumber": 1,
    "AcquisitionTime": "19:33:0.292500",
    "BandwidthPerPixelPhaseEncode": 17.17,
    "BaseResolution": 104,
    "BodyPartExamined": "BRAIN",
    "CogAtlasID": "trm_4c898da401420",
    "ConsistencyInfo": "N4_VE11C_LATEST_20160120",
    "ConversionSoftware": "dcm2niix",
    "ConversionSoftwareVersion": "v1.0.20171215 (OpenJPEG build) GCC7.3.0",
    "DerivedVendorReportedEchoSpacing": 0.000560011,
    "DeviceSerialNumber": "167006",
    "DwellTime": 2.1e-06,
    "EchoTime": 0.037,
    "EchoTrainLength": 104,
    "EffectiveEchoSpacing": 0.000560011,
    "FlipAngle": 52,
    "ImageComments": "Unaliased_MB4_PE3_LB",
    "ImageOrientationPatientDICOM": [
      0.999393,
      0.0114321,
      -0.0329094,
      -0.0219813,
      0.939782,
      -0.341066
    ],
    "ImageType": [
      "ORIGINAL",
      "PRIMARY",
      "M",
      "MB",
      "ND",
      "MOSAIC"
    ],
    "InPlanePhaseEncodingDirectionDICOM": "COL",
    "InstitutionAddress": "Chemin_Queen-Mary_4565_Montreal_District_CA_H3W_1W5",
    "InstitutionName": "IUGM",
    "InstitutionalDepartmentName": "Department",
    "MRAcquisitionType": "2D",
    "MagneticFieldStrength": 3,
    "Manufacturer": "Siemens",
    "ManufacturersModelName": "Prisma_fit",
    "Modality": "MR",
    "MultibandAccelerationFactor": 4,
    "PartialFourier": 1,
    "PatientPosition": "HFS",
    "PercentPhaseFOV": 100,
    "PhaseEncodingDirection": "j-",
    "PhaseEncodingSteps": 104,
    "PhaseResolution": 1,
    "PixelBandwidth": 2290,
    "ProcedureStepDescription": "video5_generic",
    "ProtocolName": "func_task-bourne8",
    "PulseSequenceDetails": "%CustomerSeq%_cmrr_mbep2d_bold",
    "ReceiveCoilActiveElements": "HC1-7;NC1,2",
    "ReceiveCoilName": "HeadNeck_64",
    "ReconMatrixPE": 104,
    "RepetitionTime": 1.49,
    "SAR": 0.0345887,
    "ScanOptions": "FS",
    "ScanningSequence": "EP",
    "SequenceName": "epfid2d1_104",
    "SequenceVariant": "SK_SS",
    "SeriesDescription": "func_task-bourne8",
    "SeriesNumber": 28,
    "ShimSetting": [
      613,
      -7234,
      -8871,
      402,
      -1,
      -355,
      -1,
      40
    ],
    "SliceThickness": 2,
    "SliceTiming": [
      0,
      0.785,
      0.1,
      0.8825,
      0.1975,
      0.98,
      0.295,
      1.08,
      0.3925,
      1.1775,
      0.49,
      1.275,
      0.59,
      1.3725,
      0.6875,
      0,
      0.785,
      0.1,
      0.8825,
      0.1975,
      0.98,
      0.295,
      1.08,
      0.3925,
      1.1775,
      0.49,
      1.275,
      0.59,
      1.3725,
      0.6875,
      0,
      0.785,
      0.1,
      0.8825,
      0.1975,
      0.98,
      0.295,
      1.08,
      0.3925,
      1.1775,
      0.49,
      1.275,
      0.59,
      1.3725,
      0.6875,
      0,
      0.785,
      0.1,
      0.8825,
      0.1975,
      0.98,
      0.295,
      1.08,
      0.3925,
      1.1775,
      0.49,
      1.275,
      0.59,
      1.3725,
      0.6875
    ],
    "SoftwareVersions": "syngo_MR_E11",
    "SpacingBetweenSlices": 2,
    "StationName": "MRC35049",
    "TaskName": "bourne08",
    "TotalReadoutTime": 0.0576811,
    "TxRefAmp": 236.023,
    "dataset": "<unset>",
    "dcmmeta_affine": [
      [
        -1.9987858533859253,
        -0.043962568044662476,
        -0.05405709892511368,
        106.29731750488281
      ],
      [
        -0.022864172235131264,
        1.879564642906189,
        -0.6831647157669067,
        -60.62767791748047
      ],
      [
        -0.06581874191761017,
        0.6821320056915283,
        1.8789262771606445,
        -75.098876953125
      ],
      [
        0.0,
        0.0,
        0.0,
        1.0
      ]
    ],
    "dcmmeta_reorient_transform": [
      [
        0.0,
        -1.0,
        0.0,
        103.0
      ],
      [
        1.0,
        0.0,
        0.0,
        0.0
      ],
      [
        0.0,
        0.0,
        1.0,
        0.0
      ],
      [
        0.0,
        0.0,
        0.0,
        1.0
      ]
    ],
    "dcmmeta_shape": [
      104,
      104,
      60,
      406
    ],
    "dcmmeta_slice_dim": 2,
    "dcmmeta_version": 0.6,
    "global": {
      "const": {
        "AcquisitionMatrix": [
          104,
          0,
          0,
          104
        ],
        "AngioFlag": "N",
        "BitsAllocated": 16,
        "BitsStored": 16,
        "BodyPartExamined": "BRAIN",
        "Columns": 832,
        "EchoNumbers": 1,
        "EchoTime": 37.0,
        "EchoTrainLength": 104,
        "FlipAngle": 52.0,
        "HighBit": 15,
        "ImageOrientationPatient": [
          0.99939295614018,
          0.01143208636124,
          -0.0329093697724,
          -0.0219812831448,
          0.93978232136596,
          -0.3410659930854
        ],
        "ImagePositionPatient": [
          -813.32487322641,
          -825.45157070071,
          267.41478247626
        ],
        "ImageType": [
          "ORIGINAL",
          "PRIMARY",
          "M",
          "MB",
          "ND",
          "MOSAIC"
        ],
        "ImagedNucleus": "1H",
        "ImagingFrequency": 123.259437,
        "InPlanePhaseEncodingDirection": "COL",
        "MRAcquisitionType": "2D",
        "MagneticFieldStrength": 3.0,
        "Manufacturer": "SIEMENS",
        "ManufacturerModelName": "Prisma_fit",
        "Modality": "MR",
        "NumberOfAverages": 1.0,
        "NumberOfPhaseEncodingSteps": 104,
        "PercentPhaseFieldOfView": 100.0,
        "PercentSampling": 100.0,
        "PerformedProcedureStepStartTime": "174525.589000",
        "PhotometricInterpretation": "MONOCHROME2",
        "PixelBandwidth": 2290.0,
        "PixelRepresentation": 0,
        "PixelSpacing": [
          2.0,
          2.0
        ],
        "ProtocolName": "func_task-bourne8",
        "RepetitionTime": 1490.0,
        "Rows": 832,
        "SAR": 0.03458869700965,
        "SamplesPerPixel": 1,
        "ScanOptions": "FS",
        "ScanningSequence": "EP",
        "SequenceName": "epfid2d1_104",
        "SequenceVariant": [
          "SK",
          "SS"
        ],
        "SeriesDescription": "func_task-bourne8",
        "SeriesNumber": 28,
        "SeriesTime": "193418.389000",
        "SliceLocation": -52.716343500502,
        "SliceThickness": 2.0,
        "SmallestImagePixelValue": 0,
        "SoftwareVersions": "syngo MR E11",
        "SpacingBetweenSlices": 2.0000000426082,
        "SpecificCharacterSet": "ISO_IR 100",
        "StudyID": "1",
        "StudyTime": "174525.524000",
        "TransmitCoilName": "Body",
        "VariableFlipAngleFlag": "N",
        "WindowCenterWidthExplanation": "Algo1",
        "dBdt": 0.0
      },
      "slices": {}
    },
    "modality": "bold",
    "session_id": "009",
    "subject_id": "05",
    "task_id": "bourne08",
    "time": {
      "samples": {
        "AcquisitionNumber": [
          1,
          2,
          3,
          4,
          5,
          6,
          7,
          8,
          9,
          10,
          11,
          12,
          13,
          14,
          15,
          16,
          17,
          18,
          19,
          20,
          21,
          22,
          23,
          24,
          25,
          26,
          27,
          28,
          29,
          30,
          31,
          32,
          33,
          34,
          35,
          36,
          37,
          38,
          39,
          40,
          41,
          42,
          43,
          44,
          45,
          46,
          47,
          48,
          49,
          50,
          51,
          52,
          53,
          54,
          55,
          56,
          57,
          58,
          59,
          60,
          61,
          62,
          63,
          64,
          65,
          66,
          67,
          68,
          69,
          70,
          71,
          72,
          73,
          74,
          75,
          76,
          77,
          78,
          79,
          80,
          81,
          82,
          83,
          84,
          85,
          86,
          87,
          88,
          89,
          90,
          91,
          92,
          93,
          94,
          95,
          96,
          97,
          98,
          99,
          100,
          101,
          102,
          103,
          104,
          105,
          106,
          107,
          108,
          109,
          110,
          111,
          112,
          113,
          114,
          115,
          116,
          117,
          118,
          119,
          120,
          121,
          122,
          123,
          124,
          125,
          126,
          127,
          128,
          129,
          130,
          131,
          132,
          133,
          134,
          135,
          136,
          137,
          138,
          139,
          140,
          141,
          142,
          143,
          144,
          145,
          146,
          147,
          148,
          149,
          150,
          151,
          152,
          153,
          154,
          155,
          156,
          157,
          158,
          159,
          160,
          161,
          162,
          163,
          164,
          165,
          166,
          167,
          168,
          169,
          170,
          171,
          172,
          173,
          174,
          175,
          176,
          177,
          178,
          179,
          180,
          181,
          182,
          183,
          184,
          185,
          186,
          187,
          188,
          189,
          190,
          191,
          192,
          193,
          194,
          195,
          196,
          197,
          198,
          199,
          200,
          201,
          202,
          203,
          204,
          205,
          206,
          207,
          208,
          209,
          210,
          211,
          212,
          213,
          214,
          215,
          216,
          217,
          218,
          219,
          220,
          221,
          222,
          223,
          224,
          225,
          226,
          227,
          228,
          229,
          230,
          231,
          232,
          233,
          234,
          235,
          236,
          237,
          238,
          239,
          240,
          241,
          242,
          243,
          244,
          245,
          246,
          247,
          248,
          249,
          250,
          251,
          252,
          253,
          254,
          255,
          256,
          257,
          258,
          259,
          260,
          261,
          262,
          263,
          264,
          265,
          266,
          267,
          268,
          269,
          270,
          271,
          272,
          273,
          274,
          275,
          276,
          277,
          278,
          279,
          280,
          281,
          282,
          283,
          284,
          285,
          286,
          287,
          288,
          289,
          290,
          291,
          292,
          293,
          294,
          295,
          296,
          297,
          298,
          299,
          300,
          301,
          302,
          303,
          304,
          305,
          306,
          307,
          308,
          309,
          310,
          311,
          312,
          313,
          314,
          315,
          316,
          317,
          318,
          319,
          320,
          321,
          322,
          323,
          324,
          325,
          326,
          327,
          328,
          329,
          330,
          331,
          332,
          333,
          334,
          335,
          336,
          337,
          338,
          339,
          340,
          341,
          342,
          343,
          344,
          345,
          346,
          347,
          348,
          349,
          350,
          351,
          352,
          353,
          354,
          355,
          356,
          357,
          358,
          359,
          360,
          361,
          362,
          363,
          364,
          365,
          366,
          367,
          368,
          369,
          370,
          371,
          372,
          373,
          374,
          375,
          376,
          377,
          378,
          379,
          380,
          381,
          382,
          383,
          384,
          385,
          386,
          387,
          388,
          389,
          390,
          391,
          392,
          393,
          394,
          395,
          396,
          397,
          398,
          399,
          400,
          401,
          402,
          403,
          404,
          405,
          406
        ],
        "AcquisitionTime": [
          "193300.292500",
          "193301.782500",
          "193303.272500",
          "193304.762500",
          "193306.252500",
          "193307.742500",
          "193309.232500",
          "193310.722500",
          "193312.212500",
          "193313.702500",
          "193315.192500",
          "193316.682500",
          "193318.172500",
          "193319.662500",
          "193321.152500",
          "193322.642500",
          "193324.132500",
          "193325.622500",
          "193327.112500",
          "193328.602500",
          "193330.092500",
          "193331.582500",
          "193333.072500",
          "193334.562500",
          "193336.052500",
          "193337.542500",
          "193339.032500",
          "193340.522500",
          "193342.012500",
          "193343.502500",
          "193344.992500",
          "193346.482500",
          "193347.972500",
          "193349.462500",
          "193350.952500",
          "193352.442500",
          "193353.932500",
          "193355.422500",
          "193356.912500",
          "193358.402500",
          "193359.892500",
          "193401.382500",
          "193402.872500",
          "193404.362500",
          "193405.852500",
          "193407.342500",
          "193408.832500",
          "193410.322500",
          "193411.812500",
          "193413.302500",
          "193414.792500",
          "193416.282500",
          "193417.772500",
          "193419.262500",
          "193420.752500",
          "193422.242500",
          "193423.732500",
          "193425.222500",
          "193426.712500",
          "193428.202500",
          "193429.692500",
          "193431.182500",
          "193432.672500",
          "193434.162500",
          "193435.652500",
          "193437.142500",
          "193438.632500",
          "193440.122500",
          "193441.612500",
          "193443.102500",
          "193444.592500",
          "193446.082500",
          "193447.572500",
          "193449.062500",
          "193450.552500",
          "193452.042500",
          "193453.532500",
          "193455.022500",
          "193456.512500",
          "193458.002500",
          "193459.492500",
          "193500.982500",
          "193502.472500",
          "193503.962500",
          "193505.452500",
          "193506.942500",
          "193508.432500",
          "193509.922500",
          "193511.412500",
          "193512.902500",
          "193514.392500",
          "193515.882500",
          "193517.372500",
          "193518.862500",
          "193520.352500",
          "193521.842500",
          "193523.332500",
          "193524.822500",
          "193526.312500",
          "193527.802500",
          "193529.292500",
          "193530.782500",
          "193532.272500",
          "193533.762500",
          "193535.252500",
          "193536.742500",
          "193538.232500",
          "193539.722500",
          "193541.212500",
          "193542.702500",
          "193544.192500",
          "193545.682500",
          "193547.172500",
          "193548.662500",
          "193550.152500",
          "193551.642500",
          "193553.132500",
          "193554.622500",
          "193556.112500",
          "193557.602500",
          "193559.092500",
          "193600.582500",
          "193602.072500",
          "193603.562500",
          "193605.052500",
          "193606.542500",
          "193608.032500",
          "193609.522500",
          "193611.012500",
          "193612.502500",
          "193613.992500",
          "193615.482500",
          "193616.972500",
          "193618.462500",
          "193619.952500",
          "193621.442500",
          "193622.932500",
          "193624.422500",
          "193625.912500",
          "193627.402500",
          "193628.892500",
          "193630.382500",
          "193631.872500",
          "193633.362500",
          "193634.852500",
          "193636.342500",
          "193637.832500",
          "193639.322500",
          "193640.812500",
          "193642.302500",
          "193643.792500",
          "193645.282500",
          "193646.772500",
          "193648.262500",
          "193649.752500",
          "193651.242500",
          "193652.732500",
          "193654.222500",
          "193655.712500",
          "193657.202500",
          "193658.692500",
          "193700.182500",
          "193701.672500",
          "193703.162500",
          "193704.652500",
          "193706.142500",
          "193707.632500",
          "193709.122500",
          "193710.612500",
          "193712.102500",
          "193713.592500",
          "193715.082500",
          "193716.572500",
          "193718.062500",
          "193719.552500",
          "193721.042500",
          "193722.532500",
          "193724.022500",
          "193725.512500",
          "193727.002500",
          "193728.492500",
          "193729.982500",
          "193731.472500",
          "193732.962500",
          "193734.452500",
          "193735.942500",
          "193737.432500",
          "193738.922500",
          "193740.412500",
          "193741.902500",
          "193743.392500",
          "193744.882500",
          "193746.372500",
          "193747.862500",
          "193749.352500",
          "193750.842500",
          "193752.332500",
          "193753.822500",
          "193755.312500",
          "193756.802500",
          "193758.292500",
          "193759.782500",
          "193801.272500",
          "193802.762500",
          "193804.252500",
          "193805.742500",
          "193807.232500",
          "193808.722500",
          "193810.212500",
          "193811.702500",
          "193813.192500",
          "193814.682500",
          "193816.172500",
          "193817.662500",
          "193819.152500",
          "193820.642500",
          "193822.132500",
          "193823.622500",
          "193825.112500",
          "193826.602500",
          "193828.092500",
          "193829.582500",
          "193831.072500",
          "193832.562500",
          "193834.052500",
          "193835.542500",
          "193837.032500",
          "193838.522500",
          "193840.012500",
          "193841.502500",
          "193842.992500",
          "193844.482500",
          "193845.972500",
          "193847.462500",
          "193848.952500",
          "193850.442500",
          "193851.932500",
          "193853.422500",
          "193854.912500",
          "193856.402500",
          "193857.892500",
          "193859.382500",
          "193900.872500",
          "193902.362500",
          "193903.852500",
          "193905.342500",
          "193906.832500",
          "193908.322500",
          "193909.812500",
          "193911.302500",
          "193912.792500",
          "193914.282500",
          "193915.772500",
          "193917.262500",
          "193918.752500",
          "193920.242500",
          "193921.732500",
          "193923.222500",
          "193924.712500",
          "193926.202500",
          "193927.692500",
          "193929.182500",
          "193930.672500",
          "193932.162500",
          "193933.652500",
          "193935.142500",
          "193936.632500",
          "193938.122500",
          "193939.612500",
          "193941.102500",
          "193942.592500",
          "193944.082500",
          "193945.572500",
          "193947.062500",
          "193948.552500",
          "193950.042500",
          "193951.532500",
          "193953.022500",
          "193954.512500",
          "193956.002500",
          "193957.492500",
          "193958.982500",
          "194000.472500",
          "194001.962500",
          "194003.452500",
          "194004.942500",
          "194006.432500",
          "194007.922500",
          "194009.412500",
          "194010.902500",
          "194012.392500",
          "194013.882500",
          "194015.372500",
          "194016.862500",
          "194018.352500",
          "194019.842500",
          "194021.332500",
          "194022.822500",
          "194024.312500",
          "194025.802500",
          "194027.292500",
          "194028.782500",
          "194030.272500",
          "194031.762500",
          "194033.252500",
          "194034.742500",
          "194036.232500",
          "194037.722500",
          "194039.212500",
          "194040.702500",
          "194042.192500",
          "194043.682500",
          "194045.172500",
          "194046.662500",
          "194048.152500",
          "194049.642500",
          "194051.132500",
          "194052.622500",
          "194054.112500",
          "194055.602500",
          "194057.092500",
          "194058.582500",
          "194100.072500",
          "194101.562500",
          "194103.052500",
          "194104.542500",
          "194106.032500",
          "194107.522500",
          "194109.012500",
          "194110.502500",
          "194111.992500",
          "194113.482500",
          "194114.972500",
          "194116.462500",
          "194117.952500",
          "194119.442500",
          "194120.932500",
          "194122.422500",
          "194123.912500",
          "194125.402500",
          "194126.892500",
          "194128.382500",
          "194129.872500",
          "194131.362500",
          "194132.852500",
          "194134.342500",
          "194135.832500",
          "194137.322500",
          "194138.812500",
          "194140.302500",
          "194141.792500",
          "194143.282500",
          "194144.772500",
          "194146.262500",
          "194147.752500",
          "194149.242500",
          "194150.732500",
          "194152.222500",
          "194153.712500",
          "194155.202500",
          "194156.692500",
          "194158.182500",
          "194159.672500",
          "194201.162500",
          "194202.652500",
          "194204.142500",
          "194205.632500",
          "194207.122500",
          "194208.612500",
          "194210.102500",
          "194211.592500",
          "194213.082500",
          "194214.572500",
          "194216.062500",
          "194217.552500",
          "194219.042500",
          "194220.532500",
          "194222.022500",
          "194223.512500",
          "194225.002500",
          "194226.492500",
          "194227.982500",
          "194229.472500",
          "194230.962500",
          "194232.452500",
          "194233.942500",
          "194235.432500",
          "194236.922500",
          "194238.412500",
          "194239.902500",
          "194241.392500",
          "194242.882500",
          "194244.372500",
          "194245.862500",
          "194247.352500",
          "194248.842500",
          "194250.332500",
          "194251.822500",
          "194253.312500",
          "194254.802500",
          "194256.292500",
          "194257.782500",
          "194259.272500",
          "194300.762500",
          "194302.252500",
          "194303.742500"
        ],
        "ContentTime": [
          "193418.392000",
          "193418.396000",
          "193418.399000",
          "193418.402000",
          "193418.405000",
          "193418.408000",
          "193418.411000",
          "193418.413000",
          "193418.426000",
          "193418.429000",
          "193418.432000",
          "193418.437000",
          "193418.440000",
          "193418.443000",
          "193418.446000",
          "193418.448000",
          "193418.451000",
          "193418.461000",
          "193418.464000",
          "193418.467000",
          "193418.470000",
          "193418.473000",
          "193418.476000",
          "193438.335000",
          "193438.338000",
          "193438.341000",
          "193438.344000",
          "193438.347000",
          "193438.349000",
          "193438.352000",
          "193438.355000",
          "193438.358000",
          "193438.361000",
          "193438.364000",
          "193438.366000",
          "193438.369000",
          "193438.372000",
          "193438.375000",
          "193438.378000",
          "193438.381000",
          "193438.384000",
          "193438.386000",
          "193438.389000",
          "193458.335000",
          "193458.338000",
          "193458.341000",
          "193458.343000",
          "193458.346000",
          "193458.349000",
          "193458.352000",
          "193458.355000",
          "193458.358000",
          "193458.361000",
          "193458.363000",
          "193458.366000",
          "193458.369000",
          "193458.377000",
          "193458.380000",
          "193458.383000",
          "193458.386000",
          "193458.389000",
          "193458.391000",
          "193458.394000",
          "193458.397000",
          "193518.334000",
          "193518.337000",
          "193518.340000",
          "193518.343000",
          "193518.345000",
          "193518.348000",
          "193518.351000",
          "193518.354000",
          "193518.357000",
          "193518.360000",
          "193518.363000",
          "193518.365000",
          "193518.368000",
          "193518.371000",
          "193518.374000",
          "193518.377000",
          "193518.380000",
          "193518.383000",
          "193518.386000",
          "193518.388000",
          "193538.335000",
          "193538.338000",
          "193538.341000",
          "193538.344000",
          "193538.347000",
          "193538.349000",
          "193538.353000",
          "193538.355000",
          "193538.358000",
          "193538.361000",
          "193538.364000",
          "193538.367000",
          "193538.370000",
          "193538.373000",
          "193538.376000",
          "193538.379000",
          "193538.381000",
          "193538.384000",
          "193538.387000",
          "193538.390000",
          "193618.335000",
          "193618.338000",
          "193618.341000",
          "193618.344000",
          "193618.347000",
          "193618.349000",
          "193618.358000",
          "193618.361000",
          "193618.364000",
          "193618.367000",
          "193618.375000",
          "193618.378000",
          "193618.381000",
          "193618.384000",
          "193618.387000",
          "193618.390000",
          "193618.396000",
          "193618.399000",
          "193618.402000",
          "193618.405000",
          "193618.408000",
          "193618.411000",
          "193618.414000",
          "193618.416000",
          "193618.419000",
          "193618.422000",
          "193618.425000",
          "193618.428000",
          "193658.335000",
          "193658.338000",
          "193658.341000",
          "193658.344000",
          "193658.347000",
          "193658.350000",
          "193658.352000",
          "193658.356000",
          "193658.359000",
          "193658.362000",
          "193658.365000",
          "193658.368000",
          "193658.371000",
          "193658.374000",
          "193658.377000",
          "193658.380000",
          "193658.382000",
          "193658.385000",
          "193658.388000",
          "193658.391000",
          "193658.394000",
          "193658.397000",
          "193658.400000",
          "193658.403000",
          "193658.405000",
          "193658.408000",
          "193658.411000",
          "193738.334000",
          "193738.337000",
          "193738.340000",
          "193738.343000",
          "193738.346000",
          "193738.349000",
          "193738.352000",
          "193738.354000",
          "193738.357000",
          "193738.360000",
          "193738.363000",
          "193738.366000",
          "193738.369000",
          "193738.372000",
          "193738.375000",
          "193738.377000",
          "193738.380000",
          "193738.383000",
          "193738.386000",
          "193738.389000",
          "193738.392000",
          "193738.395000",
          "193738.398000",
          "193738.400000",
          "193738.403000",
          "193738.406000",
          "193738.409000",
          "193818.335000",
          "193818.338000",
          "193818.341000",
          "193818.344000",
          "193818.347000",
          "193818.350000",
          "193818.353000",
          "193818.356000",
          "193818.358000",
          "193818.361000",
          "193818.364000",
          "193818.367000",
          "193818.370000",
          "193818.373000",
          "193818.386000",
          "193818.389000",
          "193818.392000",
          "193818.395000",
          "193818.398000",
          "193818.401000",
          "193818.403000",
          "193818.406000",
          "193818.409000",
          "193818.412000",
          "193818.415000",
          "193818.418000",
          "193818.421000",
          "193858.335000",
          "193858.338000",
          "193858.341000",
          "193858.344000",
          "193858.347000",
          "193858.350000",
          "193858.353000",
          "193858.355000",
          "193858.358000",
          "193858.361000",
          "193858.364000",
