{
  "aor": 0.0014779556650246302,
  "aqi": 0.00880342884236453,
  "bids_meta": {
    "AcquisitionMatrixPE": 104,
    "AcquisitionNumber": 1,
    "AcquisitionTime": "19:11:51.967500",
    "BandwidthPerPixelPhaseEncode": 17.17,
    "BaseResolution": 104,
    "BodyPartExamined": "BRAIN",
    "CogAtlasID": "trm_4c898da401420",
    "ConsistencyInfo": "N4_VE11C_LATEST_20160120",
    "ConversionSoftware": "dcm2niix",
    "ConversionSoftwareVersion": "v1.0.20171215 (OpenJPEG build) GCC7.3.0",
    "DerivedVendorReportedEchoSpacing": 0.000560011,
    "DeviceSerialNumber": "167006",
    "DwellTime": 2.1e-06,
    "EchoTime": 0.037,
    "EchoTrainLength": 104,
    "EffectiveEchoSpacing": 0.000560011,
    "FlipAngle": 52,
    "ImageComments": "Unaliased_MB4_PE3_LB",
    "ImageOrientationPatientDICOM": [
      0.999393,
      0.0114321,
      -0.0329094,
      -0.0219813,
      0.939782,
      -0.341066
    ],
    "ImageType": [
      "ORIGINAL",
      "PRIMARY",
      "M",
      "MB",
      "ND",
      "MOSAIC"
    ],
    "InPlanePhaseEncodingDirectionDICOM": "COL",
    "InstitutionAddress": "Chemin_Queen-Mary_4565_Montreal_District_CA_H3W_1W5",
    "InstitutionName": "IUGM",
    "InstitutionalDepartmentName": "Department",
    "MRAcquisitionType": "2D",
    "MagneticFieldStrength": 3,
    "Manufacturer": "Siemens",
    "ManufacturersModelName": "Prisma_fit",
    "Modality": "MR",
    "MultibandAccelerationFactor": 4,
    "PartialFourier": 1,
    "PatientPosition": "HFS",
    "PercentPhaseFOV": 100,
    "PhaseEncodingDirection": "j-",
    "PhaseEncodingSteps": 104,
    "PhaseResolution": 1,
    "PixelBandwidth": 2290,
    "ProcedureStepDescription": "video5_generic",
    "ProtocolName": "func_task-bourne6",
    "PulseSequenceDetails": "%CustomerSeq%_cmrr_mbep2d_bold",
    "ReceiveCoilActiveElements": "HC1-7;NC1,2",
    "ReceiveCoilName": "HeadNeck_64",
    "ReconMatrixPE": 104,
    "RepetitionTime": 1.49,
    "SAR": 0.0345887,
    "ScanOptions": "FS",
    "ScanningSequence": "EP",
    "SequenceName": "epfid2d1_104",
    "SequenceVariant": "SK_SS",
    "SeriesDescription": "func_task-bourne6",
    "SeriesNumber": 24,
    "ShimSetting": [
      613,
      -7234,
      -8871,
      402,
      -1,
      -355,
      -1,
      40
    ],
    "SliceThickness": 2,
    "SliceTiming": [
      0,
      0.785,
      0.0975,
      0.8825,
      0.1975,
      0.98,
      0.295,
      1.0775,
      0.3925,
      1.1775,
      0.49,
      1.275,
      0.5875,
      1.3725,
      0.6875,
      0,
      0.785,
      0.0975,
      0.8825,
      0.1975,
      0.98,
      0.295,
      1.0775,
      0.3925,
      1.1775,
      0.49,
      1.275,
      0.5875,
      1.3725,
      0.6875,
      0,
      0.785,
      0.0975,
      0.8825,
      0.1975,
      0.98,
      0.295,
      1.0775,
      0.3925,
      1.1775,
      0.49,
      1.275,
      0.5875,
      1.3725,
      0.6875,
      0,
      0.785,
      0.0975,
      0.8825,
      0.1975,
      0.98,
      0.295,
      1.0775,
      0.3925,
      1.1775,
      0.49,
      1.275,
      0.5875,
      1.3725,
      0.6875
    ],
    "SoftwareVersions": "syngo_MR_E11",
    "SpacingBetweenSlices": 2,
    "StationName": "MRC35049",
    "TaskName": "bourne06",
    "TotalReadoutTime": 0.0576811,
    "TxRefAmp": 236.023,
    "dataset": "<unset>",
    "dcmmeta_affine": [
      [
        -1.9987858533859253,
        -0.043962568044662476,
        -0.05405709892511368,
        106.29731750488281
      ],
      [
        -0.022864172235131264,
        1.879564642906189,
        -0.6831647157669067,
        -60.62767791748047
      ],
      [
        -0.06581874191761017,
        0.6821320056915283,
        1.8789262771606445,
        -75.098876953125
      ],
      [
        0.0,
        0.0,
        0.0,
        1.0
      ]
    ],
    "dcmmeta_reorient_transform": [
      [
        0.0,
        -1.0,
        0.0,
        103.0
      ],
      [
        1.0,
        0.0,
        0.0,
        0.0
      ],
      [
        0.0,
        0.0,
        1.0,
        0.0
      ],
      [
        0.0,
        0.0,
        0.0,
        1.0
      ]
    ],
    "dcmmeta_shape": [
      104,
      104,
      60,
      406
    ],
    "dcmmeta_slice_dim": 2,
    "dcmmeta_version": 0.6,
    "global": {
      "const": {
        "AcquisitionMatrix": [
          104,
          0,
          0,
          104
        ],
        "AngioFlag": "N",
        "BitsAllocated": 16,
        "BitsStored": 16,
        "BodyPartExamined": "BRAIN",
        "Columns": 832,
        "EchoNumbers": 1,
        "EchoTime": 37.0,
        "EchoTrainLength": 104,
        "FlipAngle": 52.0,
        "HighBit": 15,
        "ImageOrientationPatient": [
          0.99939295614018,
          0.01143208636124,
          -0.0329093697724,
          -0.0219812831448,
          0.93978232136596,
          -0.3410659930854
        ],
        "ImagePositionPatient": [
          -813.32487322641,
          -825.45157070071,
          267.41478247626
        ],
        "ImageType": [
          "ORIGINAL",
          "PRIMARY",
          "M",
          "MB",
          "ND",
          "MOSAIC"
        ],
        "ImagedNucleus": "1H",
        "ImagingFrequency": 123.259432,
        "InPlanePhaseEncodingDirection": "COL",
        "MRAcquisitionType": "2D",
        "MagneticFieldStrength": 3.0,
        "Manufacturer": "SIEMENS",
        "ManufacturerModelName": "Prisma_fit",
        "Modality": "MR",
        "NumberOfAverages": 1.0,
        "NumberOfPhaseEncodingSteps": 104,
        "PercentPhaseFieldOfView": 100.0,
        "PercentSampling": 100.0,
        "PerformedProcedureStepStartTime": "174525.589000",
        "PhotometricInterpretation": "MONOCHROME2",
        "PixelBandwidth": 2290.0,
        "PixelRepresentation": 0,
        "PixelSpacing": [
          2.0,
          2.0
        ],
        "ProtocolName": "func_task-bourne6",
        "RepetitionTime": 1490.0,
        "Rows": 832,
        "SAR": 0.03458869700965,
        "SamplesPerPixel": 1,
        "ScanOptions": "FS",
        "ScanningSequence": "EP",
        "SequenceName": "epfid2d1_104",
        "SequenceVariant": [
          "SK",
          "SS"
        ],
        "SeriesDescription": "func_task-bourne6",
        "SeriesNumber": 24,
        "SeriesTime": "191320.812000",
        "SliceLocation": -52.716343500502,
        "SliceThickness": 2.0,
        "SmallestImagePixelValue": 0,
        "SoftwareVersions": "syngo MR E11",
        "SpacingBetweenSlices": 2.0000000426082,
        "SpecificCharacterSet": "ISO_IR 100",
        "StudyID": "1",
        "StudyTime": "174525.524000",
        "TransmitCoilName": "Body",
        "VariableFlipAngleFlag": "N",
        "WindowCenterWidthExplanation": "Algo1",
        "dBdt": 0.0
      },
      "slices": {}
    },
    "modality": "bold",
    "session_id": "009",
    "subject_id": "05",
    "task_id": "bourne06",
    "time": {
      "samples": {
        "AcquisitionNumber": [
          1,
          2,
          3,
          4,
          5,
          6,
          7,
          8,
          9,
          10,
          11,
          12,
          13,
          14,
          15,
          16,
          17,
          18,
          19,
          20,
          21,
          22,
          23,
          24,
          25,
          26,
          27,
          28,
          29,
          30,
          31,
          32,
          33,
          34,
          35,
          36,
          37,
          38,
          39,
          40,
          41,
          42,
          43,
          44,
          45,
          46,
          47,
          48,
          49,
          50,
          51,
          52,
          53,
          54,
          55,
          56,
          57,
          58,
          59,
          60,
          61,
          62,
          63,
          64,
          65,
          66,
          67,
          68,
          69,
          70,
          71,
          72,
          73,
          74,
          75,
          76,
          77,
          78,
          79,
          80,
          81,
          82,
          83,
          84,
          85,
          86,
          87,
          88,
          89,
          90,
          91,
          92,
          93,
          94,
          95,
          96,
          97,
          98,
          99,
          100,
          101,
          102,
          103,
          104,
          105,
          106,
          107,
          108,
          109,
          110,
          111,
          112,
          113,
          114,
          115,
          116,
          117,
          118,
          119,
          120,
          121,
          122,
          123,
          124,
          125,
          126,
          127,
          128,
          129,
          130,
          131,
          132,
          133,
          134,
          135,
          136,
          137,
          138,
          139,
          140,
          141,
          142,
          143,
          144,
          145,
          146,
          147,
          148,
          149,
          150,
          151,
          152,
          153,
          154,
          155,
          156,
          157,
          158,
          159,
          160,
          161,
          162,
          163,
          164,
          165,
          166,
          167,
          168,
          169,
          170,
          171,
          172,
          173,
          174,
          175,
          176,
          177,
          178,
          179,
          180,
          181,
          182,
          183,
          184,
          185,
          186,
          187,
          188,
          189,
          190,
          191,
          192,
          193,
          194,
          195,
          196,
          197,
          198,
          199,
          200,
          201,
          202,
          203,
          204,
          205,
          206,
          207,
          208,
          209,
          210,
          211,
          212,
          213,
          214,
          215,
          216,
          217,
          218,
          219,
          220,
          221,
          222,
          223,
          224,
          225,
          226,
          227,
          228,
          229,
          230,
          231,
          232,
          233,
          234,
          235,
          236,
          237,
          238,
          239,
          240,
          241,
          242,
          243,
          244,
          245,
          246,
          247,
          248,
          249,
          250,
          251,
          252,
          253,
          254,
          255,
          256,
          257,
          258,
          259,
          260,
          261,
          262,
          263,
          264,
          265,
          266,
          267,
          268,
          269,
          270,
          271,
          272,
          273,
          274,
          275,
          276,
          277,
          278,
          279,
          280,
          281,
          282,
          283,
          284,
          285,
          286,
          287,
          288,
          289,
          290,
          291,
          292,
          293,
          294,
          295,
          296,
          297,
          298,
          299,
          300,
          301,
          302,
          303,
          304,
          305,
          306,
          307,
          308,
          309,
          310,
          311,
          312,
          313,
          314,
          315,
          316,
          317,
          318,
          319,
          320,
          321,
          322,
          323,
          324,
          325,
          326,
          327,
          328,
          329,
          330,
          331,
          332,
          333,
          334,
          335,
          336,
          337,
          338,
          339,
          340,
          341,
          342,
          343,
          344,
          345,
          346,
          347,
          348,
          349,
          350,
          351,
          352,
          353,
          354,
          355,
          356,
          357,
          358,
          359,
          360,
          361,
          362,
          363,
          364,
          365,
          366,
          367,
          368,
          369,
          370,
          371,
          372,
          373,
          374,
          375,
          376,
          377,
          378,
          379,
          380,
          381,
          382,
          383,
          384,
          385,
          386,
          387,
          388,
          389,
          390,
          391,
          392,
          393,
          394,
          395,
          396,
          397,
          398,
          399,
          400,
          401,
          402,
          403,
          404,
          405,
          406
        ],
        "AcquisitionTime": [
          "191151.967500",
          "191153.457500",
          "191154.947500",
          "191156.437500",
          "191157.927500",
          "191159.417500",
          "191200.907500",
          "191202.397500",
          "191203.887500",
          "191205.377500",
          "191206.867500",
          "191208.357500",
          "191209.847500",
          "191211.337500",
          "191212.827500",
          "191214.317500",
          "191215.807500",
          "191217.297500",
          "191218.787500",
          "191220.277500",
          "191221.767500",
          "191223.257500",
          "191224.747500",
          "191226.237500",
          "191227.727500",
          "191229.217500",
          "191230.707500",
          "191232.197500",
          "191233.687500",
          "191235.177500",
          "191236.667500",
          "191238.157500",
          "191239.647500",
          "191241.137500",
          "191242.627500",
          "191244.117500",
          "191245.607500",
          "191247.097500",
          "191248.587500",
          "191250.077500",
          "191251.567500",
          "191253.057500",
          "191254.547500",
          "191256.037500",
          "191257.527500",
          "191259.017500",
          "191300.507500",
          "191301.997500",
          "191303.487500",
          "191304.977500",
          "191306.467500",
          "191307.957500",
          "191309.447500",
          "191310.937500",
          "191312.427500",
          "191313.917500",
          "191315.407500",
          "191316.897500",
          "191318.387500",
          "191319.877500",
          "191321.367500",
          "191322.857500",
          "191324.347500",
          "191325.837500",
          "191327.327500",
          "191328.817500",
          "191330.307500",
          "191331.797500",
          "191333.287500",
          "191334.777500",
          "191336.267500",
          "191337.757500",
          "191339.247500",
          "191340.737500",
          "191342.227500",
          "191343.717500",
          "191345.207500",
          "191346.697500",
          "191348.187500",
          "191349.677500",
          "191351.167500",
          "191352.657500",
          "191354.147500",
          "191355.637500",
          "191357.127500",
          "191358.617500",
          "191400.107500",
          "191401.597500",
          "191403.087500",
          "191404.577500",
          "191406.067500",
          "191407.557500",
          "191409.047500",
          "191410.537500",
          "191412.027500",
          "191413.517500",
          "191415.007500",
          "191416.497500",
          "191417.987500",
          "191419.477500",
          "191420.967500",
          "191422.457500",
          "191423.947500",
          "191425.437500",
          "191426.927500",
          "191428.417500",
          "191429.907500",
          "191431.397500",
          "191432.887500",
          "191434.377500",
          "191435.867500",
          "191437.357500",
          "191438.847500",
          "191440.337500",
          "191441.827500",
          "191443.317500",
          "191444.807500",
          "191446.297500",
          "191447.787500",
          "191449.277500",
          "191450.767500",
          "191452.257500",
          "191453.747500",
          "191455.237500",
          "191456.727500",
          "191458.217500",
          "191459.707500",
          "191501.197500",
          "191502.687500",
          "191504.177500",
          "191505.667500",
          "191507.157500",
          "191508.647500",
          "191510.137500",
          "191511.627500",
          "191513.117500",
          "191514.607500",
          "191516.097500",
          "191517.587500",
          "191519.077500",
          "191520.567500",
          "191522.057500",
          "191523.547500",
          "191525.037500",
          "191526.527500",
          "191528.017500",
          "191529.507500",
          "191530.997500",
          "191532.487500",
          "191533.977500",
          "191535.467500",
          "191536.957500",
          "191538.447500",
          "191539.937500",
          "191541.427500",
          "191542.917500",
          "191544.407500",
          "191545.897500",
          "191547.387500",
          "191548.877500",
          "191550.367500",
          "191551.857500",
          "191553.347500",
          "191554.837500",
          "191556.327500",
          "191557.817500",
          "191559.307500",
          "191600.797500",
          "191602.287500",
          "191603.777500",
          "191605.267500",
          "191606.757500",
          "191608.247500",
          "191609.737500",
          "191611.227500",
          "191612.717500",
          "191614.207500",
          "191615.697500",
          "191617.187500",
          "191618.677500",
          "191620.167500",
          "191621.657500",
          "191623.147500",
          "191624.637500",
          "191626.127500",
          "191627.617500",
          "191629.107500",
          "191630.597500",
          "191632.087500",
          "191633.577500",
          "191635.067500",
          "191636.557500",
          "191638.047500",
          "191639.537500",
          "191641.027500",
          "191642.517500",
          "191644.007500",
          "191645.497500",
          "191646.987500",
          "191648.477500",
          "191649.967500",
          "191651.457500",
          "191652.947500",
          "191654.437500",
          "191655.927500",
          "191657.417500",
          "191658.907500",
          "191700.397500",
          "191701.887500",
          "191703.377500",
          "191704.867500",
          "191706.357500",
          "191707.847500",
          "191709.337500",
          "191710.827500",
          "191712.317500",
          "191713.807500",
          "191715.297500",
          "191716.787500",
          "191718.277500",
          "191719.767500",
          "191721.257500",
          "191722.747500",
          "191724.237500",
          "191725.727500",
          "191727.217500",
          "191728.707500",
          "191730.197500",
          "191731.687500",
          "191733.177500",
          "191734.667500",
          "191736.157500",
          "191737.647500",
          "191739.137500",
          "191740.627500",
          "191742.117500",
          "191743.607500",
          "191745.097500",
          "191746.587500",
          "191748.077500",
          "191749.567500",
          "191751.057500",
          "191752.547500",
          "191754.037500",
          "191755.527500",
          "191757.017500",
          "191758.507500",
          "191759.997500",
          "191801.487500",
          "191802.977500",
          "191804.467500",
          "191805.957500",
          "191807.447500",
          "191808.937500",
          "191810.427500",
          "191811.917500",
          "191813.407500",
          "191814.897500",
          "191816.387500",
          "191817.877500",
          "191819.367500",
          "191820.857500",
          "191822.347500",
          "191823.837500",
          "191825.327500",
          "191826.817500",
          "191828.307500",
          "191829.797500",
          "191831.287500",
          "191832.777500",
          "191834.267500",
          "191835.757500",
          "191837.247500",
          "191838.737500",
          "191840.227500",
          "191841.717500",
          "191843.207500",
          "191844.697500",
          "191846.187500",
          "191847.677500",
          "191849.167500",
          "191850.657500",
          "191852.147500",
          "191853.637500",
          "191855.127500",
          "191856.617500",
          "191858.107500",
          "191859.597500",
          "191901.087500",
          "191902.577500",
          "191904.067500",
          "191905.557500",
          "191907.047500",
          "191908.537500",
          "191910.027500",
          "191911.517500",
          "191913.007500",
          "191914.497500",
          "191915.987500",
          "191917.477500",
          "191918.967500",
          "191920.457500",
          "191921.947500",
          "191923.437500",
          "191924.927500",
          "191926.417500",
          "191927.907500",
          "191929.397500",
          "191930.887500",
          "191932.377500",
          "191933.867500",
          "191935.357500",
          "191936.847500",
          "191938.337500",
          "191939.827500",
          "191941.317500",
          "191942.807500",
          "191944.297500",
          "191945.787500",
          "191947.277500",
          "191948.767500",
          "191950.257500",
          "191951.747500",
          "191953.237500",
          "191954.727500",
          "191956.217500",
          "191957.707500",
          "191959.197500",
          "192000.687500",
          "192002.177500",
          "192003.667500",
          "192005.157500",
          "192006.647500",
          "192008.137500",
          "192009.627500",
          "192011.117500",
          "192012.607500",
          "192014.097500",
          "192015.587500",
          "192017.077500",
          "192018.567500",
          "192020.057500",
          "192021.547500",
          "192023.037500",
          "192024.527500",
          "192026.017500",
          "192027.507500",
          "192028.997500",
          "192030.487500",
          "192031.977500",
          "192033.467500",
          "192034.957500",
          "192036.447500",
          "192037.937500",
          "192039.427500",
          "192040.917500",
          "192042.407500",
          "192043.897500",
          "192045.387500",
          "192046.877500",
          "192048.367500",
          "192049.857500",
          "192051.347500",
          "192052.837500",
          "192054.327500",
          "192055.817500",
          "192057.307500",
          "192058.797500",
          "192100.287500",
          "192101.777500",
          "192103.267500",
          "192104.757500",
          "192106.247500",
          "192107.737500",
          "192109.227500",
          "192110.717500",
          "192112.207500",
          "192113.697500",
          "192115.187500",
          "192116.677500",
          "192118.167500",
          "192119.657500",
          "192121.147500",
          "192122.637500",
          "192124.127500",
          "192125.617500",
          "192127.107500",
          "192128.597500",
          "192130.087500",
          "192131.577500",
          "192133.067500",
          "192134.557500",
          "192136.047500",
          "192137.537500",
          "192139.027500",
          "192140.517500",
          "192142.007500",
          "192143.497500",
          "192144.987500",
          "192146.477500",
          "192147.967500",
          "192149.457500",
          "192150.947500",
          "192152.437500",
          "192153.927500",
          "192155.417500"
        ],
        "ContentTime": [
          "191320.814000",
          "191320.818000",
          "191320.821000",
          "191320.824000",
          "191320.827000",
          "191320.830000",
          "191320.832000",
          "191320.836000",
          "191320.838000",
          "191320.841000",
          "191320.844000",
          "191320.847000",
          "191320.850000",
          "191320.853000",
          "191320.856000",
          "191320.859000",
          "191320.862000",
          "191320.864000",
          "191320.867000",
          "191320.870000",
          "191320.873000",
          "191320.876000",
          "191320.879000",
          "191320.882000",
          "191320.885000",
          "191320.889000",
          "191320.892000",
          "191320.895000",
          "191320.898000",
          "191320.901000",
          "191320.904000",
          "191320.906000",
          "191320.909000",
          "191320.912000",
          "191320.915000",
          "191340.777000",
          "191340.780000",
          "191340.783000",
          "191340.786000",
          "191340.789000",
          "191340.792000",
          "191340.794000",
          "191340.797000",
          "191340.800000",
          "191340.803000",
          "191340.806000",
          "191340.809000",
          "191340.811000",
          "191340.814000",
          "191340.817000",
          "191340.820000",
          "191340.823000",
          "191340.826000",
          "191340.829000",
          "191340.832000",
          "191340.834000",
          "191400.777000",
          "191400.780000",
          "191400.783000",
          "191400.785000",
          "191400.788000",
          "191400.791000",
          "191400.794000",
          "191400.797000",
          "191400.800000",
          "191400.803000",
          "191400.812000",
          "191400.815000",
          "191400.818000",
          "191400.821000",
          "191400.824000",
          "191400.827000",
          "191400.829000",
          "191400.832000",
          "191400.835000",
          "191400.838000",
          "191420.777000",
          "191420.780000",
          "191420.783000",
          "191420.785000",
          "191420.788000",
          "191420.791000",
          "191420.794000",
          "191420.797000",
          "191420.800000",
          "191420.803000",
          "191420.806000",
          "191420.809000",
          "191420.812000",
          "191420.815000",
          "191420.817000",
          "191420.820000",
          "191420.823000",
          "191420.826000",
          "191420.829000",
          "191420.832000",
          "191500.778000",
          "191500.781000",
          "191500.784000",
          "191500.786000",
          "191500.790000",
          "191500.792000",
          "191500.795000",
          "191500.798000",
          "191500.801000",
          "191500.804000",
          "191500.807000",
          "191500.810000",
          "191500.813000",
          "191500.816000",
          "191500.818000",
          "191500.821000",
          "191500.824000",
          "191500.827000",
          "191500.830000",
          "191500.833000",
          "191500.836000",
          "191500.839000",
          "191500.841000",
          "191500.844000",
          "191500.847000",
          "191500.850000",
          "191500.853000",
          "191500.856000",
          "191500.859000",
          "191500.862000",
          "191540.777000",
          "191540.780000",
          "191540.783000",
          "191540.786000",
          "191540.789000",
          "191540.791000",
          "191540.794000",
          "191540.797000",
          "191540.800000",
          "191540.803000",
          "191540.808000",
          "191540.812000",
          "191540.815000",
          "191540.819000",
          "191540.822000",
          "191540.825000",
          "191540.828000",
          "191540.831000",
          "191540.834000",
          "191540.836000",
          "191540.839000",
          "191540.842000",
          "191540.845000",
          "191540.848000",
          "191540.851000",
          "191540.854000",
          "191620.777000",
          "191620.780000",
          "191620.783000",
          "191620.786000",
          "191620.789000",
          "191620.791000",
          "191620.794000",
          "191620.797000",
          "191620.800000",
          "191620.803000",
          "191620.806000",
          "191620.808000",
          "191620.811000",
          "191620.814000",
          "191620.817000",
          "191620.820000",
          "191620.823000",
          "191620.825000",
          "191620.828000",
          "191620.831000",
          "191620.834000",
          "191620.837000",
          "191620.840000",
          "191620.843000",
          "191620.845000",
          "191620.848000",
          "191620.851000",
          "191700.778000",
          "191700.781000",
          "191700.784000",
          "191700.787000",
          "191700.790000",
          "191700.793000",
          "191700.795000",
          "191700.798000",
          "191700.801000",
          "191700.804000",
          "191700.807000",
          "191700.810000",
          "191700.812000",
          "191700.815000",
          "191700.818000",
          "191700.821000",
          "191700.824000",
          "191700.827000",
          "191700.830000",
          "191700.832000",
          "191700.835000",
          "191700.838000",
          "191700.841000",
          "191700.844000",
          "191700.847000",
          "191700.850000",
          "191700.852000",
          "191720.778000",
          "191720.781000",
          "191720.784000",
          "191720.787000",
          "191720.790000",
          "191720.792000",
          "191720.795000",
          "191720.798000",
          "191720.801000",
          "191720.804000",
          "191720.807000",
          "191720.810000",
          "191720.812000",
          "191720.815000",
          "191800.777000",
          "191800.780000",
          "191800.783000",
