{
  "aor": 0.0021330940594059405,
  "aqi": 0.010967407153465347,
  "bids_meta": {
    "AcquisitionMatrixPE": 104,
    "AcquisitionNumber": 1,
    "AcquisitionTime": "18:49:4.417500",
    "BandwidthPerPixelPhaseEncode": 17.17,
    "BaseResolution": 104,
    "BodyPartExamined": "BRAIN",
    "CogAtlasID": "trm_4c898da401420",
    "ConsistencyInfo": "N4_VE11C_LATEST_20160120",
    "ConversionSoftware": "dcm2niix",
    "ConversionSoftwareVersion": "v1.0.20171215 (OpenJPEG build) GCC7.3.0",
    "DerivedVendorReportedEchoSpacing": 0.000560011,
    "DeviceSerialNumber": "167006",
    "DwellTime": 2.1e-06,
    "EchoTime": 0.037,
    "EchoTrainLength": 104,
    "EffectiveEchoSpacing": 0.000560011,
    "FlipAngle": 52,
    "ImageComments": "Unaliased_MB4_PE3_LB",
    "ImageOrientationPatientDICOM": [
      0.999393,
      0.0114321,
      -0.0329094,
      -0.0219813,
      0.939782,
      -0.341066
    ],
    "ImageType": [
      "ORIGINAL",
      "PRIMARY",
      "M",
      "MB",
      "ND",
      "MOSAIC"
    ],
    "InPlanePhaseEncodingDirectionDICOM": "COL",
    "InstitutionAddress": "Chemin_Queen-Mary_4565_Montreal_District_CA_H3W_1W5",
    "InstitutionName": "IUGM",
    "InstitutionalDepartmentName": "Department",
    "MRAcquisitionType": "2D",
    "MagneticFieldStrength": 3,
    "Manufacturer": "Siemens",
    "ManufacturersModelName": "Prisma_fit",
    "Modality": "MR",
    "MultibandAccelerationFactor": 4,
    "PartialFourier": 1,
    "PatientPosition": "HFS",
    "PercentPhaseFOV": 100,
    "PhaseEncodingDirection": "j-",
    "PhaseEncodingSteps": 104,
    "PhaseResolution": 1,
    "PixelBandwidth": 2290,
    "ProcedureStepDescription": "video5_generic",
    "ProtocolName": "func_task-bourne4",
    "PulseSequenceDetails": "%CustomerSeq%_cmrr_mbep2d_bold",
    "ReceiveCoilActiveElements": "HC1-7;NC1,2",
    "ReceiveCoilName": "HeadNeck_64",
    "ReconMatrixPE": 104,
    "RepetitionTime": 1.49,
    "SAR": 0.0345887,
    "ScanOptions": "FS",
    "ScanningSequence": "EP",
    "SequenceName": "epfid2d1_104",
    "SequenceVariant": "SK_SS",
    "SeriesDescription": "func_task-bourne4",
    "SeriesNumber": 20,
    "ShimSetting": [
      613,
      -7234,
      -8871,
      402,
      -1,
      -355,
      -1,
      40
    ],
    "SliceThickness": 2,
    "SliceTiming": [
      0,
      0.785,
      0.0975,
      0.8825,
      0.195,
      0.98,
      0.295,
      1.0775,
      0.3925,
      1.175,
      0.49,
      1.275,
      0.5875,
      1.3725,
      0.685,
      0,
      0.785,
      0.0975,
      0.8825,
      0.195,
      0.98,
      0.295,
      1.0775,
      0.3925,
      1.175,
      0.49,
      1.275,
      0.5875,
      1.3725,
      0.685,
      0,
      0.785,
      0.0975,
      0.8825,
      0.195,
      0.98,
      0.295,
      1.0775,
      0.3925,
      1.175,
      0.49,
      1.275,
      0.5875,
      1.3725,
      0.685,
      0,
      0.785,
      0.0975,
      0.8825,
      0.195,
      0.98,
      0.295,
      1.0775,
      0.3925,
      1.175,
      0.49,
      1.275,
      0.5875,
      1.3725,
      0.685
    ],
    "SoftwareVersions": "syngo_MR_E11",
    "SpacingBetweenSlices": 2,
    "StationName": "MRC35049",
    "TaskName": "bourne04",
    "TotalReadoutTime": 0.0576811,
    "TxRefAmp": 236.023,
    "dataset": "<unset>",
    "dcmmeta_affine": [
      [
        -1.9987858533859253,
        -0.043962568044662476,
        -0.05405709892511368,
        106.29731750488281
      ],
      [
        -0.022864172235131264,
        1.879564642906189,
        -0.6831647157669067,
        -60.62767791748047
      ],
      [
        -0.06581874191761017,
        0.6821320056915283,
        1.8789262771606445,
        -75.098876953125
      ],
      [
        0.0,
        0.0,
        0.0,
        1.0
      ]
    ],
    "dcmmeta_reorient_transform": [
      [
        0.0,
        -1.0,
        0.0,
        103.0
      ],
      [
        1.0,
        0.0,
        0.0,
        0.0
      ],
      [
        0.0,
        0.0,
        1.0,
        0.0
      ],
      [
        0.0,
        0.0,
        0.0,
        1.0
      ]
    ],
    "dcmmeta_shape": [
      104,
      104,
      60,
      406
    ],
    "dcmmeta_slice_dim": 2,
    "dcmmeta_version": 0.6,
    "global": {
      "const": {
        "AcquisitionMatrix": [
          104,
          0,
          0,
          104
        ],
        "AngioFlag": "N",
        "BitsAllocated": 16,
        "BitsStored": 16,
        "BodyPartExamined": "BRAIN",
        "Columns": 832,
        "EchoNumbers": 1,
        "EchoTime": 37.0,
        "EchoTrainLength": 104,
        "FlipAngle": 52.0,
        "HighBit": 15,
        "ImageOrientationPatient": [
          0.99939295614018,
          0.01143208636124,
          -0.0329093697724,
          -0.0219812831448,
          0.93978232136596,
          -0.3410659930854
        ],
        "ImagePositionPatient": [
          -813.32487322641,
          -825.45157070071,
          267.41478247626
        ],
        "ImageType": [
          "ORIGINAL",
          "PRIMARY",
          "M",
          "MB",
          "ND",
          "MOSAIC"
        ],
        "ImagedNucleus": "1H",
        "ImagingFrequency": 123.259427,
        "InPlanePhaseEncodingDirection": "COL",
        "MRAcquisitionType": "2D",
        "MagneticFieldStrength": 3.0,
        "Manufacturer": "SIEMENS",
        "ManufacturerModelName": "Prisma_fit",
        "Modality": "MR",
        "NumberOfAverages": 1.0,
        "NumberOfPhaseEncodingSteps": 104,
        "PercentPhaseFieldOfView": 100.0,
        "PercentSampling": 100.0,
        "PerformedProcedureStepStartTime": "174525.589000",
        "PhotometricInterpretation": "MONOCHROME2",
        "PixelBandwidth": 2290.0,
        "PixelRepresentation": 0,
        "PixelSpacing": [
          2.0,
          2.0
        ],
        "ProtocolName": "func_task-bourne4",
        "RepetitionTime": 1490.0,
        "Rows": 832,
        "SAR": 0.03458869700965,
        "SamplesPerPixel": 1,
        "ScanOptions": "FS",
        "ScanningSequence": "EP",
        "SequenceName": "epfid2d1_104",
        "SequenceVariant": [
          "SK",
          "SS"
        ],
        "SeriesDescription": "func_task-bourne4",
        "SeriesNumber": 20,
        "SeriesTime": "185026.184000",
        "SliceLocation": -52.716343500502,
        "SliceThickness": 2.0,
        "SmallestImagePixelValue": 0,
        "SoftwareVersions": "syngo MR E11",
        "SpacingBetweenSlices": 2.0000000426082,
        "SpecificCharacterSet": "ISO_IR 100",
        "StudyID": "1",
        "StudyTime": "174525.524000",
        "TransmitCoilName": "Body",
        "VariableFlipAngleFlag": "N",
        "WindowCenterWidthExplanation": "Algo1",
        "dBdt": 0.0
      },
      "slices": {}
    },
    "modality": "bold",
    "session_id": "009",
    "subject_id": "05",
    "task_id": "bourne04",
    "time": {
      "samples": {
        "AcquisitionNumber": [
          1,
          2,
          3,
          4,
          5,
          6,
          7,
          8,
          9,
          10,
          11,
          12,
          13,
          14,
          15,
          16,
          17,
          18,
          19,
          20,
          21,
          22,
          23,
          24,
          25,
          26,
          27,
          28,
          29,
          30,
          31,
          32,
          33,
          34,
          35,
          36,
          37,
          38,
          39,
          40,
          41,
          42,
          43,
          44,
          45,
          46,
          47,
          48,
          49,
          50,
          51,
          52,
          53,
          54,
          55,
          56,
          57,
          58,
          59,
          60,
          61,
          62,
          63,
          64,
          65,
          66,
          67,
          68,
          69,
          70,
          71,
          72,
          73,
          74,
          75,
          76,
          77,
          78,
          79,
          80,
          81,
          82,
          83,
          84,
          85,
          86,
          87,
          88,
          89,
          90,
          91,
          92,
          93,
          94,
          95,
          96,
          97,
          98,
          99,
          100,
          101,
          102,
          103,
          104,
          105,
          106,
          107,
          108,
          109,
          110,
          111,
          112,
          113,
          114,
          115,
          116,
          117,
          118,
          119,
          120,
          121,
          122,
          123,
          124,
          125,
          126,
          127,
          128,
          129,
          130,
          131,
          132,
          133,
          134,
          135,
          136,
          137,
          138,
          139,
          140,
          141,
          142,
          143,
          144,
          145,
          146,
          147,
          148,
          149,
          150,
          151,
          152,
          153,
          154,
          155,
          156,
          157,
          158,
          159,
          160,
          161,
          162,
          163,
          164,
          165,
          166,
          167,
          168,
          169,
          170,
          171,
          172,
          173,
          174,
          175,
          176,
          177,
          178,
          179,
          180,
          181,
          182,
          183,
          184,
          185,
          186,
          187,
          188,
          189,
          190,
          191,
          192,
          193,
          194,
          195,
          196,
          197,
          198,
          199,
          200,
          201,
          202,
          203,
          204,
          205,
          206,
          207,
          208,
          209,
          210,
          211,
          212,
          213,
          214,
          215,
          216,
          217,
          218,
          219,
          220,
          221,
          222,
          223,
          224,
          225,
          226,
          227,
          228,
          229,
          230,
          231,
          232,
          233,
          234,
          235,
          236,
          237,
          238,
          239,
          240,
          241,
          242,
          243,
          244,
          245,
          246,
          247,
          248,
          249,
          250,
          251,
          252,
          253,
          254,
          255,
          256,
          257,
          258,
          259,
          260,
          261,
          262,
          263,
          264,
          265,
          266,
          267,
          268,
          269,
          270,
          271,
          272,
          273,
          274,
          275,
          276,
          277,
          278,
          279,
          280,
          281,
          282,
          283,
          284,
          285,
          286,
          287,
          288,
          289,
          290,
          291,
          292,
          293,
          294,
          295,
          296,
          297,
          298,
          299,
          300,
          301,
          302,
          303,
          304,
          305,
          306,
          307,
          308,
          309,
          310,
          311,
          312,
          313,
          314,
          315,
          316,
          317,
          318,
          319,
          320,
          321,
          322,
          323,
          324,
          325,
          326,
          327,
          328,
          329,
          330,
          331,
          332,
          333,
          334,
          335,
          336,
          337,
          338,
          339,
          340,
          341,
          342,
          343,
          344,
          345,
          346,
          347,
          348,
          349,
          350,
          351,
          352,
          353,
          354,
          355,
          356,
          357,
          358,
          359,
          360,
          361,
          362,
          363,
          364,
          365,
          366,
          367,
          368,
          369,
          370,
          371,
          372,
          373,
          374,
          375,
          376,
          377,
          378,
          379,
          380,
          381,
          382,
          383,
          384,
          385,
          386,
          387,
          388,
          389,
          390,
          391,
          392,
          393,
          394,
          395,
          396,
          397,
          398,
          399,
          400,
          401,
          402,
          403,
          404,
          405,
          406
        ],
        "AcquisitionTime": [
          "184904.417500",
          "184905.907500",
          "184907.397500",
          "184908.887500",
          "184910.377500",
          "184911.867500",
          "184913.357500",
          "184914.847500",
          "184916.337500",
          "184917.827500",
          "184919.317500",
          "184920.807500",
          "184922.297500",
          "184923.787500",
          "184925.277500",
          "184926.767500",
          "184928.257500",
          "184929.747500",
          "184931.237500",
          "184932.727500",
          "184934.217500",
          "184935.707500",
          "184937.197500",
          "184938.687500",
          "184940.177500",
          "184941.667500",
          "184943.157500",
          "184944.647500",
          "184946.137500",
          "184947.627500",
          "184949.117500",
          "184950.607500",
          "184952.097500",
          "184953.587500",
          "184955.077500",
          "184956.567500",
          "184958.057500",
          "184959.547500",
          "185001.037500",
          "185002.527500",
          "185004.017500",
          "185005.507500",
          "185006.997500",
          "185008.487500",
          "185009.977500",
          "185011.467500",
          "185012.957500",
          "185014.447500",
          "185015.937500",
          "185017.427500",
          "185018.917500",
          "185020.407500",
          "185021.897500",
          "185023.387500",
          "185024.877500",
          "185026.367500",
          "185027.857500",
          "185029.347500",
          "185030.837500",
          "185032.327500",
          "185033.817500",
          "185035.307500",
          "185036.797500",
          "185038.287500",
          "185039.777500",
          "185041.267500",
          "185042.757500",
          "185044.247500",
          "185045.737500",
          "185047.227500",
          "185048.717500",
          "185050.207500",
          "185051.697500",
          "185053.187500",
          "185054.677500",
          "185056.167500",
          "185057.657500",
          "185059.147500",
          "185100.637500",
          "185102.127500",
          "185103.617500",
          "185105.107500",
          "185106.597500",
          "185108.087500",
          "185109.577500",
          "185111.067500",
          "185112.557500",
          "185114.047500",
          "185115.537500",
          "185117.027500",
          "185118.517500",
          "185120.007500",
          "185121.497500",
          "185122.987500",
          "185124.477500",
          "185125.967500",
          "185127.457500",
          "185128.947500",
          "185130.437500",
          "185131.927500",
          "185133.417500",
          "185134.907500",
          "185136.397500",
          "185137.887500",
          "185139.377500",
          "185140.867500",
          "185142.357500",
          "185143.847500",
          "185145.337500",
          "185146.827500",
          "185148.317500",
          "185149.807500",
          "185151.297500",
          "185152.787500",
          "185154.277500",
          "185155.767500",
          "185157.257500",
          "185158.747500",
          "185200.237500",
          "185201.727500",
          "185203.217500",
          "185204.707500",
          "185206.197500",
          "185207.687500",
          "185209.177500",
          "185210.667500",
          "185212.157500",
          "185213.647500",
          "185215.137500",
          "185216.627500",
          "185218.117500",
          "185219.607500",
          "185221.097500",
          "185222.587500",
          "185224.077500",
          "185225.567500",
          "185227.057500",
          "185228.547500",
          "185230.037500",
          "185231.527500",
          "185233.017500",
          "185234.507500",
          "185235.997500",
          "185237.487500",
          "185238.977500",
          "185240.467500",
          "185241.957500",
          "185243.447500",
          "185244.937500",
          "185246.427500",
          "185247.917500",
          "185249.407500",
          "185250.897500",
          "185252.387500",
          "185253.877500",
          "185255.367500",
          "185256.857500",
          "185258.347500",
          "185259.837500",
          "185301.327500",
          "185302.817500",
          "185304.307500",
          "185305.797500",
          "185307.287500",
          "185308.777500",
          "185310.267500",
          "185311.757500",
          "185313.247500",
          "185314.737500",
          "185316.227500",
          "185317.717500",
          "185319.207500",
          "185320.697500",
          "185322.187500",
          "185323.677500",
          "185325.167500",
          "185326.657500",
          "185328.147500",
          "185329.637500",
          "185331.127500",
          "185332.617500",
          "185334.107500",
          "185335.597500",
          "185337.087500",
          "185338.577500",
          "185340.067500",
          "185341.557500",
          "185343.047500",
          "185344.537500",
          "185346.027500",
          "185347.517500",
          "185349.007500",
          "185350.497500",
          "185351.987500",
          "185353.477500",
          "185354.967500",
          "185356.457500",
          "185357.947500",
          "185359.437500",
          "185400.927500",
          "185402.417500",
          "185403.907500",
          "185405.397500",
          "185406.887500",
          "185408.377500",
          "185409.867500",
          "185411.357500",
          "185412.847500",
          "185414.337500",
          "185415.827500",
          "185417.317500",
          "185418.807500",
          "185420.297500",
          "185421.787500",
          "185423.277500",
          "185424.767500",
          "185426.257500",
          "185427.747500",
          "185429.237500",
          "185430.727500",
          "185432.217500",
          "185433.707500",
          "185435.197500",
          "185436.687500",
          "185438.177500",
          "185439.667500",
          "185441.157500",
          "185442.647500",
          "185444.137500",
          "185445.627500",
          "185447.117500",
          "185448.607500",
          "185450.097500",
          "185451.587500",
          "185453.077500",
          "185454.567500",
          "185456.057500",
          "185457.547500",
          "185459.037500",
          "185500.527500",
          "185502.017500",
          "185503.507500",
          "185504.997500",
          "185506.487500",
          "185507.977500",
          "185509.467500",
          "185510.957500",
          "185512.447500",
          "185513.937500",
          "185515.427500",
          "185516.917500",
          "185518.407500",
          "185519.897500",
          "185521.387500",
          "185522.877500",
          "185524.367500",
          "185525.857500",
          "185527.347500",
          "185528.837500",
          "185530.327500",
          "185531.817500",
          "185533.307500",
          "185534.797500",
          "185536.287500",
          "185537.777500",
          "185539.267500",
          "185540.757500",
          "185542.247500",
          "185543.737500",
          "185545.227500",
          "185546.717500",
          "185548.207500",
          "185549.697500",
          "185551.187500",
          "185552.677500",
          "185554.167500",
          "185555.657500",
          "185557.147500",
          "185558.637500",
          "185600.127500",
          "185601.617500",
          "185603.107500",
          "185604.597500",
          "185606.087500",
          "185607.577500",
          "185609.067500",
          "185610.557500",
          "185612.047500",
          "185613.537500",
          "185615.027500",
          "185616.517500",
          "185618.007500",
          "185619.497500",
          "185620.987500",
          "185622.477500",
          "185623.967500",
          "185625.457500",
          "185626.947500",
          "185628.437500",
          "185629.927500",
          "185631.417500",
          "185632.907500",
          "185634.397500",
          "185635.887500",
          "185637.377500",
          "185638.867500",
          "185640.357500",
          "185641.847500",
          "185643.337500",
          "185644.827500",
          "185646.317500",
          "185647.807500",
          "185649.297500",
          "185650.787500",
          "185652.277500",
          "185653.767500",
          "185655.257500",
          "185656.747500",
          "185658.237500",
          "185659.727500",
          "185701.217500",
          "185702.707500",
          "185704.197500",
          "185705.687500",
          "185707.177500",
          "185708.667500",
          "185710.157500",
          "185711.647500",
          "185713.137500",
          "185714.627500",
          "185716.117500",
          "185717.607500",
          "185719.097500",
          "185720.587500",
          "185722.077500",
          "185723.567500",
          "185725.057500",
          "185726.547500",
          "185728.037500",
          "185729.527500",
          "185731.017500",
          "185732.507500",
          "185733.997500",
          "185735.487500",
          "185736.977500",
          "185738.467500",
          "185739.957500",
          "185741.447500",
          "185742.937500",
          "185744.427500",
          "185745.917500",
          "185747.407500",
          "185748.897500",
          "185750.387500",
          "185751.877500",
          "185753.367500",
          "185754.857500",
          "185756.347500",
          "185757.837500",
          "185759.327500",
          "185800.817500",
          "185802.307500",
          "185803.797500",
          "185805.287500",
          "185806.777500",
          "185808.267500",
          "185809.757500",
          "185811.247500",
          "185812.737500",
          "185814.227500",
          "185815.717500",
          "185817.207500",
          "185818.697500",
          "185820.187500",
          "185821.677500",
          "185823.167500",
          "185824.657500",
          "185826.147500",
          "185827.637500",
          "185829.127500",
          "185830.617500",
          "185832.107500",
          "185833.597500",
          "185835.087500",
          "185836.577500",
          "185838.067500",
          "185839.557500",
          "185841.047500",
          "185842.537500",
          "185844.027500",
          "185845.517500",
          "185847.007500",
          "185848.497500",
          "185849.987500",
          "185851.477500",
          "185852.967500",
          "185854.457500",
          "185855.947500",
          "185857.437500",
          "185858.927500",
          "185900.417500",
          "185901.907500",
          "185903.397500",
          "185904.887500",
          "185906.377500",
          "185907.867500"
        ],
        "ContentTime": [
          "185026.186000",
          "185026.190000",
          "185026.193000",
          "185026.196000",
          "185026.199000",
          "185026.201000",
          "185026.204000",
          "185026.207000",
          "185026.210000",
          "185026.213000",
          "185026.216000",
          "185026.218000",
          "185026.221000",
          "185026.224000",
          "185026.227000",
          "185026.230000",
          "185026.233000",
          "185026.236000",
          "185026.238000",
          "185026.241000",
          "185026.244000",
          "185026.247000",
          "185026.250000",
          "185026.253000",
          "185026.255000",
          "185026.258000",
          "185026.261000",
          "185046.158000",
          "185046.161000",
          "185046.164000",
          "185046.167000",
          "185046.170000",
          "185046.172000",
          "185046.175000",
          "185046.178000",
          "185046.181000",
          "185046.184000",
          "185046.187000",
          "185046.189000",
          "185046.192000",
          "185046.195000",
          "185046.198000",
          "185046.201000",
          "185046.204000",
          "185046.206000",
          "185046.209000",
          "185046.212000",
          "185106.158000",
          "185106.161000",
          "185106.164000",
          "185106.167000",
          "185106.170000",
          "185106.173000",
          "185106.176000",
          "185106.179000",
          "185106.182000",
          "185106.185000",
          "185106.188000",
          "185106.191000",
          "185106.193000",
          "185106.196000",
          "185106.199000",
          "185106.202000",
          "185106.205000",
          "185106.208000",
          "185106.211000",
          "185106.214000",
          "185126.158000",
          "185126.161000",
          "185126.164000",
          "185126.167000",
          "185126.170000",
          "185126.173000",
          "185126.175000",
          "185126.178000",
          "185126.181000",
          "185126.184000",
          "185126.187000",
          "185126.190000",
          "185126.193000",
          "185126.196000",
          "185126.199000",
          "185126.202000",
          "185126.204000",
          "185126.207000",
          "185126.210000",
          "185126.213000",
          "185146.158000",
          "185146.161000",
          "185146.164000",
          "185146.167000",
          "185146.170000",
          "185146.172000",
          "185146.175000",
          "185146.178000",
          "185146.181000",
          "185146.184000",
          "185146.187000",
          "185146.190000",
          "185146.192000",
          "185146.196000",
          "185146.198000",
          "185146.201000",
          "185146.204000",
          "185146.207000",
          "185146.210000",
          "185146.213000",
          "185146.216000",
          "185226.157000",
          "185226.160000",
          "185226.163000",
          "185226.167000",
          "185226.169000",
          "185226.172000",
          "185226.176000",
          "185226.179000",
          "185226.183000",
          "185226.201000",
          "185226.204000",
          "185226.207000",
          "185226.210000",
          "185226.213000",
          "185226.216000",
          "185226.219000",
          "185226.222000",
          "185226.225000",
          "185226.229000",
          "185226.232000",
          "185226.235000",
          "185226.238000",
          "185226.241000",
          "185226.244000",
          "185226.247000",
          "185226.250000",
          "185226.253000",
          "185306.158000",
          "185306.161000",
          "185306.164000",
          "185306.167000",
          "185306.170000",
          "185306.172000",
          "185306.175000",
          "185306.178000",
          "185306.181000",
          "185306.184000",
          "185306.187000",
          "185306.204000",
          "185306.207000",
          "185306.210000",
          "185306.212000",
          "185306.215000",
          "185306.218000",
          "185306.221000",
          "185306.224000",
          "185306.227000",
          "185306.229000",
          "185306.232000",
          "185306.235000",
          "185306.238000",
          "185306.241000",
          "185306.244000",
          "185306.247000",
          "185346.158000",
          "185346.161000",
          "185346.164000",
          "185346.167000",
          "185346.170000",
          "185346.173000",
          "185346.175000",
          "185346.178000",
          "185346.181000",
          "185346.184000",
          "185346.187000",
          "185346.190000",
          "185346.193000",
          "185346.196000",
          "185346.199000",
          "185346.202000",
          "185346.205000",
          "185346.208000",
          "185346.211000",
          "185346.214000",
          "185346.217000",
          "185346.220000",
          "185346.223000",
          "185346.226000",
          "185346.228000",
          "185346.231000",
          "185426.157000",
          "185426.276000",
          "185426.291000",
          "185426.294000",
          "185426.296000",
          "185426.299000",
          "185426.303000",
          "185426.306000",
          "185426.309000",
          "185426.311000",
          "185426.314000",
          "185426.317000",
          "185426.320000",
          "185426.323000",
          "185426.326000",
          "185426.329000",
          "185426.332000",
          "185426.335000",
          "185426.337000",
          "185426.340000",
          "185426.343000",
          "185426.346000",
          "185426.349000",
          "185426.352000",
          "185426.355000",
          "185426.358000",
          "185426.361000",
          "185506.157000",
          "185506.285000",
          "185506.288000",
          "185506.291000",
          "185506.294000",
          "185506.297000",
          "185506.300000",
          "185506.302000",
