{
  "aor": 0.0004119512195121951,
  "aqi": 0.0055839245853658535,
  "bids_meta": {
    "AcquisitionMatrixPE": 104,
    "AcquisitionNumber": 1,
    "AcquisitionTime": "16:06:32.435000",
    "BandwidthPerPixelPhaseEncode": 17.17,
    "BaseResolution": 104,
    "BodyPartExamined": "BRAIN",
    "CogAtlasID": "trm_4c898da401420",
    "ConsistencyInfo": "N4_VE11C_LATEST_20160120",
    "ConversionSoftware": "dcm2niix",
    "ConversionSoftwareVersion": "v1.0.20171215 (OpenJPEG build) GCC7.3.0",
    "DerivedVendorReportedEchoSpacing": 0.000560011,
    "DeviceSerialNumber": "167006",
    "DwellTime": 2.1e-06,
    "EchoTime": 0.037,
    "EchoTrainLength": 104,
    "EffectiveEchoSpacing": 0.000560011,
    "FlipAngle": 52,
    "ImageComments": "Unaliased_MB4_PE3_LB",
    "ImageOrientationPatientDICOM": [
      0.996643,
      0.0815508,
      0.00717983,
      -0.0766875,
      0.960698,
      -0.266794
    ],
    "ImageType": [
      "ORIGINAL",
      "PRIMARY",
      "M",
      "MB",
      "ND",
      "MOSAIC"
    ],
    "InPlanePhaseEncodingDirectionDICOM": "COL",
    "InstitutionAddress": "Chemin_Queen-Mary_4565_Montreal_District_CA_H3W_1W5",
    "InstitutionName": "IUGM",
    "InstitutionalDepartmentName": "Department",
    "MRAcquisitionType": "2D",
    "MagneticFieldStrength": 3,
    "Manufacturer": "Siemens",
    "ManufacturersModelName": "Prisma_fit",
    "Modality": "MR",
    "MultibandAccelerationFactor": 4,
    "PartialFourier": 1,
    "PatientPosition": "HFS",
    "PercentPhaseFOV": 100,
    "PhaseEncodingDirection": "j-",
    "PhaseEncodingSteps": 104,
    "PhaseResolution": 1,
    "PixelBandwidth": 2290,
    "ProcedureStepDescription": "video5_generic",
    "ProtocolName": "func_task-figures5",
    "PulseSequenceDetails": "%CustomerSeq%_cmrr_mbep2d_bold",
    "ReceiveCoilActiveElements": "HC1-7;NC1,2",
    "ReceiveCoilName": "HeadNeck_64",
    "ReconMatrixPE": 104,
    "RepetitionTime": 1.49,
    "SAR": 0.0393529,
    "ScanOptions": "FS",
    "ScanningSequence": "EP",
    "SequenceName": "epfid2d1_104",
    "SequenceVariant": "SK_SS",
    "SeriesDescription": "func_task-figures5",
    "SeriesNumber": 11,
    "ShimSetting": [
      640,
      -7181,
      -8814,
      690,
      109,
      82,
      -14,
      -3
    ],
    "SliceThickness": 2,
    "SliceTiming": [
      0,
      0.7825,
      0.0975,
      0.88,
      0.195,
      0.9775,
      0.2925,
      1.0775,
      0.39,
      1.175,
      0.4875,
      1.2725,
      0.5875,
      1.37,
      0.685,
      0,
      0.7825,
      0.0975,
      0.88,
      0.195,
      0.9775,
      0.2925,
      1.0775,
      0.39,
      1.175,
      0.4875,
      1.2725,
      0.5875,
      1.37,
      0.685,
      0,
      0.7825,
      0.0975,
      0.88,
      0.195,
      0.9775,
      0.2925,
      1.0775,
      0.39,
      1.175,
      0.4875,
      1.2725,
      0.5875,
      1.37,
      0.685,
      0,
      0.7825,
      0.0975,
      0.88,
      0.195,
      0.9775,
      0.2925,
      1.0775,
      0.39,
      1.175,
      0.4875,
      1.2725,
      0.5875,
      1.37,
      0.685
    ],
    "SoftwareVersions": "syngo_MR_E11",
    "SpacingBetweenSlices": 2,
    "StationName": "MRC35049",
    "TaskName": "figures05",
    "TotalReadoutTime": 0.0576811,
    "TxRefAmp": 251.695,
    "dataset": "<unset>",
    "dcmmeta_affine": [
      [
        -1.9932866096496582,
        -0.15337501466274261,
        0.05730986222624779,
        111.39788055419922
      ],
      [
        -0.16310155391693115,
        1.921395182609558,
        -0.5306963920593262,
        -63.40747833251953
      ],
      [
        0.014359662309288979,
        0.533588707447052,
        1.9274535179138184,
        -55.315147399902344
      ],
      [
        0.0,
        0.0,
        0.0,
        1.0
      ]
    ],
    "dcmmeta_reorient_transform": [
      [
        0.0,
        -1.0,
        0.0,
        103.0
      ],
      [
        1.0,
        0.0,
        0.0,
        0.0
      ],
      [
        0.0,
        0.0,
        1.0,
        0.0
      ],
      [
        0.0,
        0.0,
        0.0,
        1.0
      ]
    ],
    "dcmmeta_shape": [
      104,
      104,
      60,
      410
    ],
    "dcmmeta_slice_dim": 2,
    "dcmmeta_version": 0.6,
    "global": {
      "const": {
        "AcquisitionMatrix": [
          104,
          0,
          0,
          104
        ],
        "AngioFlag": "N",
        "BitsAllocated": 16,
        "BitsStored": 16,
        "BodyPartExamined": "BRAIN",
        "Columns": 832,
        "EchoNumbers": 1,
        "EchoTime": 37.0,
        "EchoTrainLength": 104,
        "FlipAngle": 52.0,
        "HighBit": 15,
        "ImageOrientationPatient": [
          0.99664332699315,
          0.08155077427682,
          0.00717983111747,
          -0.0766875066725,
          0.96069756272059,
          -0.2667943389637
        ],
        "ImagePositionPatient": [
          -765.32809157741,
          -893.2530085785,
          188.64384946177
        ],
        "ImageType": [
          "ORIGINAL",
          "PRIMARY",
          "M",
          "MB",
          "ND",
          "MOSAIC"
        ],
        "ImagedNucleus": "1H",
        "ImagingFrequency": 123.259294,
        "InPlanePhaseEncodingDirection": "COL",
        "MRAcquisitionType": "2D",
        "MagneticFieldStrength": 3.0,
        "Manufacturer": "SIEMENS",
        "ManufacturerModelName": "Prisma_fit",
        "Modality": "MR",
        "NumberOfAverages": 1.0,
        "NumberOfPhaseEncodingSteps": 104,
        "PercentPhaseFieldOfView": 100.0,
        "PercentSampling": 100.0,
        "PerformedProcedureStepStartTime": "153601.616000",
        "PhotometricInterpretation": "MONOCHROME2",
        "PixelBandwidth": 2290.0,
        "PixelRepresentation": 0,
        "PixelSpacing": [
          2.0,
          2.0
        ],
        "ProtocolName": "func_task-figures5",
        "RepetitionTime": 1490.0,
        "Rows": 832,
        "SAR": 0.03935293218887,
        "SamplesPerPixel": 1,
        "ScanOptions": "FS",
        "ScanningSequence": "EP",
        "SequenceName": "epfid2d1_104",
        "SequenceVariant": [
          "SK",
          "SS"
        ],
        "SeriesDescription": "func_task-figures5",
        "SeriesNumber": 11,
        "SeriesTime": "160736.768000",
        "SliceLocation": -33.291526864412,
        "SliceThickness": 2.0,
        "SmallestImagePixelValue": 0,
        "SoftwareVersions": "syngo MR E11",
        "SpacingBetweenSlices": 1.9999999995477,
        "SpecificCharacterSet": "ISO_IR 100",
        "StudyID": "1",
        "StudyTime": "153601.551000",
        "TransmitCoilName": "Body",
        "VariableFlipAngleFlag": "N",
        "WindowCenterWidthExplanation": "Algo1",
        "dBdt": 0.0
      },
      "slices": {}
    },
    "modality": "bold",
    "run_id": 1,
    "session_id": "008",
    "subject_id": "01",
    "task_id": "figures06",
    "time": {
      "samples": {
        "AcquisitionNumber": [
          1,
          2,
          3,
          4,
          5,
          6,
          7,
          8,
          9,
          10,
          11,
          12,
          13,
          14,
          15,
          16,
          17,
          18,
          19,
          20,
          21,
          22,
          23,
          24,
          25,
          26,
          27,
          28,
          29,
          30,
          31,
          32,
          33,
          34,
          35,
          36,
          37,
          38,
          39,
          40,
          41,
          42,
          43,
          44,
          45,
          46,
          47,
          48,
          49,
          50,
          51,
          52,
          53,
          54,
          55,
          56,
          57,
          58,
          59,
          60,
          61,
          62,
          63,
          64,
          65,
          66,
          67,
          68,
          69,
          70,
          71,
          72,
          73,
          74,
          75,
          76,
          77,
          78,
          79,
          80,
          81,
          82,
          83,
          84,
          85,
          86,
          87,
          88,
          89,
          90,
          91,
          92,
          93,
          94,
          95,
          96,
          97,
          98,
          99,
          100,
          101,
          102,
          103,
          104,
          105,
          106,
          107,
          108,
          109,
          110,
          111,
          112,
          113,
          114,
          115,
          116,
          117,
          118,
          119,
          120,
          121,
          122,
          123,
          124,
          125,
          126,
          127,
          128,
          129,
          130,
          131,
          132,
          133,
          134,
          135,
          136,
          137,
          138,
          139,
          140,
          141,
          142,
          143,
          144,
          145,
          146,
          147,
          148,
          149,
          150,
          151,
          152,
          153,
          154,
          155,
          156,
          157,
          158,
          159,
          160,
          161,
          162,
          163,
          164,
          165,
          166,
          167,
          168,
          169,
          170,
          171,
          172,
          173,
          174,
          175,
          176,
          177,
          178,
          179,
          180,
          181,
          182,
          183,
          184,
          185,
          186,
          187,
          188,
          189,
          190,
          191,
          192,
          193,
          194,
          195,
          196,
          197,
          198,
          199,
          200,
          201,
          202,
          203,
          204,
          205,
          206,
          207,
          208,
          209,
          210,
          211,
          212,
          213,
          214,
          215,
          216,
          217,
          218,
          219,
          220,
          221,
          222,
          223,
          224,
          225,
          226,
          227,
          228,
          229,
          230,
          231,
          232,
          233,
          234,
          235,
          236,
          237,
          238,
          239,
          240,
          241,
          242,
          243,
          244,
          245,
          246,
          247,
          248,
          249,
          250,
          251,
          252,
          253,
          254,
          255,
          256,
          257,
          258,
          259,
          260,
          261,
          262,
          263,
          264,
          265,
          266,
          267,
          268,
          269,
          270,
          271,
          272,
          273,
          274,
          275,
          276,
          277,
          278,
          279,
          280,
          281,
          282,
          283,
          284,
          285,
          286,
          287,
          288,
          289,
          290,
          291,
          292,
          293,
          294,
          295,
          296,
          297,
          298,
          299,
          300,
          301,
          302,
          303,
          304,
          305,
          306,
          307,
          308,
          309,
          310,
          311,
          312,
          313,
          314,
          315,
          316,
          317,
          318,
          319,
          320,
          321,
          322,
          323,
          324,
          325,
          326,
          327,
          328,
          329,
          330,
          331,
          332,
          333,
          334,
          335,
          336,
          337,
          338,
          339,
          340,
          341,
          342,
          343,
          344,
          345,
          346,
          347,
          348,
          349,
          350,
          351,
          352,
          353,
          354,
          355,
          356,
          357,
          358,
          359,
          360,
          361,
          362,
          363,
          364,
          365,
          366,
          367,
          368,
          369,
          370,
          371,
          372,
          373,
          374,
          375,
          376,
          377,
          378,
          379,
          380,
          381,
          382,
          383,
          384,
          385,
          386,
          387,
          388,
          389,
          390,
          391,
          392,
          393,
          394,
          395,
          396,
          397,
          398,
          399,
          400,
          401,
          402,
          403,
          404,
          405,
          406,
          407,
          408,
          409,
          410
        ],
        "AcquisitionTime": [
          "160632.435000",
          "160633.925000",
          "160635.415000",
          "160636.905000",
          "160638.395000",
          "160639.885000",
          "160641.375000",
          "160642.865000",
          "160644.355000",
          "160645.845000",
          "160647.335000",
          "160648.825000",
          "160650.315000",
          "160651.805000",
          "160653.295000",
          "160654.785000",
          "160656.275000",
          "160657.765000",
          "160659.255000",
          "160700.745000",
          "160702.235000",
          "160703.725000",
          "160705.215000",
          "160706.705000",
          "160708.195000",
          "160709.685000",
          "160711.175000",
          "160712.665000",
          "160714.155000",
          "160715.645000",
          "160717.135000",
          "160718.625000",
          "160720.115000",
          "160721.605000",
          "160723.095000",
          "160724.585000",
          "160726.075000",
          "160727.565000",
          "160729.055000",
          "160730.545000",
          "160732.035000",
          "160733.525000",
          "160735.015000",
          "160736.505000",
          "160737.995000",
          "160739.485000",
          "160740.975000",
          "160742.465000",
          "160743.955000",
          "160745.445000",
          "160746.935000",
          "160748.425000",
          "160749.915000",
          "160751.405000",
          "160752.895000",
          "160754.385000",
          "160755.875000",
          "160757.365000",
          "160758.855000",
          "160800.345000",
          "160801.835000",
          "160803.325000",
          "160804.815000",
          "160806.305000",
          "160807.795000",
          "160809.285000",
          "160810.775000",
          "160812.265000",
          "160813.755000",
          "160815.245000",
          "160816.735000",
          "160818.225000",
          "160819.715000",
          "160821.205000",
          "160822.695000",
          "160824.185000",
          "160825.675000",
          "160827.165000",
          "160828.655000",
          "160830.145000",
          "160831.635000",
          "160833.125000",
          "160834.615000",
          "160836.105000",
          "160837.595000",
          "160839.085000",
          "160840.575000",
          "160842.065000",
          "160843.555000",
          "160845.045000",
          "160846.535000",
          "160848.025000",
          "160849.515000",
          "160851.005000",
          "160852.495000",
          "160853.985000",
          "160855.475000",
          "160856.965000",
          "160858.455000",
          "160859.945000",
          "160901.435000",
          "160902.925000",
          "160904.415000",
          "160905.905000",
          "160907.395000",
          "160908.885000",
          "160910.375000",
          "160911.865000",
          "160913.355000",
          "160914.845000",
          "160916.335000",
          "160917.825000",
          "160919.315000",
          "160920.805000",
          "160922.295000",
          "160923.785000",
          "160925.275000",
          "160926.765000",
          "160928.255000",
          "160929.745000",
          "160931.235000",
          "160932.725000",
          "160934.215000",
          "160935.705000",
          "160937.195000",
          "160938.685000",
          "160940.175000",
          "160941.665000",
          "160943.155000",
          "160944.645000",
          "160946.135000",
          "160947.625000",
          "160949.115000",
          "160950.605000",
          "160952.095000",
          "160953.585000",
          "160955.075000",
          "160956.565000",
          "160958.055000",
          "160959.545000",
          "161001.035000",
          "161002.525000",
          "161004.015000",
          "161005.505000",
          "161006.995000",
          "161008.485000",
          "161009.975000",
          "161011.465000",
          "161012.955000",
          "161014.445000",
          "161015.935000",
          "161017.425000",
          "161018.915000",
          "161020.405000",
          "161021.895000",
          "161023.385000",
          "161024.875000",
          "161026.365000",
          "161027.855000",
          "161029.345000",
          "161030.835000",
          "161032.325000",
          "161033.815000",
          "161035.305000",
          "161036.795000",
          "161038.285000",
          "161039.775000",
          "161041.265000",
          "161042.755000",
          "161044.245000",
          "161045.735000",
          "161047.225000",
          "161048.715000",
          "161050.205000",
          "161051.695000",
          "161053.185000",
          "161054.675000",
          "161056.165000",
          "161057.655000",
          "161059.145000",
          "161100.635000",
          "161102.125000",
          "161103.615000",
          "161105.105000",
          "161106.595000",
          "161108.085000",
          "161109.575000",
          "161111.065000",
          "161112.555000",
          "161114.045000",
          "161115.535000",
          "161117.025000",
          "161118.515000",
          "161120.005000",
          "161121.495000",
          "161122.985000",
          "161124.475000",
          "161125.965000",
          "161127.455000",
          "161128.945000",
          "161130.435000",
          "161131.925000",
          "161133.415000",
          "161134.905000",
          "161136.395000",
          "161137.885000",
          "161139.375000",
          "161140.865000",
          "161142.355000",
          "161143.845000",
          "161145.335000",
          "161146.825000",
          "161148.315000",
          "161149.805000",
          "161151.295000",
          "161152.785000",
          "161154.275000",
          "161155.765000",
          "161157.255000",
          "161158.745000",
          "161200.235000",
          "161201.725000",
          "161203.215000",
          "161204.705000",
          "161206.195000",
          "161207.685000",
          "161209.175000",
          "161210.665000",
          "161212.155000",
          "161213.645000",
          "161215.135000",
          "161216.625000",
          "161218.115000",
          "161219.605000",
          "161221.095000",
          "161222.585000",
          "161224.075000",
          "161225.565000",
          "161227.055000",
          "161228.545000",
          "161230.035000",
          "161231.525000",
          "161233.015000",
          "161234.505000",
          "161235.995000",
          "161237.485000",
          "161238.975000",
          "161240.465000",
          "161241.955000",
          "161243.445000",
          "161244.935000",
          "161246.425000",
          "161247.915000",
          "161249.405000",
          "161250.895000",
          "161252.385000",
          "161253.875000",
          "161255.365000",
          "161256.855000",
          "161258.345000",
          "161259.835000",
          "161301.325000",
          "161302.815000",
          "161304.305000",
          "161305.795000",
          "161307.285000",
          "161308.775000",
          "161310.265000",
          "161311.755000",
          "161313.245000",
          "161314.735000",
          "161316.225000",
          "161317.715000",
          "161319.205000",
          "161320.695000",
          "161322.185000",
          "161323.675000",
          "161325.165000",
          "161326.655000",
          "161328.145000",
          "161329.635000",
          "161331.125000",
          "161332.615000",
          "161334.105000",
          "161335.595000",
          "161337.085000",
          "161338.575000",
          "161340.065000",
          "161341.555000",
          "161343.045000",
          "161344.535000",
          "161346.025000",
          "161347.515000",
          "161349.005000",
          "161350.495000",
          "161351.985000",
          "161353.475000",
          "161354.965000",
          "161356.455000",
          "161357.945000",
          "161359.435000",
          "161400.925000",
          "161402.415000",
          "161403.905000",
          "161405.395000",
          "161406.885000",
          "161408.375000",
          "161409.865000",
          "161411.355000",
          "161412.845000",
          "161414.335000",
          "161415.825000",
          "161417.315000",
          "161418.805000",
          "161420.295000",
          "161421.785000",
          "161423.275000",
          "161424.765000",
          "161426.255000",
          "161427.745000",
          "161429.235000",
          "161430.725000",
          "161432.215000",
          "161433.705000",
          "161435.195000",
          "161436.685000",
          "161438.175000",
          "161439.665000",
          "161441.155000",
          "161442.645000",
          "161444.135000",
          "161445.625000",
          "161447.115000",
          "161448.605000",
          "161450.095000",
          "161451.585000",
          "161453.075000",
          "161454.565000",
          "161456.055000",
          "161457.545000",
          "161459.035000",
          "161500.525000",
          "161502.015000",
          "161503.505000",
          "161504.995000",
          "161506.485000",
          "161507.975000",
          "161509.465000",
          "161510.955000",
          "161512.445000",
          "161513.935000",
          "161515.425000",
          "161516.915000",
          "161518.405000",
          "161519.895000",
          "161521.385000",
          "161522.875000",
          "161524.365000",
          "161525.855000",
          "161527.345000",
          "161528.835000",
          "161530.325000",
          "161531.815000",
          "161533.305000",
          "161534.795000",
          "161536.285000",
          "161537.775000",
          "161539.265000",
          "161540.755000",
          "161542.245000",
          "161543.735000",
          "161545.225000",
          "161546.715000",
          "161548.205000",
          "161549.695000",
          "161551.185000",
          "161552.675000",
          "161554.165000",
          "161555.655000",
          "161557.145000",
          "161558.635000",
          "161600.125000",
          "161601.615000",
          "161603.105000",
          "161604.595000",
          "161606.085000",
          "161607.575000",
          "161609.065000",
          "161610.555000",
          "161612.045000",
          "161613.535000",
          "161615.025000",
          "161616.515000",
          "161618.005000",
          "161619.495000",
          "161620.985000",
          "161622.475000",
          "161623.965000",
          "161625.455000",
          "161626.945000",
          "161628.435000",
          "161629.925000",
          "161631.415000",
          "161632.905000",
          "161634.395000",
          "161635.885000",
          "161637.375000",
          "161638.865000",
          "161640.355000",
          "161641.845000"
        ],
        "ContentTime": [
          "160736.771000",
          "160736.775000",
          "160736.794000",
          "160736.797000",
          "160736.800000",
          "160736.803000",
          "160736.806000",
          "160736.808000",
          "160736.811000",
          "160736.814000",
          "160736.817000",
          "160756.731000",
          "160756.734000",
          "160756.737000",
          "160756.740000",
          "160756.746000",
          "160756.749000",
          "160756.752000",
          "160756.755000",
          "160756.758000",
          "160756.761000",
          "160756.764000",
          "160756.767000",
          "160756.850000",
          "160756.853000",
          "160756.856000",
          "160756.859000",
          "160756.861000",
          "160756.864000",
          "160756.867000",
          "160756.870000",
          "160756.879000",
          "160816.730000",
          "160816.733000",
          "160816.737000",
          "160816.740000",
          "160816.743000",
          "160816.746000",
          "160816.749000",
          "160816.752000",
          "160816.755000",
          "160816.758000",
          "160816.761000",
          "160816.764000",
          "160816.767000",
          "160816.770000",
          "160816.773000",
          "160816.776000",
          "160816.779000",
          "160816.781000",
          "160816.784000",
          "160816.787000",
          "160836.730000",
          "160836.733000",
          "160836.736000",
          "160836.739000",
          "160836.742000",
          "160836.745000",
          "160836.748000",
          "160836.751000",
          "160836.754000",
          "160836.757000",
          "160836.760000",
          "160836.762000",
          "160836.766000",
          "160836.769000",
          "160836.772000",
          "160836.775000",
          "160836.778000",
          "160836.781000",
          "160836.784000",
          "160836.787000",
          "160856.731000",
          "160856.734000",
          "160856.737000",
          "160856.740000",
          "160856.743000",
          "160856.746000",
          "160856.749000",
          "160856.752000",
          "160856.755000",
          "160856.758000",
          "160856.761000",
          "160856.764000",
          "160856.769000",
          "160856.772000",
          "160856.775000",
          "160856.778000",
          "160856.781000",
          "160856.784000",
          "160856.787000",
          "160856.790000",
          "160936.731000",
          "160936.734000",
          "160936.737000",
          "160936.740000",
          "160936.748000",
          "160936.751000",
          "160936.754000",
          "160936.757000",
          "160936.760000",
          "160936.763000",
          "160936.766000",
          "160936.769000",
          "160936.772000",
          "160936.775000",
          "160936.778000",
          "160936.781000",
          "160936.784000",
          "160936.787000",
          "160936.790000",
          "160936.793000",
          "160936.796000",
          "160936.799000",
          "160936.802000",
          "160936.805000",
          "160936.808000",
          "160936.811000",
          "160936.814000",
          "160936.817000",
          "160936.820000",
          "160936.823000",
          "160936.826000",
          "161016.731000",
          "161016.734000",
          "161016.737000",
          "161016.740000",
          "161016.743000",
          "161016.746000",
          "161016.749000",
          "161016.752000",
          "161016.755000",
          "161016.758000",
          "161016.761000",
          "161016.764000",
          "161016.767000",
          "161016.771000",
          "161016.774000",
          "161016.777000",
          "161016.780000",
          "161016.783000",
          "161016.786000",
          "161016.789000",
          "161016.792000",
          "161016.795000",
          "161016.798000",
          "161016.801000",
          "161016.804000",
          "161016.807000",
          "161016.810000",
          "161056.730000",
          "161056.733000",
          "161056.736000",
          "161056.739000",
          "161056.742000",
          "161056.745000",
          "161056.749000",
          "161056.752000",
          "161056.754000",
          "161056.757000",
          "161056.760000",
          "161056.763000",
          "161056.766000",
          "161056.769000",
          "161056.772000",
          "161056.775000",
          "161056.778000",
          "161056.781000",
          "161056.784000",
          "161056.787000",
          "161056.790000",
          "161056.793000",
          "161056.796000",
          "161056.799000",
          "161056.801000",
          "161056.804000",
          "161056.807000",
          "161136.731000",
          "161136.739000",
          "161136.742000",
          "161136.745000",
          "161136.748000",
          "161136.763000",
          "161136.766000",
          "161136.769000",
          "161136.772000",
          "161136.775000",
          "161136.778000",
          "161136.781000",
          "161136.784000",
          "161136.787000",
          "161136.790000",
          "161136.793000",
          "161136.796000",
          "161136.799000",
          "161136.802000",
          "161136.805000",
          "161136.808000",
          "161136.811000",
          "161136.814000",
          "161136.817000",
          "161136.820000",
          "161136.823000",
          "161136.826000",
          "161216.731000",
          "161216.734000",
          "161216.737000",
          "161216.740000",
          "161216.743000",
          "161216.746000",
          "161216.749000",
          "161216.752000",
          "161216.755000",
          "161216.759000",
          "161216.762000",
          "161216.765000",
