{
  "aor": 0.0007304878048780488,
  "aqi": 0.006585747170731707,
  "bids_meta": {
    "AcquisitionMatrixPE": 104,
    "AcquisitionNumber": 1,
    "AcquisitionTime": "16:18:47.865000",
    "BandwidthPerPixelPhaseEncode": 17.17,
    "BaseResolution": 104,
    "BodyPartExamined": "BRAIN",
    "CogAtlasID": "trm_4c898da401420",
    "ConsistencyInfo": "N4_VE11C_LATEST_20160120",
    "ConversionSoftware": "dcm2niix",
    "ConversionSoftwareVersion": "v1.0.20171215 (OpenJPEG build) GCC7.3.0",
    "DerivedVendorReportedEchoSpacing": 0.000560011,
    "DeviceSerialNumber": "167006",
    "DwellTime": 2.1e-06,
    "EchoTime": 0.037,
    "EchoTrainLength": 104,
    "EffectiveEchoSpacing": 0.000560011,
    "FlipAngle": 52,
    "ImageComments": "Unaliased_MB4_PE3_LB",
    "ImageOrientationPatientDICOM": [
      0.996643,
      0.0815508,
      0.00717983,
      -0.0766875,
      0.960698,
      -0.266794
    ],
    "ImageType": [
      "ORIGINAL",
      "PRIMARY",
      "M",
      "MB",
      "ND",
      "MOSAIC"
    ],
    "InPlanePhaseEncodingDirectionDICOM": "COL",
    "InstitutionAddress": "Chemin_Queen-Mary_4565_Montreal_District_CA_H3W_1W5",
    "InstitutionName": "IUGM",
    "InstitutionalDepartmentName": "Department",
    "MRAcquisitionType": "2D",
    "MagneticFieldStrength": 3,
    "Manufacturer": "Siemens",
    "ManufacturersModelName": "Prisma_fit",
    "Modality": "MR",
    "MultibandAccelerationFactor": 4,
    "PartialFourier": 1,
    "PatientPosition": "HFS",
    "PercentPhaseFOV": 100,
    "PhaseEncodingDirection": "j-",
    "PhaseEncodingSteps": 104,
    "PhaseResolution": 1,
    "PixelBandwidth": 2290,
    "ProcedureStepDescription": "video5_generic",
    "ProtocolName": "func_task-figures6",
    "PulseSequenceDetails": "%CustomerSeq%_cmrr_mbep2d_bold",
    "ReceiveCoilActiveElements": "HC1-7;NC1,2",
    "ReceiveCoilName": "HeadNeck_64",
    "ReconMatrixPE": 104,
    "RepetitionTime": 1.49,
    "SAR": 0.0393529,
    "ScanOptions": "FS",
    "ScanningSequence": "EP",
    "SequenceName": "epfid2d1_104",
    "SequenceVariant": "SK_SS",
    "SeriesDescription": "func_task-figures6",
    "SeriesNumber": 13,
    "ShimSetting": [
      640,
      -7181,
      -8814,
      690,
      109,
      82,
      -14,
      -3
    ],
    "SliceThickness": 2,
    "SliceTiming": [
      0,
      0.785,
      0.0975,
      0.8825,
      0.1975,
      0.98,
      0.295,
      1.0775,
      0.3925,
      1.1775,
      0.49,
      1.275,
      0.5875,
      1.3725,
      0.6875,
      0,
      0.785,
      0.0975,
      0.8825,
      0.1975,
      0.98,
      0.295,
      1.0775,
      0.3925,
      1.1775,
      0.49,
      1.275,
      0.5875,
      1.3725,
      0.6875,
      0,
      0.785,
      0.0975,
      0.8825,
      0.1975,
      0.98,
      0.295,
      1.0775,
      0.3925,
      1.1775,
      0.49,
      1.275,
      0.5875,
      1.3725,
      0.6875,
      0,
      0.785,
      0.0975,
      0.8825,
      0.1975,
      0.98,
      0.295,
      1.0775,
      0.3925,
      1.1775,
      0.49,
      1.275,
      0.5875,
      1.3725,
      0.6875
    ],
    "SoftwareVersions": "syngo_MR_E11",
    "SpacingBetweenSlices": 2,
    "StationName": "MRC35049",
    "TaskName": "figures06",
    "TotalReadoutTime": 0.0576811,
    "TxRefAmp": 251.695,
    "dataset": "<unset>",
    "dcmmeta_affine": [
      [
        -1.9932866096496582,
        -0.15337501466274261,
        0.05730986222624779,
        111.39788055419922
      ],
      [
        -0.16310155391693115,
        1.921395182609558,
        -0.5306963920593262,
        -63.40747833251953
      ],
      [
        0.014359662309288979,
        0.533588707447052,
        1.9274535179138184,
        -55.315147399902344
      ],
      [
        0.0,
        0.0,
        0.0,
        1.0
      ]
    ],
    "dcmmeta_reorient_transform": [
      [
        0.0,
        -1.0,
        0.0,
        103.0
      ],
      [
        1.0,
        0.0,
        0.0,
        0.0
      ],
      [
        0.0,
        0.0,
        1.0,
        0.0
      ],
      [
        0.0,
        0.0,
        0.0,
        1.0
      ]
    ],
    "dcmmeta_shape": [
      104,
      104,
      60,
      410
    ],
    "dcmmeta_slice_dim": 2,
    "dcmmeta_version": 0.6,
    "global": {
      "const": {
        "AcquisitionMatrix": [
          104,
          0,
          0,
          104
        ],
        "AngioFlag": "N",
        "BitsAllocated": 16,
        "BitsStored": 16,
        "BodyPartExamined": "BRAIN",
        "Columns": 832,
        "EchoNumbers": 1,
        "EchoTime": 37.0,
        "EchoTrainLength": 104,
        "FlipAngle": 52.0,
        "HighBit": 15,
        "ImageOrientationPatient": [
          0.99664332699315,
          0.08155077427682,
          0.00717983111747,
          -0.0766875066725,
          0.96069756272059,
          -0.2667943389637
        ],
        "ImagePositionPatient": [
          -765.32809157741,
          -893.2530085785,
          188.64384946177
        ],
        "ImageType": [
          "ORIGINAL",
          "PRIMARY",
          "M",
          "MB",
          "ND",
          "MOSAIC"
        ],
        "ImagedNucleus": "1H",
        "ImagingFrequency": 123.259302,
        "InPlanePhaseEncodingDirection": "COL",
        "MRAcquisitionType": "2D",
        "MagneticFieldStrength": 3.0,
        "Manufacturer": "SIEMENS",
        "ManufacturerModelName": "Prisma_fit",
        "Modality": "MR",
        "NumberOfAverages": 1.0,
        "NumberOfPhaseEncodingSteps": 104,
        "PercentPhaseFieldOfView": 100.0,
        "PercentSampling": 100.0,
        "PerformedProcedureStepStartTime": "153601.616000",
        "PhotometricInterpretation": "MONOCHROME2",
        "PixelBandwidth": 2290.0,
        "PixelRepresentation": 0,
        "PixelSpacing": [
          2.0,
          2.0
        ],
        "ProtocolName": "func_task-figures6",
        "RepetitionTime": 1490.0,
        "Rows": 832,
        "SAR": 0.03935293218887,
        "SamplesPerPixel": 1,
        "ScanOptions": "FS",
        "ScanningSequence": "EP",
        "SequenceName": "epfid2d1_104",
        "SequenceVariant": [
          "SK",
          "SS"
        ],
        "SeriesDescription": "func_task-figures6",
        "SeriesNumber": 13,
        "SeriesTime": "162005.846000",
        "SliceLocation": -33.291526864412,
        "SliceThickness": 2.0,
        "SmallestImagePixelValue": 0,
        "SoftwareVersions": "syngo MR E11",
        "SpacingBetweenSlices": 1.9999999995477,
        "SpecificCharacterSet": "ISO_IR 100",
        "StudyID": "1",
        "StudyTime": "153601.551000",
        "TransmitCoilName": "Body",
        "VariableFlipAngleFlag": "N",
        "WindowCenterWidthExplanation": "Algo1",
        "dBdt": 0.0
      },
      "slices": {}
    },
    "modality": "bold",
    "run_id": 1,
    "session_id": "008",
    "subject_id": "01",
    "task_id": "figures07",
    "time": {
      "samples": {
        "AcquisitionNumber": [
          1,
          2,
          3,
          4,
          5,
          6,
          7,
          8,
          9,
          10,
          11,
          12,
          13,
          14,
          15,
          16,
          17,
          18,
          19,
          20,
          21,
          22,
          23,
          24,
          25,
          26,
          27,
          28,
          29,
          30,
          31,
          32,
          33,
          34,
          35,
          36,
          37,
          38,
          39,
          40,
          41,
          42,
          43,
          44,
          45,
          46,
          47,
          48,
          49,
          50,
          51,
          52,
          53,
          54,
          55,
          56,
          57,
          58,
          59,
          60,
          61,
          62,
          63,
          64,
          65,
          66,
          67,
          68,
          69,
          70,
          71,
          72,
          73,
          74,
          75,
          76,
          77,
          78,
          79,
          80,
          81,
          82,
          83,
          84,
          85,
          86,
          87,
          88,
          89,
          90,
          91,
          92,
          93,
          94,
          95,
          96,
          97,
          98,
          99,
          100,
          101,
          102,
          103,
          104,
          105,
          106,
          107,
          108,
          109,
          110,
          111,
          112,
          113,
          114,
          115,
          116,
          117,
          118,
          119,
          120,
          121,
          122,
          123,
          124,
          125,
          126,
          127,
          128,
          129,
          130,
          131,
          132,
          133,
          134,
          135,
          136,
          137,
          138,
          139,
          140,
          141,
          142,
          143,
          144,
          145,
          146,
          147,
          148,
          149,
          150,
          151,
          152,
          153,
          154,
          155,
          156,
          157,
          158,
          159,
          160,
          161,
          162,
          163,
          164,
          165,
          166,
          167,
          168,
          169,
          170,
          171,
          172,
          173,
          174,
          175,
          176,
          177,
          178,
          179,
          180,
          181,
          182,
          183,
          184,
          185,
          186,
          187,
          188,
          189,
          190,
          191,
          192,
          193,
          194,
          195,
          196,
          197,
          198,
          199,
          200,
          201,
          202,
          203,
          204,
          205,
          206,
          207,
          208,
          209,
          210,
          211,
          212,
          213,
          214,
          215,
          216,
          217,
          218,
          219,
          220,
          221,
          222,
          223,
          224,
          225,
          226,
          227,
          228,
          229,
          230,
          231,
          232,
          233,
          234,
          235,
          236,
          237,
          238,
          239,
          240,
          241,
          242,
          243,
          244,
          245,
          246,
          247,
          248,
          249,
          250,
          251,
          252,
          253,
          254,
          255,
          256,
          257,
          258,
          259,
          260,
          261,
          262,
          263,
          264,
          265,
          266,
          267,
          268,
          269,
          270,
          271,
          272,
          273,
          274,
          275,
          276,
          277,
          278,
          279,
          280,
          281,
          282,
          283,
          284,
          285,
          286,
          287,
          288,
          289,
          290,
          291,
          292,
          293,
          294,
          295,
          296,
          297,
          298,
          299,
          300,
          301,
          302,
          303,
          304,
          305,
          306,
          307,
          308,
          309,
          310,
          311,
          312,
          313,
          314,
          315,
          316,
          317,
          318,
          319,
          320,
          321,
          322,
          323,
          324,
          325,
          326,
          327,
          328,
          329,
          330,
          331,
          332,
          333,
          334,
          335,
          336,
          337,
          338,
          339,
          340,
          341,
          342,
          343,
          344,
          345,
          346,
          347,
          348,
          349,
          350,
          351,
          352,
          353,
          354,
          355,
          356,
          357,
          358,
          359,
          360,
          361,
          362,
          363,
          364,
          365,
          366,
          367,
          368,
          369,
          370,
          371,
          372,
          373,
          374,
          375,
          376,
          377,
          378,
          379,
          380,
          381,
          382,
          383,
          384,
          385,
          386,
          387,
          388,
          389,
          390,
          391,
          392,
          393,
          394,
          395,
          396,
          397,
          398,
          399,
          400,
          401,
          402,
          403,
          404,
          405,
          406,
          407,
          408,
          409,
          410
        ],
        "AcquisitionTime": [
          "161847.865000",
          "161849.355000",
          "161850.845000",
          "161852.335000",
          "161853.825000",
          "161855.315000",
          "161856.805000",
          "161858.295000",
          "161859.785000",
          "161901.275000",
          "161902.765000",
          "161904.255000",
          "161905.745000",
          "161907.235000",
          "161908.725000",
          "161910.215000",
          "161911.705000",
          "161913.195000",
          "161914.685000",
          "161916.175000",
          "161917.665000",
          "161919.155000",
          "161920.645000",
          "161922.135000",
          "161923.625000",
          "161925.115000",
          "161926.605000",
          "161928.095000",
          "161929.585000",
          "161931.075000",
          "161932.565000",
          "161934.055000",
          "161935.545000",
          "161937.035000",
          "161938.525000",
          "161940.015000",
          "161941.505000",
          "161942.995000",
          "161944.485000",
          "161945.975000",
          "161947.465000",
          "161948.955000",
          "161950.445000",
          "161951.935000",
          "161953.425000",
          "161954.915000",
          "161956.405000",
          "161957.895000",
          "161959.385000",
          "162000.875000",
          "162002.365000",
          "162003.855000",
          "162005.345000",
          "162006.835000",
          "162008.325000",
          "162009.815000",
          "162011.305000",
          "162012.795000",
          "162014.285000",
          "162015.775000",
          "162017.265000",
          "162018.755000",
          "162020.245000",
          "162021.735000",
          "162023.225000",
          "162024.715000",
          "162026.205000",
          "162027.695000",
          "162029.185000",
          "162030.675000",
          "162032.165000",
          "162033.655000",
          "162035.145000",
          "162036.635000",
          "162038.125000",
          "162039.615000",
          "162041.105000",
          "162042.595000",
          "162044.085000",
          "162045.575000",
          "162047.065000",
          "162048.555000",
          "162050.045000",
          "162051.535000",
          "162053.025000",
          "162054.515000",
          "162056.005000",
          "162057.495000",
          "162058.985000",
          "162100.475000",
          "162101.965000",
          "162103.455000",
          "162104.945000",
          "162106.435000",
          "162107.925000",
          "162109.415000",
          "162110.905000",
          "162112.395000",
          "162113.885000",
          "162115.375000",
          "162116.865000",
          "162118.355000",
          "162119.845000",
          "162121.335000",
          "162122.825000",
          "162124.315000",
          "162125.805000",
          "162127.295000",
          "162128.785000",
          "162130.275000",
          "162131.765000",
          "162133.255000",
          "162134.745000",
          "162136.235000",
          "162137.725000",
          "162139.215000",
          "162140.705000",
          "162142.195000",
          "162143.685000",
          "162145.175000",
          "162146.665000",
          "162148.155000",
          "162149.645000",
          "162151.135000",
          "162152.625000",
          "162154.115000",
          "162155.605000",
          "162157.095000",
          "162158.585000",
          "162200.075000",
          "162201.565000",
          "162203.055000",
          "162204.545000",
          "162206.035000",
          "162207.525000",
          "162209.015000",
          "162210.505000",
          "162211.995000",
          "162213.485000",
          "162214.975000",
          "162216.465000",
          "162217.955000",
          "162219.445000",
          "162220.935000",
          "162222.425000",
          "162223.915000",
          "162225.405000",
          "162226.895000",
          "162228.385000",
          "162229.875000",
          "162231.365000",
          "162232.855000",
          "162234.345000",
          "162235.835000",
          "162237.325000",
          "162238.815000",
          "162240.305000",
          "162241.795000",
          "162243.285000",
          "162244.775000",
          "162246.265000",
          "162247.755000",
          "162249.245000",
          "162250.735000",
          "162252.225000",
          "162253.715000",
          "162255.205000",
          "162256.695000",
          "162258.185000",
          "162259.675000",
          "162301.165000",
          "162302.655000",
          "162304.145000",
          "162305.635000",
          "162307.125000",
          "162308.615000",
          "162310.105000",
          "162311.595000",
          "162313.085000",
          "162314.575000",
          "162316.065000",
          "162317.555000",
          "162319.045000",
          "162320.535000",
          "162322.025000",
          "162323.515000",
          "162325.005000",
          "162326.495000",
          "162327.985000",
          "162329.475000",
          "162330.965000",
          "162332.455000",
          "162333.945000",
          "162335.435000",
          "162336.925000",
          "162338.415000",
          "162339.905000",
          "162341.395000",
          "162342.885000",
          "162344.375000",
          "162345.865000",
          "162347.355000",
          "162348.845000",
          "162350.335000",
          "162351.825000",
          "162353.315000",
          "162354.805000",
          "162356.295000",
          "162357.785000",
          "162359.275000",
          "162400.765000",
          "162402.255000",
          "162403.745000",
          "162405.235000",
          "162406.725000",
          "162408.215000",
          "162409.705000",
          "162411.195000",
          "162412.685000",
          "162414.175000",
          "162415.665000",
          "162417.155000",
          "162418.645000",
          "162420.135000",
          "162421.625000",
          "162423.115000",
          "162424.605000",
          "162426.095000",
          "162427.585000",
          "162429.075000",
          "162430.565000",
          "162432.055000",
          "162433.545000",
          "162435.035000",
          "162436.525000",
          "162438.015000",
          "162439.505000",
          "162440.995000",
          "162442.485000",
          "162443.975000",
          "162445.465000",
          "162446.955000",
          "162448.445000",
          "162449.935000",
          "162451.425000",
          "162452.915000",
          "162454.405000",
          "162455.895000",
          "162457.385000",
          "162458.875000",
          "162500.365000",
          "162501.855000",
          "162503.345000",
          "162504.835000",
          "162506.325000",
          "162507.815000",
          "162509.305000",
          "162510.795000",
          "162512.285000",
          "162513.775000",
          "162515.265000",
          "162516.755000",
          "162518.245000",
          "162519.735000",
          "162521.225000",
          "162522.715000",
          "162524.205000",
          "162525.695000",
          "162527.185000",
          "162528.675000",
          "162530.165000",
          "162531.655000",
          "162533.145000",
          "162534.635000",
          "162536.125000",
          "162537.615000",
          "162539.105000",
          "162540.595000",
          "162542.085000",
          "162543.575000",
          "162545.065000",
          "162546.555000",
          "162548.045000",
          "162549.535000",
          "162551.025000",
          "162552.515000",
          "162554.005000",
          "162555.495000",
          "162556.985000",
          "162558.475000",
          "162559.965000",
          "162601.455000",
          "162602.945000",
          "162604.435000",
          "162605.925000",
          "162607.415000",
          "162608.905000",
          "162610.395000",
          "162611.885000",
          "162613.375000",
          "162614.865000",
          "162616.355000",
          "162617.845000",
          "162619.335000",
          "162620.825000",
          "162622.315000",
          "162623.805000",
          "162625.295000",
          "162626.785000",
          "162628.275000",
          "162629.765000",
          "162631.255000",
          "162632.745000",
          "162634.235000",
          "162635.725000",
          "162637.215000",
          "162638.705000",
          "162640.195000",
          "162641.685000",
          "162643.175000",
          "162644.665000",
          "162646.155000",
          "162647.645000",
          "162649.135000",
          "162650.625000",
          "162652.115000",
          "162653.605000",
          "162655.095000",
          "162656.585000",
          "162658.075000",
          "162659.565000",
          "162701.055000",
          "162702.545000",
          "162704.035000",
          "162705.525000",
          "162707.015000",
          "162708.505000",
          "162709.995000",
          "162711.485000",
          "162712.975000",
          "162714.465000",
          "162715.955000",
          "162717.445000",
          "162718.935000",
          "162720.425000",
          "162721.915000",
          "162723.405000",
          "162724.895000",
          "162726.385000",
          "162727.875000",
          "162729.365000",
          "162730.855000",
          "162732.345000",
          "162733.835000",
          "162735.325000",
          "162736.815000",
          "162738.305000",
          "162739.795000",
          "162741.285000",
          "162742.775000",
          "162744.265000",
          "162745.755000",
          "162747.245000",
          "162748.735000",
          "162750.225000",
          "162751.715000",
          "162753.205000",
          "162754.695000",
          "162756.185000",
          "162757.675000",
          "162759.165000",
          "162800.655000",
          "162802.145000",
          "162803.635000",
          "162805.125000",
          "162806.615000",
          "162808.105000",
          "162809.595000",
          "162811.085000",
          "162812.575000",
          "162814.065000",
          "162815.555000",
          "162817.045000",
          "162818.535000",
          "162820.025000",
          "162821.515000",
          "162823.005000",
          "162824.495000",
          "162825.985000",
          "162827.475000",
          "162828.965000",
          "162830.455000",
          "162831.945000",
          "162833.435000",
          "162834.925000",
          "162836.415000",
          "162837.905000",
          "162839.395000",
          "162840.885000",
          "162842.375000",
          "162843.865000",
          "162845.355000",
          "162846.845000",
          "162848.335000",
          "162849.825000",
          "162851.315000",
          "162852.805000",
          "162854.295000",
          "162855.785000",
          "162857.275000"
        ],
        "ContentTime": [
          "162005.849000",
          "162005.858000",
          "162005.861000",
          "162005.864000",
          "162005.867000",
          "162005.870000",
          "162005.873000",
          "162005.876000",
          "162005.879000",
          "162005.882000",
          "162005.885000",
          "162005.888000",
          "162005.891000",
          "162005.894000",
          "162005.897000",
          "162005.900000",
          "162005.903000",
          "162005.906000",
          "162005.909000",
          "162005.912000",
          "162005.914000",
          "162005.918000",
          "162005.920000",
          "162005.923000",
          "162005.932000",
          "162025.815000",
          "162025.818000",
          "162025.821000",
          "162025.824000",
          "162025.827000",
          "162025.830000",
          "162025.833000",
          "162025.836000",
          "162025.839000",
          "162025.842000",
          "162025.845000",
          "162025.848000",
          "162025.851000",
          "162025.854000",
          "162025.856000",
          "162025.860000",
          "162025.862000",
          "162025.865000",
          "162025.868000",
          "162025.871000",
          "162045.814000",
          "162045.817000",
          "162045.820000",
          "162045.823000",
          "162045.826000",
          "162045.829000",
          "162045.832000",
          "162045.842000",
          "162045.845000",
          "162045.849000",
          "162045.852000",
          "162045.855000",
          "162045.858000",
          "162045.861000",
          "162045.864000",
          "162045.867000",
          "162045.870000",
          "162045.873000",
          "162045.876000",
          "162045.879000",
          "162105.814000",
          "162105.817000",
          "162105.820000",
          "162105.823000",
          "162105.826000",
          "162105.829000",
          "162105.832000",
          "162105.835000",
          "162105.838000",
          "162105.841000",
          "162105.844000",
          "162105.847000",
          "162105.850000",
          "162105.853000",
          "162105.856000",
          "162105.859000",
          "162105.862000",
          "162105.865000",
          "162105.868000",
          "162105.871000",
          "162105.873000",
          "162145.814000",
          "162145.817000",
          "162145.820000",
          "162145.823000",
          "162145.826000",
          "162145.830000",
          "162145.832000",
          "162145.835000",
          "162145.838000",
          "162145.841000",
          "162145.844000",
          "162145.847000",
          "162145.850000",
          "162145.853000",
          "162145.856000",
          "162145.859000",
          "162145.862000",
          "162145.865000",
          "162145.868000",
          "162145.871000",
          "162145.874000",
          "162145.877000",
          "162145.880000",
          "162145.883000",
          "162145.886000",
          "162145.889000",
          "162145.892000",
          "162145.896000",
          "162145.900000",
          "162145.903000",
          "162145.907000",
          "162145.918000",
          "162225.815000",
          "162225.818000",
          "162225.821000",
          "162225.824000",
          "162225.827000",
          "162225.830000",
          "162225.833000",
          "162225.836000",
          "162225.839000",
          "162225.842000",
          "162225.845000",
          "162225.863000",
          "162225.866000",
          "162225.869000",
          "162225.872000",
          "162225.875000",
          "162225.878000",
          "162225.881000",
          "162225.884000",
          "162225.887000",
          "162225.890000",
          "162225.893000",
          "162225.896000",
          "162225.899000",
          "162225.902000",
          "162225.904000",
          "162225.908000",
          "162305.814000",
          "162305.817000",
          "162305.820000",
          "162305.823000",
          "162305.826000",
          "162305.829000",
          "162305.832000",
          "162305.835000",
          "162305.838000",
          "162305.841000",
          "162305.844000",
          "162305.847000",
          "162305.850000",
          "162305.853000",
          "162305.856000",
          "162305.859000",
          "162305.862000",
          "162305.865000",
          "162305.868000",
          "162305.871000",
          "162305.874000",
          "162305.877000",
          "162305.880000",
          "162305.883000",
          "162305.886000",
          "162305.889000",
          "162305.892000",
          "162345.815000",
          "162345.818000",
          "162345.821000",
          "162345.824000",
          "162345.827000",
          "162345.830000",
          "162345.833000",
          "162345.836000",
          "162345.839000",
          "162345.842000",
          "162345.845000",
          "162345.848000",
          "162345.851000",
          "162345.854000",
          "162345.857000",
          "162345.860000",
          "162345.863000",
          "162345.866000",
          "162345.868000",
          "162345.871000",
          "162345.875000",
          "162345.877000",
          "162345.880000",
          "162345.883000",
          "162345.887000",
          "162345.889000",
          "162345.892000",
          "162425.815000",
          "162425.818000",
          "162425.821000",
          "162425.824000",
          "162425.827000",
          "162425.830000",
          "162425.833000",
          "162425.836000",
          "162425.839000",
          "162425.842000",
          "162425.845000",
          "162425.848000",
          "162425.851000",
          "162425.854000",
          "162425.857000",
          "162425.860000",
          "162425.863000",
