{
  "aor": 0.00031639024390243904,
  "aqi": 0.005763402829268293,
  "bids_meta": {
    "AcquisitionMatrixPE": 104,
    "AcquisitionNumber": 1,
    "AcquisitionTime": "16:29:37.770000",
    "BandwidthPerPixelPhaseEncode": 17.17,
    "BaseResolution": 104,
    "BodyPartExamined": "BRAIN",
    "CogAtlasID": "trm_4c898da401420",
    "ConsistencyInfo": "N4_VE11C_LATEST_20160120",
    "ConversionSoftware": "dcm2niix",
    "ConversionSoftwareVersion": "v1.0.20171215 (OpenJPEG build) GCC7.3.0",
    "DerivedVendorReportedEchoSpacing": 0.000560011,
    "DeviceSerialNumber": "167006",
    "DwellTime": 2.1e-06,
    "EchoTime": 0.037,
    "EchoTrainLength": 104,
    "EffectiveEchoSpacing": 0.000560011,
    "FlipAngle": 52,
    "ImageComments": "Unaliased_MB4_PE3_LB",
    "ImageOrientationPatientDICOM": [
      0.996643,
      0.0815508,
      0.00717983,
      -0.0766875,
      0.960698,
      -0.266794
    ],
    "ImageType": [
      "ORIGINAL",
      "PRIMARY",
      "M",
      "MB",
      "ND",
      "MOSAIC"
    ],
    "InPlanePhaseEncodingDirectionDICOM": "COL",
    "InstitutionAddress": "Chemin_Queen-Mary_4565_Montreal_District_CA_H3W_1W5",
    "InstitutionName": "IUGM",
    "InstitutionalDepartmentName": "Department",
    "MRAcquisitionType": "2D",
    "MagneticFieldStrength": 3,
    "Manufacturer": "Siemens",
    "ManufacturersModelName": "Prisma_fit",
    "Modality": "MR",
    "MultibandAccelerationFactor": 4,
    "PartialFourier": 1,
    "PatientPosition": "HFS",
    "PercentPhaseFOV": 100,
    "PhaseEncodingDirection": "j-",
    "PhaseEncodingSteps": 104,
    "PhaseResolution": 1,
    "PixelBandwidth": 2290,
    "ProcedureStepDescription": "video5_generic",
    "ProtocolName": "func_task-figures7",
    "PulseSequenceDetails": "%CustomerSeq%_cmrr_mbep2d_bold",
    "ReceiveCoilActiveElements": "HC1-7;NC1,2",
    "ReceiveCoilName": "HeadNeck_64",
    "ReconMatrixPE": 104,
    "RepetitionTime": 1.49,
    "SAR": 0.0393529,
    "ScanOptions": "FS",
    "ScanningSequence": "EP",
    "SequenceName": "epfid2d1_104",
    "SequenceVariant": "SK_SS",
    "SeriesDescription": "func_task-figures7",
    "SeriesNumber": 15,
    "ShimSetting": [
      640,
      -7181,
      -8814,
      690,
      109,
      82,
      -14,
      -3
    ],
    "SliceThickness": 2,
    "SliceTiming": [
      0,
      0.785,
      0.0975,
      0.8825,
      0.1975,
      0.98,
      0.295,
      1.0775,
      0.3925,
      1.1775,
      0.49,
      1.275,
      0.5875,
      1.3725,
      0.6875,
      0,
      0.785,
      0.0975,
      0.8825,
      0.1975,
      0.98,
      0.295,
      1.0775,
      0.3925,
      1.1775,
      0.49,
      1.275,
      0.5875,
      1.3725,
      0.6875,
      0,
      0.785,
      0.0975,
      0.8825,
      0.1975,
      0.98,
      0.295,
      1.0775,
      0.3925,
      1.1775,
      0.49,
      1.275,
      0.5875,
      1.3725,
      0.6875,
      0,
      0.785,
      0.0975,
      0.8825,
      0.1975,
      0.98,
      0.295,
      1.0775,
      0.3925,
      1.1775,
      0.49,
      1.275,
      0.5875,
      1.3725,
      0.6875
    ],
    "SoftwareVersions": "syngo_MR_E11",
    "SpacingBetweenSlices": 2,
    "StationName": "MRC35049",
    "TaskName": "figures07",
    "TotalReadoutTime": 0.0576811,
    "TxRefAmp": 251.695,
    "dataset": "<unset>",
    "dcmmeta_affine": [
      [
        -1.9932866096496582,
        -0.15337501466274261,
        0.05730986222624779,
        111.39788055419922
      ],
      [
        -0.16310155391693115,
        1.921395182609558,
        -0.5306963920593262,
        -63.40747833251953
      ],
      [
        0.014359662309288979,
        0.533588707447052,
        1.9274535179138184,
        -55.315147399902344
      ],
      [
        0.0,
        0.0,
        0.0,
        1.0
      ]
    ],
    "dcmmeta_reorient_transform": [
      [
        0.0,
        -1.0,
        0.0,
        103.0
      ],
      [
        1.0,
        0.0,
        0.0,
        0.0
      ],
      [
        0.0,
        0.0,
        1.0,
        0.0
      ],
      [
        0.0,
        0.0,
        0.0,
        1.0
      ]
    ],
    "dcmmeta_shape": [
      104,
      104,
      60,
      410
    ],
    "dcmmeta_slice_dim": 2,
    "dcmmeta_version": 0.6,
    "global": {
      "const": {
        "AcquisitionMatrix": [
          104,
          0,
          0,
          104
        ],
        "AngioFlag": "N",
        "BitsAllocated": 16,
        "BitsStored": 16,
        "BodyPartExamined": "BRAIN",
        "Columns": 832,
        "EchoNumbers": 1,
        "EchoTime": 37.0,
        "EchoTrainLength": 104,
        "FlipAngle": 52.0,
        "HighBit": 15,
        "ImageOrientationPatient": [
          0.99664332699315,
          0.08155077427682,
          0.00717983111747,
          -0.0766875066725,
          0.96069756272059,
          -0.2667943389637
        ],
        "ImagePositionPatient": [
          -765.32809157741,
          -893.2530085785,
          188.64384946177
        ],
        "ImageType": [
          "ORIGINAL",
          "PRIMARY",
          "M",
          "MB",
          "ND",
          "MOSAIC"
        ],
        "ImagedNucleus": "1H",
        "ImagingFrequency": 123.259307,
        "InPlanePhaseEncodingDirection": "COL",
        "MRAcquisitionType": "2D",
        "MagneticFieldStrength": 3.0,
        "Manufacturer": "SIEMENS",
        "ManufacturerModelName": "Prisma_fit",
        "Modality": "MR",
        "NumberOfAverages": 1.0,
        "NumberOfPhaseEncodingSteps": 104,
        "PercentPhaseFieldOfView": 100.0,
        "PercentSampling": 100.0,
        "PerformedProcedureStepStartTime": "153601.616000",
        "PhotometricInterpretation": "MONOCHROME2",
        "PixelBandwidth": 2290.0,
        "PixelRepresentation": 0,
        "PixelSpacing": [
          2.0,
          2.0
        ],
        "ProtocolName": "func_task-figures7",
        "RepetitionTime": 1490.0,
        "Rows": 832,
        "SAR": 0.03935293218887,
        "SamplesPerPixel": 1,
        "ScanOptions": "FS",
        "ScanningSequence": "EP",
        "SequenceName": "epfid2d1_104",
        "SequenceVariant": [
          "SK",
          "SS"
        ],
        "SeriesDescription": "func_task-figures7",
        "SeriesNumber": 15,
        "SeriesTime": "163106.495000",
        "SliceLocation": -33.291526864412,
        "SliceThickness": 2.0,
        "SmallestImagePixelValue": 0,
        "SoftwareVersions": "syngo MR E11",
        "SpacingBetweenSlices": 1.9999999995477,
        "SpecificCharacterSet": "ISO_IR 100",
        "StudyID": "1",
        "StudyTime": "153601.551000",
        "TransmitCoilName": "Body",
        "VariableFlipAngleFlag": "N",
        "WindowCenterWidthExplanation": "Algo1",
        "dBdt": 0.0
      },
      "slices": {}
    },
    "modality": "bold",
    "run_id": 1,
    "session_id": "008",
    "subject_id": "01",
    "task_id": "figures08",
    "time": {
      "samples": {
        "AcquisitionNumber": [
          1,
          2,
          3,
          4,
          5,
          6,
          7,
          8,
          9,
          10,
          11,
          12,
          13,
          14,
          15,
          16,
          17,
          18,
          19,
          20,
          21,
          22,
          23,
          24,
          25,
          26,
          27,
          28,
          29,
          30,
          31,
          32,
          33,
          34,
          35,
          36,
          37,
          38,
          39,
          40,
          41,
          42,
          43,
          44,
          45,
          46,
          47,
          48,
          49,
          50,
          51,
          52,
          53,
          54,
          55,
          56,
          57,
          58,
          59,
          60,
          61,
          62,
          63,
          64,
          65,
          66,
          67,
          68,
          69,
          70,
          71,
          72,
          73,
          74,
          75,
          76,
          77,
          78,
          79,
          80,
          81,
          82,
          83,
          84,
          85,
          86,
          87,
          88,
          89,
          90,
          91,
          92,
          93,
          94,
          95,
          96,
          97,
          98,
          99,
          100,
          101,
          102,
          103,
          104,
          105,
          106,
          107,
          108,
          109,
          110,
          111,
          112,
          113,
          114,
          115,
          116,
          117,
          118,
          119,
          120,
          121,
          122,
          123,
          124,
          125,
          126,
          127,
          128,
          129,
          130,
          131,
          132,
          133,
          134,
          135,
          136,
          137,
          138,
          139,
          140,
          141,
          142,
          143,
          144,
          145,
          146,
          147,
          148,
          149,
          150,
          151,
          152,
          153,
          154,
          155,
          156,
          157,
          158,
          159,
          160,
          161,
          162,
          163,
          164,
          165,
          166,
          167,
          168,
          169,
          170,
          171,
          172,
          173,
          174,
          175,
          176,
          177,
          178,
          179,
          180,
          181,
          182,
          183,
          184,
          185,
          186,
          187,
          188,
          189,
          190,
          191,
          192,
          193,
          194,
          195,
          196,
          197,
          198,
          199,
          200,
          201,
          202,
          203,
          204,
          205,
          206,
          207,
          208,
          209,
          210,
          211,
          212,
          213,
          214,
          215,
          216,
          217,
          218,
          219,
          220,
          221,
          222,
          223,
          224,
          225,
          226,
          227,
          228,
          229,
          230,
          231,
          232,
          233,
          234,
          235,
          236,
          237,
          238,
          239,
          240,
          241,
          242,
          243,
          244,
          245,
          246,
          247,
          248,
          249,
          250,
          251,
          252,
          253,
          254,
          255,
          256,
          257,
          258,
          259,
          260,
          261,
          262,
          263,
          264,
          265,
          266,
          267,
          268,
          269,
          270,
          271,
          272,
          273,
          274,
          275,
          276,
          277,
          278,
          279,
          280,
          281,
          282,
          283,
          284,
          285,
          286,
          287,
          288,
          289,
          290,
          291,
          292,
          293,
          294,
          295,
          296,
          297,
          298,
          299,
          300,
          301,
          302,
          303,
          304,
          305,
          306,
          307,
          308,
          309,
          310,
          311,
          312,
          313,
          314,
          315,
          316,
          317,
          318,
          319,
          320,
          321,
          322,
          323,
          324,
          325,
          326,
          327,
          328,
          329,
          330,
          331,
          332,
          333,
          334,
          335,
          336,
          337,
          338,
          339,
          340,
          341,
          342,
          343,
          344,
          345,
          346,
          347,
          348,
          349,
          350,
          351,
          352,
          353,
          354,
          355,
          356,
          357,
          358,
          359,
          360,
          361,
          362,
          363,
          364,
          365,
          366,
          367,
          368,
          369,
          370,
          371,
          372,
          373,
          374,
          375,
          376,
          377,
          378,
          379,
          380,
          381,
          382,
          383,
          384,
          385,
          386,
          387,
          388,
          389,
          390,
          391,
          392,
          393,
          394,
          395,
          396,
          397,
          398,
          399,
          400,
          401,
          402,
          403,
          404,
          405,
          406,
          407,
          408,
          409,
          410
        ],
        "AcquisitionTime": [
          "162937.770000",
          "162939.260000",
          "162940.750000",
          "162942.240000",
          "162943.730000",
          "162945.220000",
          "162946.710000",
          "162948.200000",
          "162949.690000",
          "162951.180000",
          "162952.670000",
          "162954.160000",
          "162955.650000",
          "162957.140000",
          "162958.630000",
          "163000.120000",
          "163001.610000",
          "163003.100000",
          "163004.590000",
          "163006.080000",
          "163007.570000",
          "163009.060000",
          "163010.550000",
          "163012.040000",
          "163013.530000",
          "163015.020000",
          "163016.510000",
          "163018.000000",
          "163019.490000",
          "163020.980000",
          "163022.470000",
          "163023.960000",
          "163025.450000",
          "163026.940000",
          "163028.430000",
          "163029.920000",
          "163031.410000",
          "163032.900000",
          "163034.390000",
          "163035.880000",
          "163037.370000",
          "163038.860000",
          "163040.350000",
          "163041.840000",
          "163043.330000",
          "163044.820000",
          "163046.310000",
          "163047.800000",
          "163049.290000",
          "163050.780000",
          "163052.270000",
          "163053.760000",
          "163055.250000",
          "163056.740000",
          "163058.230000",
          "163059.720000",
          "163101.210000",
          "163102.700000",
          "163104.190000",
          "163105.680000",
          "163107.170000",
          "163108.660000",
          "163110.150000",
          "163111.640000",
          "163113.130000",
          "163114.620000",
          "163116.110000",
          "163117.600000",
          "163119.090000",
          "163120.580000",
          "163122.070000",
          "163123.560000",
          "163125.050000",
          "163126.540000",
          "163128.030000",
          "163129.520000",
          "163131.010000",
          "163132.500000",
          "163133.990000",
          "163135.480000",
          "163136.970000",
          "163138.460000",
          "163139.950000",
          "163141.440000",
          "163142.930000",
          "163144.420000",
          "163145.910000",
          "163147.400000",
          "163148.890000",
          "163150.380000",
          "163151.870000",
          "163153.360000",
          "163154.850000",
          "163156.340000",
          "163157.830000",
          "163159.320000",
          "163200.810000",
          "163202.300000",
          "163203.790000",
          "163205.280000",
          "163206.770000",
          "163208.260000",
          "163209.750000",
          "163211.240000",
          "163212.730000",
          "163214.220000",
          "163215.710000",
          "163217.200000",
          "163218.690000",
          "163220.180000",
          "163221.670000",
          "163223.160000",
          "163224.650000",
          "163226.140000",
          "163227.630000",
          "163229.120000",
          "163230.610000",
          "163232.100000",
          "163233.590000",
          "163235.080000",
          "163236.570000",
          "163238.060000",
          "163239.550000",
          "163241.040000",
          "163242.530000",
          "163244.020000",
          "163245.510000",
          "163247.000000",
          "163248.490000",
          "163249.980000",
          "163251.470000",
          "163252.960000",
          "163254.450000",
          "163255.940000",
          "163257.430000",
          "163258.920000",
          "163300.410000",
          "163301.900000",
          "163303.390000",
          "163304.880000",
          "163306.370000",
          "163307.860000",
          "163309.350000",
          "163310.840000",
          "163312.330000",
          "163313.820000",
          "163315.310000",
          "163316.800000",
          "163318.290000",
          "163319.780000",
          "163321.270000",
          "163322.760000",
          "163324.250000",
          "163325.740000",
          "163327.230000",
          "163328.720000",
          "163330.210000",
          "163331.700000",
          "163333.190000",
          "163334.680000",
          "163336.170000",
          "163337.660000",
          "163339.150000",
          "163340.640000",
          "163342.130000",
          "163343.620000",
          "163345.110000",
          "163346.600000",
          "163348.090000",
          "163349.580000",
          "163351.070000",
          "163352.560000",
          "163354.050000",
          "163355.540000",
          "163357.030000",
          "163358.520000",
          "163400.010000",
          "163401.500000",
          "163402.990000",
          "163404.480000",
          "163405.970000",
          "163407.460000",
          "163408.950000",
          "163410.440000",
          "163411.930000",
          "163413.420000",
          "163414.910000",
          "163416.400000",
          "163417.890000",
          "163419.380000",
          "163420.870000",
          "163422.360000",
          "163423.850000",
          "163425.340000",
          "163426.830000",
          "163428.320000",
          "163429.810000",
          "163431.300000",
          "163432.790000",
          "163434.280000",
          "163435.770000",
          "163437.260000",
          "163438.750000",
          "163440.240000",
          "163441.730000",
          "163443.220000",
          "163444.710000",
          "163446.200000",
          "163447.690000",
          "163449.180000",
          "163450.670000",
          "163452.160000",
          "163453.650000",
          "163455.140000",
          "163456.630000",
          "163458.120000",
          "163459.610000",
          "163501.100000",
          "163502.590000",
          "163504.080000",
          "163505.570000",
          "163507.060000",
          "163508.550000",
          "163510.040000",
          "163511.530000",
          "163513.020000",
          "163514.510000",
          "163516.000000",
          "163517.490000",
          "163518.980000",
          "163520.470000",
          "163521.960000",
          "163523.450000",
          "163524.940000",
          "163526.430000",
          "163527.920000",
          "163529.410000",
          "163530.900000",
          "163532.390000",
          "163533.880000",
          "163535.370000",
          "163536.860000",
          "163538.350000",
          "163539.840000",
          "163541.330000",
          "163542.820000",
          "163544.310000",
          "163545.800000",
          "163547.290000",
          "163548.780000",
          "163550.270000",
          "163551.760000",
          "163553.250000",
          "163554.740000",
          "163556.230000",
          "163557.720000",
          "163559.210000",
          "163600.700000",
          "163602.190000",
          "163603.680000",
          "163605.170000",
          "163606.660000",
          "163608.150000",
          "163609.640000",
          "163611.130000",
          "163612.620000",
          "163614.110000",
          "163615.600000",
          "163617.090000",
          "163618.580000",
          "163620.070000",
          "163621.560000",
          "163623.050000",
          "163624.540000",
          "163626.030000",
          "163627.520000",
          "163629.010000",
          "163630.500000",
          "163631.990000",
          "163633.480000",
          "163634.970000",
          "163636.460000",
          "163637.950000",
          "163639.440000",
          "163640.930000",
          "163642.420000",
          "163643.910000",
          "163645.400000",
          "163646.890000",
          "163648.380000",
          "163649.870000",
          "163651.360000",
          "163652.850000",
          "163654.340000",
          "163655.830000",
          "163657.320000",
          "163658.810000",
          "163700.300000",
          "163701.790000",
          "163703.280000",
          "163704.770000",
          "163706.260000",
          "163707.750000",
          "163709.240000",
          "163710.730000",
          "163712.220000",
          "163713.710000",
          "163715.200000",
          "163716.690000",
          "163718.180000",
          "163719.670000",
          "163721.160000",
          "163722.650000",
          "163724.140000",
          "163725.630000",
          "163727.120000",
          "163728.610000",
          "163730.100000",
          "163731.590000",
          "163733.080000",
          "163734.570000",
          "163736.060000",
          "163737.550000",
          "163739.040000",
          "163740.530000",
          "163742.020000",
          "163743.510000",
          "163745.000000",
          "163746.490000",
          "163747.980000",
          "163749.470000",
          "163750.960000",
          "163752.450000",
          "163753.940000",
          "163755.430000",
          "163756.920000",
          "163758.410000",
          "163759.900000",
          "163801.390000",
          "163802.880000",
          "163804.370000",
          "163805.860000",
          "163807.350000",
          "163808.840000",
          "163810.330000",
          "163811.820000",
          "163813.310000",
          "163814.800000",
          "163816.290000",
          "163817.780000",
          "163819.270000",
          "163820.760000",
          "163822.250000",
          "163823.740000",
          "163825.230000",
          "163826.720000",
          "163828.210000",
          "163829.700000",
          "163831.190000",
          "163832.680000",
          "163834.170000",
          "163835.660000",
          "163837.150000",
          "163838.640000",
          "163840.130000",
          "163841.620000",
          "163843.110000",
          "163844.600000",
          "163846.090000",
          "163847.580000",
          "163849.070000",
          "163850.560000",
          "163852.050000",
          "163853.540000",
          "163855.030000",
          "163856.520000",
          "163858.010000",
          "163859.500000",
          "163900.990000",
          "163902.480000",
          "163903.970000",
          "163905.460000",
          "163906.950000",
          "163908.440000",
          "163909.930000",
          "163911.420000",
          "163912.910000",
          "163914.400000",
          "163915.890000",
          "163917.380000",
          "163918.870000",
          "163920.360000",
          "163921.850000",
          "163923.340000",
          "163924.830000",
          "163926.320000",
          "163927.810000",
          "163929.300000",
          "163930.790000",
          "163932.280000",
          "163933.770000",
          "163935.260000",
          "163936.750000",
          "163938.240000",
          "163939.730000",
          "163941.220000",
          "163942.710000",
          "163944.200000",
          "163945.690000",
          "163947.180000"
        ],
        "ContentTime": [
          "163106.498000",
          "163106.501000",
          "163106.505000",
          "163106.514000",
          "163106.516000",
          "163106.519000",
          "163106.522000",
          "163106.525000",
          "163106.528000",
          "163106.531000",
          "163106.534000",
          "163106.537000",
          "163106.540000",
          "163106.543000",
          "163106.546000",
          "163106.549000",
          "163106.552000",
          "163106.555000",
          "163106.558000",
          "163106.561000",
          "163106.564000",
          "163106.567000",
          "163106.570000",
          "163106.573000",
          "163106.576000",
          "163106.579000",
          "163106.582000",
          "163106.586000",
          "163106.588000",
          "163106.591000",
          "163106.594000",
          "163106.597000",
          "163106.600000",
          "163106.603000",
          "163106.606000",
          "163106.609000",
          "163126.465000",
          "163126.468000",
          "163126.471000",
          "163126.474000",
          "163126.477000",
          "163126.480000",
          "163126.483000",
          "163126.486000",
          "163126.489000",
          "163126.492000",
          "163126.495000",
          "163126.498000",
          "163126.501000",
          "163126.504000",
          "163126.507000",
          "163126.510000",
          "163126.513000",
          "163126.516000",
          "163126.526000",
          "163126.529000",
          "163146.465000",
          "163146.468000",
          "163146.471000",
          "163146.474000",
          "163146.477000",
          "163146.480000",
          "163146.483000",
          "163146.486000",
          "163146.489000",
          "163146.492000",
          "163146.495000",
          "163146.498000",
          "163146.501000",
          "163146.504000",
          "163146.507000",
          "163146.510000",
          "163146.513000",
          "163146.516000",
          "163146.519000",
          "163146.522000",
          "163146.525000",
          "163206.474000",
          "163206.477000",
          "163206.480000",
          "163206.483000",
          "163206.486000",
          "163206.489000",
          "163206.492000",
          "163206.495000",
          "163206.498000",
          "163206.501000",
          "163206.504000",
          "163206.507000",
          "163206.510000",
          "163206.513000",
          "163206.516000",
          "163206.519000",
          "163206.522000",
          "163206.525000",
          "163206.528000",
          "163206.531000",
          "163246.465000",
          "163246.475000",
          "163246.478000",
          "163246.481000",
          "163246.484000",
          "163246.487000",
          "163246.490000",
          "163246.493000",
          "163246.496000",
          "163246.499000",
          "163246.502000",
          "163246.505000",
          "163246.508000",
          "163246.511000",
          "163246.514000",
          "163246.517000",
          "163246.520000",
          "163246.523000",
          "163246.526000",
          "163246.530000",
          "163246.533000",
          "163246.536000",
          "163246.539000",
          "163246.542000",
          "163246.545000",
          "163246.548000",
          "163246.551000",
          "163246.554000",
          "163246.557000",
          "163326.466000",
          "163326.470000",
          "163326.474000",
          "163326.478000",
          "163326.481000",
          "163326.484000",
          "163326.487000",
          "163326.490000",
          "163326.493000",
          "163326.496000",
          "163326.507000",
          "163326.511000",
          "163326.515000",
          "163326.519000",
          "163326.527000",
          "163326.530000",
          "163326.535000",
          "163326.539000",
          "163326.542000",
          "163326.546000",
          "163326.550000",
          "163326.553000",
          "163326.557000",
          "163326.560000",
          "163326.564000",
          "163326.568000",
          "163326.580000",
          "163406.465000",
          "163406.469000",
          "163406.471000",
          "163406.474000",
          "163406.477000",
          "163406.480000",
          "163406.483000",
          "163406.486000",
          "163406.489000",
          "163406.492000",
          "163406.495000",
          "163406.498000",
          "163406.501000",
          "163406.504000",
          "163406.507000",
          "163406.510000",
          "163406.513000",
          "163406.516000",
          "163406.519000",
          "163406.522000",
          "163406.525000",
          "163406.528000",
          "163406.531000",
          "163406.534000",
          "163406.537000",
          "163406.545000",
          "163406.548000",
          "163446.465000",
          "163446.468000",
          "163446.471000",
          "163446.474000",
          "163446.477000",
          "163446.480000",
          "163446.483000",
          "163446.486000",
          "163446.489000",
          "163446.492000",
          "163446.495000",
          "163446.498000",
          "163446.501000",
          "163446.504000",
          "163446.507000",
          "163446.510000",
          "163446.513000",
          "163446.517000",
          "163446.521000",
          "163446.524000",
          "163446.527000",
          "163446.530000",
          "163446.533000",
          "163446.536000",
          "163446.539000",
          "163446.542000",
          "163526.465000",
          "163526.468000",
          "163526.471000",
          "163526.474000",
          "163526.477000",
          "163526.480000",
          "163526.483000",
          "163526.486000",
          "163526.489000",
          "163526.492000",
