{
  "aor": 0.0004607317073170732,
  "aqi": 0.005966067951219513,
  "bids_meta": {
    "AcquisitionMatrixPE": 104,
    "AcquisitionNumber": 1,
    "AcquisitionTime": "15:51:11.222500",
    "BandwidthPerPixelPhaseEncode": 17.17,
    "BaseResolution": 104,
    "BodyPartExamined": "BRAIN",
    "CogAtlasID": "trm_4c898da401420",
    "ConsistencyInfo": "N4_VE11C_LATEST_20160120",
    "ConversionSoftware": "dcm2niix",
    "ConversionSoftwareVersion": "v1.0.20171215 (OpenJPEG build) GCC7.3.0",
    "DerivedVendorReportedEchoSpacing": 0.000560011,
    "DeviceSerialNumber": "167006",
    "DwellTime": 2.1e-06,
    "EchoTime": 0.037,
    "EchoTrainLength": 104,
    "EffectiveEchoSpacing": 0.000560011,
    "FlipAngle": 52,
    "ImageComments": "Unaliased_MB4_PE3_LB",
    "ImageOrientationPatientDICOM": [
      0.996643,
      0.0815508,
      0.00717983,
      -0.0766875,
      0.960698,
      -0.266794
    ],
    "ImageType": [
      "ORIGINAL",
      "PRIMARY",
      "M",
      "MB",
      "ND",
      "MOSAIC"
    ],
    "InPlanePhaseEncodingDirectionDICOM": "COL",
    "InstitutionAddress": "Chemin_Queen-Mary_4565_Montreal_District_CA_H3W_1W5",
    "InstitutionName": "IUGM",
    "InstitutionalDepartmentName": "Department",
    "MRAcquisitionType": "2D",
    "MagneticFieldStrength": 3,
    "Manufacturer": "Siemens",
    "ManufacturersModelName": "Prisma_fit",
    "Modality": "MR",
    "MultibandAccelerationFactor": 4,
    "PartialFourier": 1,
    "PatientPosition": "HFS",
    "PercentPhaseFOV": 100,
    "PhaseEncodingDirection": "j-",
    "PhaseEncodingSteps": 104,
    "PhaseResolution": 1,
    "PixelBandwidth": 2290,
    "ProcedureStepDescription": "video5_generic",
    "ProtocolName": "func_task-figures4",
    "PulseSequenceDetails": "%CustomerSeq%_cmrr_mbep2d_bold",
    "ReceiveCoilActiveElements": "HC1-7;NC1,2",
    "ReceiveCoilName": "HeadNeck_64",
    "ReconMatrixPE": 104,
    "RepetitionTime": 1.49,
    "SAR": 0.0393529,
    "ScanOptions": "FS",
    "ScanningSequence": "EP",
    "SequenceName": "epfid2d1_104",
    "SequenceVariant": "SK_SS",
    "SeriesDescription": "func_task-figures4",
    "SeriesNumber": 7,
    "ShimSetting": [
      640,
      -7181,
      -8814,
      690,
      109,
      82,
      -14,
      -3
    ],
    "SliceThickness": 2,
    "SliceTiming": [
      0,
      0.785,
      0.0975,
      0.8825,
      0.1975,
      0.98,
      0.295,
      1.0775,
      0.3925,
      1.1775,
      0.49,
      1.275,
      0.5875,
      1.3725,
      0.6875,
      0,
      0.785,
      0.0975,
      0.8825,
      0.1975,
      0.98,
      0.295,
      1.0775,
      0.3925,
      1.1775,
      0.49,
      1.275,
      0.5875,
      1.3725,
      0.6875,
      0,
      0.785,
      0.0975,
      0.8825,
      0.1975,
      0.98,
      0.295,
      1.0775,
      0.3925,
      1.1775,
      0.49,
      1.275,
      0.5875,
      1.3725,
      0.6875,
      0,
      0.785,
      0.0975,
      0.8825,
      0.1975,
      0.98,
      0.295,
      1.0775,
      0.3925,
      1.1775,
      0.49,
      1.275,
      0.5875,
      1.3725,
      0.6875
    ],
    "SoftwareVersions": "syngo_MR_E11",
    "SpacingBetweenSlices": 2,
    "StationName": "MRC35049",
    "TaskName": "figures04",
    "TotalReadoutTime": 0.0576811,
    "TxRefAmp": 251.695,
    "dataset": "<unset>",
    "dcmmeta_affine": [
      [
        -1.9932866096496582,
        -0.15337501466274261,
        0.05730986222624779,
        111.39788055419922
      ],
      [
        -0.16310155391693115,
        1.921395182609558,
        -0.5306963920593262,
        -63.40747833251953
      ],
      [
        0.014359662309288979,
        0.533588707447052,
        1.9274535179138184,
        -55.315147399902344
      ],
      [
        0.0,
        0.0,
        0.0,
        1.0
      ]
    ],
    "dcmmeta_reorient_transform": [
      [
        0.0,
        -1.0,
        0.0,
        103.0
      ],
      [
        1.0,
        0.0,
        0.0,
        0.0
      ],
      [
        0.0,
        0.0,
        1.0,
        0.0
      ],
      [
        0.0,
        0.0,
        0.0,
        1.0
      ]
    ],
    "dcmmeta_shape": [
      104,
      104,
      60,
      410
    ],
    "dcmmeta_slice_dim": 2,
    "dcmmeta_version": 0.6,
    "global": {
      "const": {
        "AcquisitionMatrix": [
          104,
          0,
          0,
          104
        ],
        "AngioFlag": "N",
        "BitsAllocated": 16,
        "BitsStored": 16,
        "BodyPartExamined": "BRAIN",
        "Columns": 832,
        "EchoNumbers": 1,
        "EchoTime": 37.0,
        "EchoTrainLength": 104,
        "FlipAngle": 52.0,
        "HighBit": 15,
        "ImageOrientationPatient": [
          0.99664332699315,
          0.08155077427682,
          0.00717983111747,
          -0.0766875066725,
          0.96069756272059,
          -0.2667943389637
        ],
        "ImagePositionPatient": [
          -765.32809157741,
          -893.2530085785,
          188.64384946177
        ],
        "ImageType": [
          "ORIGINAL",
          "PRIMARY",
          "M",
          "MB",
          "ND",
          "MOSAIC"
        ],
        "ImagedNucleus": "1H",
        "ImagingFrequency": 123.259291,
        "InPlanePhaseEncodingDirection": "COL",
        "MRAcquisitionType": "2D",
        "MagneticFieldStrength": 3.0,
        "Manufacturer": "SIEMENS",
        "ManufacturerModelName": "Prisma_fit",
        "Modality": "MR",
        "NumberOfAverages": 1.0,
        "NumberOfPhaseEncodingSteps": 104,
        "PercentPhaseFieldOfView": 100.0,
        "PercentSampling": 100.0,
        "PerformedProcedureStepStartTime": "153601.616000",
        "PhotometricInterpretation": "MONOCHROME2",
        "PixelBandwidth": 2290.0,
        "PixelRepresentation": 0,
        "PixelSpacing": [
          2.0,
          2.0
        ],
        "ProtocolName": "func_task-figures4",
        "RepetitionTime": 1490.0,
        "Rows": 832,
        "SAR": 0.03935293218887,
        "SamplesPerPixel": 1,
        "ScanOptions": "FS",
        "ScanningSequence": "EP",
        "SequenceName": "epfid2d1_104",
        "SequenceVariant": [
          "SK",
          "SS"
        ],
        "SeriesDescription": "func_task-figures4",
        "SeriesNumber": 7,
        "SeriesTime": "155225.849000",
        "SliceLocation": -33.291526864412,
        "SliceThickness": 2.0,
        "SmallestImagePixelValue": 0,
        "SoftwareVersions": "syngo MR E11",
        "SpacingBetweenSlices": 1.9999999995477,
        "SpecificCharacterSet": "ISO_IR 100",
        "StudyID": "1",
        "StudyTime": "153601.551000",
        "TransmitCoilName": "Body",
        "VariableFlipAngleFlag": "N",
        "WindowCenterWidthExplanation": "Algo1",
        "dBdt": 0.0
      },
      "slices": {}
    },
    "modality": "bold",
    "run_id": 1,
    "session_id": "008",
    "subject_id": "01",
    "task_id": "figures05",
    "time": {
      "samples": {
        "AcquisitionNumber": [
          1,
          2,
          3,
          4,
          5,
          6,
          7,
          8,
          9,
          10,
          11,
          12,
          13,
          14,
          15,
          16,
          17,
          18,
          19,
          20,
          21,
          22,
          23,
          24,
          25,
          26,
          27,
          28,
          29,
          30,
          31,
          32,
          33,
          34,
          35,
          36,
          37,
          38,
          39,
          40,
          41,
          42,
          43,
          44,
          45,
          46,
          47,
          48,
          49,
          50,
          51,
          52,
          53,
          54,
          55,
          56,
          57,
          58,
          59,
          60,
          61,
          62,
          63,
          64,
          65,
          66,
          67,
          68,
          69,
          70,
          71,
          72,
          73,
          74,
          75,
          76,
          77,
          78,
          79,
          80,
          81,
          82,
          83,
          84,
          85,
          86,
          87,
          88,
          89,
          90,
          91,
          92,
          93,
          94,
          95,
          96,
          97,
          98,
          99,
          100,
          101,
          102,
          103,
          104,
          105,
          106,
          107,
          108,
          109,
          110,
          111,
          112,
          113,
          114,
          115,
          116,
          117,
          118,
          119,
          120,
          121,
          122,
          123,
          124,
          125,
          126,
          127,
          128,
          129,
          130,
          131,
          132,
          133,
          134,
          135,
          136,
          137,
          138,
          139,
          140,
          141,
          142,
          143,
          144,
          145,
          146,
          147,
          148,
          149,
          150,
          151,
          152,
          153,
          154,
          155,
          156,
          157,
          158,
          159,
          160,
          161,
          162,
          163,
          164,
          165,
          166,
          167,
          168,
          169,
          170,
          171,
          172,
          173,
          174,
          175,
          176,
          177,
          178,
          179,
          180,
          181,
          182,
          183,
          184,
          185,
          186,
          187,
          188,
          189,
          190,
          191,
          192,
          193,
          194,
          195,
          196,
          197,
          198,
          199,
          200,
          201,
          202,
          203,
          204,
          205,
          206,
          207,
          208,
          209,
          210,
          211,
          212,
          213,
          214,
          215,
          216,
          217,
          218,
          219,
          220,
          221,
          222,
          223,
          224,
          225,
          226,
          227,
          228,
          229,
          230,
          231,
          232,
          233,
          234,
          235,
          236,
          237,
          238,
          239,
          240,
          241,
          242,
          243,
          244,
          245,
          246,
          247,
          248,
          249,
          250,
          251,
          252,
          253,
          254,
          255,
          256,
          257,
          258,
          259,
          260,
          261,
          262,
          263,
          264,
          265,
          266,
          267,
          268,
          269,
          270,
          271,
          272,
          273,
          274,
          275,
          276,
          277,
          278,
          279,
          280,
          281,
          282,
          283,
          284,
          285,
          286,
          287,
          288,
          289,
          290,
          291,
          292,
          293,
          294,
          295,
          296,
          297,
          298,
          299,
          300,
          301,
          302,
          303,
          304,
          305,
          306,
          307,
          308,
          309,
          310,
          311,
          312,
          313,
          314,
          315,
          316,
          317,
          318,
          319,
          320,
          321,
          322,
          323,
          324,
          325,
          326,
          327,
          328,
          329,
          330,
          331,
          332,
          333,
          334,
          335,
          336,
          337,
          338,
          339,
          340,
          341,
          342,
          343,
          344,
          345,
          346,
          347,
          348,
          349,
          350,
          351,
          352,
          353,
          354,
          355,
          356,
          357,
          358,
          359,
          360,
          361,
          362,
          363,
          364,
          365,
          366,
          367,
          368,
          369,
          370,
          371,
          372,
          373,
          374,
          375,
          376,
          377,
          378,
          379,
          380,
          381,
          382,
          383,
          384,
          385,
          386,
          387,
          388,
          389,
          390,
          391,
          392,
          393,
          394,
          395,
          396,
          397,
          398,
          399,
          400,
          401,
          402,
          403,
          404,
          405,
          406,
          407,
          408,
          409,
          410
        ],
        "AcquisitionTime": [
          "155111.222500",
          "155112.712500",
          "155114.202500",
          "155115.692500",
          "155117.182500",
          "155118.672500",
          "155120.162500",
          "155121.652500",
          "155123.142500",
          "155124.632500",
          "155126.122500",
          "155127.612500",
          "155129.102500",
          "155130.592500",
          "155132.082500",
          "155133.572500",
          "155135.062500",
          "155136.552500",
          "155138.042500",
          "155139.532500",
          "155141.022500",
          "155142.512500",
          "155144.002500",
          "155145.492500",
          "155146.982500",
          "155148.472500",
          "155149.962500",
          "155151.452500",
          "155152.942500",
          "155154.432500",
          "155155.922500",
          "155157.412500",
          "155158.902500",
          "155200.392500",
          "155201.882500",
          "155203.372500",
          "155204.862500",
          "155206.352500",
          "155207.842500",
          "155209.332500",
          "155210.822500",
          "155212.312500",
          "155213.802500",
          "155215.292500",
          "155216.782500",
          "155218.272500",
          "155219.762500",
          "155221.252500",
          "155222.742500",
          "155224.232500",
          "155225.722500",
          "155227.212500",
          "155228.702500",
          "155230.192500",
          "155231.682500",
          "155233.172500",
          "155234.662500",
          "155236.152500",
          "155237.642500",
          "155239.132500",
          "155240.622500",
          "155242.112500",
          "155243.602500",
          "155245.092500",
          "155246.582500",
          "155248.072500",
          "155249.562500",
          "155251.052500",
          "155252.542500",
          "155254.032500",
          "155255.522500",
          "155257.012500",
          "155258.502500",
          "155259.992500",
          "155301.482500",
          "155302.972500",
          "155304.462500",
          "155305.952500",
          "155307.442500",
          "155308.932500",
          "155310.422500",
          "155311.912500",
          "155313.402500",
          "155314.892500",
          "155316.382500",
          "155317.872500",
          "155319.362500",
          "155320.852500",
          "155322.342500",
          "155323.832500",
          "155325.322500",
          "155326.812500",
          "155328.302500",
          "155329.792500",
          "155331.282500",
          "155332.772500",
          "155334.262500",
          "155335.752500",
          "155337.242500",
          "155338.732500",
          "155340.222500",
          "155341.712500",
          "155343.202500",
          "155344.692500",
          "155346.182500",
          "155347.672500",
          "155349.162500",
          "155350.652500",
          "155352.142500",
          "155353.632500",
          "155355.122500",
          "155356.612500",
          "155358.102500",
          "155359.592500",
          "155401.082500",
          "155402.572500",
          "155404.062500",
          "155405.552500",
          "155407.042500",
          "155408.532500",
          "155410.022500",
          "155411.512500",
          "155413.002500",
          "155414.492500",
          "155415.982500",
          "155417.472500",
          "155418.962500",
          "155420.452500",
          "155421.942500",
          "155423.432500",
          "155424.922500",
          "155426.412500",
          "155427.902500",
          "155429.392500",
          "155430.882500",
          "155432.372500",
          "155433.862500",
          "155435.352500",
          "155436.842500",
          "155438.332500",
          "155439.822500",
          "155441.312500",
          "155442.802500",
          "155444.292500",
          "155445.782500",
          "155447.272500",
          "155448.762500",
          "155450.252500",
          "155451.742500",
          "155453.232500",
          "155454.722500",
          "155456.212500",
          "155457.702500",
          "155459.192500",
          "155500.682500",
          "155502.172500",
          "155503.662500",
          "155505.152500",
          "155506.642500",
          "155508.132500",
          "155509.622500",
          "155511.112500",
          "155512.602500",
          "155514.092500",
          "155515.582500",
          "155517.072500",
          "155518.562500",
          "155520.052500",
          "155521.542500",
          "155523.032500",
          "155524.522500",
          "155526.012500",
          "155527.502500",
          "155528.992500",
          "155530.482500",
          "155531.972500",
          "155533.462500",
          "155534.952500",
          "155536.442500",
          "155537.932500",
          "155539.422500",
          "155540.912500",
          "155542.402500",
          "155543.892500",
          "155545.382500",
          "155546.872500",
          "155548.362500",
          "155549.852500",
          "155551.342500",
          "155552.832500",
          "155554.322500",
          "155555.812500",
          "155557.302500",
          "155558.792500",
          "155600.282500",
          "155601.772500",
          "155603.262500",
          "155604.752500",
          "155606.242500",
          "155607.732500",
          "155609.222500",
          "155610.712500",
          "155612.202500",
          "155613.692500",
          "155615.182500",
          "155616.672500",
          "155618.162500",
          "155619.652500",
          "155621.142500",
          "155622.632500",
          "155624.122500",
          "155625.612500",
          "155627.102500",
          "155628.592500",
          "155630.082500",
          "155631.572500",
          "155633.062500",
          "155634.552500",
          "155636.042500",
          "155637.532500",
          "155639.022500",
          "155640.512500",
          "155642.002500",
          "155643.492500",
          "155644.982500",
          "155646.472500",
          "155647.962500",
          "155649.452500",
          "155650.942500",
          "155652.432500",
          "155653.922500",
          "155655.412500",
          "155656.902500",
          "155658.392500",
          "155659.882500",
          "155701.372500",
          "155702.862500",
          "155704.352500",
          "155705.842500",
          "155707.332500",
          "155708.822500",
          "155710.312500",
          "155711.802500",
          "155713.292500",
          "155714.782500",
          "155716.272500",
          "155717.762500",
          "155719.252500",
          "155720.742500",
          "155722.232500",
          "155723.722500",
          "155725.212500",
          "155726.702500",
          "155728.192500",
          "155729.682500",
          "155731.172500",
          "155732.662500",
          "155734.152500",
          "155735.642500",
          "155737.132500",
          "155738.622500",
          "155740.112500",
          "155741.602500",
          "155743.092500",
          "155744.582500",
          "155746.072500",
          "155747.562500",
          "155749.052500",
          "155750.542500",
          "155752.032500",
          "155753.522500",
          "155755.012500",
          "155756.502500",
          "155757.992500",
          "155759.482500",
          "155800.972500",
          "155802.462500",
          "155803.952500",
          "155805.442500",
          "155806.932500",
          "155808.422500",
          "155809.912500",
          "155811.402500",
          "155812.892500",
          "155814.382500",
          "155815.872500",
          "155817.362500",
          "155818.852500",
          "155820.342500",
          "155821.832500",
          "155823.322500",
          "155824.812500",
          "155826.302500",
          "155827.792500",
          "155829.282500",
          "155830.772500",
          "155832.262500",
          "155833.752500",
          "155835.242500",
          "155836.732500",
          "155838.222500",
          "155839.712500",
          "155841.202500",
          "155842.692500",
          "155844.182500",
          "155845.672500",
          "155847.162500",
          "155848.652500",
          "155850.142500",
          "155851.632500",
          "155853.122500",
          "155854.612500",
          "155856.102500",
          "155857.592500",
          "155859.082500",
          "155900.572500",
          "155902.062500",
          "155903.552500",
          "155905.042500",
          "155906.532500",
          "155908.022500",
          "155909.512500",
          "155911.002500",
          "155912.492500",
          "155913.982500",
          "155915.472500",
          "155916.962500",
          "155918.452500",
          "155919.942500",
          "155921.432500",
          "155922.922500",
          "155924.412500",
          "155925.902500",
          "155927.392500",
          "155928.882500",
          "155930.372500",
          "155931.862500",
          "155933.352500",
          "155934.842500",
          "155936.332500",
          "155937.822500",
          "155939.312500",
          "155940.802500",
          "155942.292500",
          "155943.782500",
          "155945.272500",
          "155946.762500",
          "155948.252500",
          "155949.742500",
          "155951.232500",
          "155952.722500",
          "155954.212500",
          "155955.702500",
          "155957.192500",
          "155958.682500",
          "160000.172500",
          "160001.662500",
          "160003.152500",
          "160004.642500",
          "160006.132500",
          "160007.622500",
          "160009.112500",
          "160010.602500",
          "160012.092500",
          "160013.582500",
          "160015.072500",
          "160016.562500",
          "160018.052500",
          "160019.542500",
          "160021.032500",
          "160022.522500",
          "160024.012500",
          "160025.502500",
          "160026.992500",
          "160028.482500",
          "160029.972500",
          "160031.462500",
          "160032.952500",
          "160034.442500",
          "160035.932500",
          "160037.422500",
          "160038.912500",
          "160040.402500",
          "160041.892500",
          "160043.382500",
          "160044.872500",
          "160046.362500",
          "160047.852500",
          "160049.342500",
          "160050.832500",
          "160052.322500",
          "160053.812500",
          "160055.302500",
          "160056.792500",
          "160058.282500",
          "160059.772500",
          "160101.262500",
          "160102.752500",
          "160104.242500",
          "160105.732500",
          "160107.222500",
          "160108.712500",
          "160110.202500",
          "160111.692500",
          "160113.182500",
          "160114.672500",
          "160116.162500",
          "160117.652500",
          "160119.142500",
          "160120.632500"
        ],
        "ContentTime": [
          "155225.851000",
          "155225.855000",
          "155225.858000",
          "155225.862000",
          "155225.865000",
          "155225.871000",
          "155225.874000",
          "155225.883000",
          "155225.886000",
          "155225.889000",
          "155225.897000",
          "155225.901000",
          "155225.904000",
          "155225.906000",
          "155225.919000",
          "155225.922000",
          "155225.925000",
          "155225.927000",
          "155225.930000",
          "155225.934000",
          "155245.815000",
          "155245.818000",
          "155245.821000",
          "155245.824000",
          "155245.827000",
          "155245.830000",
          "155245.833000",
          "155245.836000",
          "155245.839000",
          "155245.842000",
          "155245.845000",
          "155245.848000",
          "155245.851000",
          "155245.854000",
          "155245.857000",
          "155245.860000",
          "155245.863000",
          "155245.866000",
          "155245.873000",
          "155245.877000",
          "155245.881000",
          "155305.814000",
          "155305.817000",
          "155305.820000",
          "155305.823000",
          "155305.826000",
          "155305.829000",
          "155305.831000",
          "155305.834000",
          "155305.837000",
          "155305.840000",
          "155305.843000",
          "155305.846000",
          "155305.849000",
          "155305.852000",
          "155305.855000",
          "155305.858000",
          "155305.860000",
          "155305.863000",
          "155305.866000",
          "155305.869000",
          "155325.814000",
          "155325.817000",
          "155325.820000",
          "155325.832000",
          "155325.835000",
          "155325.838000",
          "155325.841000",
          "155325.844000",
          "155325.847000",
          "155325.849000",
          "155325.853000",
          "155325.855000",
          "155325.858000",
          "155325.861000",
          "155325.864000",
          "155325.867000",
          "155325.870000",
          "155325.873000",
          "155325.876000",
          "155325.879000",
          "155345.814000",
          "155345.817000",
          "155345.820000",
          "155345.823000",
          "155345.826000",
          "155345.829000",
          "155345.832000",
          "155345.835000",
          "155345.838000",
          "155345.841000",
          "155345.844000",
          "155345.847000",
          "155345.850000",
          "155345.853000",
          "155345.856000",
          "155345.859000",
          "155345.861000",
          "155345.864000",
          "155345.867000",
          "155345.870000",
          "155425.815000",
          "155425.818000",
          "155425.821000",
          "155425.824000",
          "155425.827000",
          "155425.830000",
          "155425.833000",
          "155425.836000",
          "155425.839000",
          "155425.842000",
          "155425.845000",
          "155425.848000",
          "155425.851000",
          "155425.854000",
          "155425.857000",
          "155425.860000",
          "155425.863000",
          "155425.866000",
          "155425.868000",
          "155425.871000",
          "155425.874000",
          "155425.877000",
          "155425.887000",
          "155425.890000",
          "155425.893000",
          "155425.896000",
          "155425.899000",
          "155425.901000",
          "155425.905000",
          "155505.815000",
          "155505.818000",
          "155505.821000",
          "155505.824000",
          "155505.827000",
          "155505.830000",
          "155505.833000",
          "155505.836000",
          "155505.839000",
          "155505.842000",
          "155505.845000",
          "155505.848000",
          "155505.851000",
          "155505.854000",
          "155505.857000",
          "155505.860000",
          "155505.863000",
          "155505.866000",
          "155505.869000",
          "155505.872000",
          "155505.875000",
          "155505.878000",
          "155505.880000",
          "155505.883000",
          "155505.886000",
          "155505.889000",
          "155505.892000",
          "155545.814000",
          "155545.817000",
          "155545.820000",
          "155545.823000",
          "155545.826000",
          "155545.837000",
          "155545.840000",
          "155545.843000",
          "155545.846000",
          "155545.849000",
          "155545.852000",
          "155545.855000",
          "155545.858000",
          "155545.861000",
          "155545.864000",
          "155545.867000",
          "155545.870000",
          "155545.873000",
          "155545.876000",
          "155545.879000",
          "155545.882000",
          "155545.885000",
          "155545.888000",
          "155545.891000",
          "155545.894000",
          "155545.897000",
          "155625.815000",
          "155625.818000",
          "155625.821000",
          "155625.824000",
          "155625.827000",
          "155625.830000",
          "155625.833000",
          "155625.836000",
          "155625.839000",
          "155625.842000",
          "155625.845000",
          "155625.848000",
          "155625.851000",
          "155625.854000",
          "155625.857000",
          "155625.860000",
          "155625.863000",
          "155625.865000",
          "155625.869000",
          "155625.871000",
          "155625.874000",
          "155625.877000",
          "155625.880000",
          "155625.883000",
          "155625.886000",
          "155625.889000",
          "155625.896000",
          "155645.815000",
          "155645.818000",
          "155645.821000",
          "155645.824000",
          "155645.827000",
          "155645.830000",
