{
  "aor": 0.0004923471882640587,
  "aqi": 0.006853124156479217,
  "bids_meta": {
    "AcquisitionMatrixPE": 104,
    "AcquisitionNumber": 1,
    "AcquisitionTime": "15:15:24.200000",
    "BandwidthPerPixelPhaseEncode": 17.17,
    "BaseResolution": 104,
    "BodyPartExamined": "BRAIN",
    "CogAtlasID": "trm_4c898da401420",
    "ConsistencyInfo": "N4_VE11C_LATEST_20160120",
    "ConversionSoftware": "dcm2niix",
    "ConversionSoftwareVersion": "v1.0.20171215 (OpenJPEG build) GCC7.3.0",
    "DerivedVendorReportedEchoSpacing": 0.000560011,
    "DeviceSerialNumber": "167006",
    "DwellTime": 2.1e-06,
    "EchoTime": 0.037,
    "EchoTrainLength": 104,
    "EffectiveEchoSpacing": 0.000560011,
    "FlipAngle": 52,
    "ImageComments": "Unaliased_MB4_PE3_LB",
    "ImageOrientationPatientDICOM": [
      0.999539,
      0.0272149,
      -0.0134844,
      -0.030364,
      0.885038,
      -0.464528
    ],
    "ImageType": [
      "ORIGINAL",
      "PRIMARY",
      "M",
      "MB",
      "ND",
      "MOSAIC"
    ],
    "InPlanePhaseEncodingDirectionDICOM": "COL",
    "InstitutionAddress": "Chemin_Queen-Mary_4565_Montreal_District_CA_H3W_1W5",
    "InstitutionName": "IUGM",
    "InstitutionalDepartmentName": "Department",
    "MRAcquisitionType": "2D",
    "MagneticFieldStrength": 3,
    "Manufacturer": "Siemens",
    "ManufacturersModelName": "Prisma_fit",
    "Modality": "MR",
    "MultibandAccelerationFactor": 4,
    "PartialFourier": 1,
    "PatientPosition": "HFS",
    "PercentPhaseFOV": 100,
    "PhaseEncodingDirection": "j-",
    "PhaseEncodingSteps": 104,
    "PhaseResolution": 1,
    "PixelBandwidth": 2290,
    "ProcedureStepDescription": "video5_generic",
    "ProtocolName": "func_task-figures4",
    "PulseSequenceDetails": "%CustomerSeq%_cmrr_mbep2d_bold",
    "ReceiveCoilActiveElements": "HC1-7;NC1,2",
    "ReceiveCoilName": "HeadNeck_64",
    "ReconMatrixPE": 104,
    "RepetitionTime": 1.49,
    "SAR": 0.0361091,
    "ScanOptions": "FS",
    "ScanningSequence": "EP",
    "SequenceName": "epfid2d1_104",
    "SequenceVariant": "SK_SS",
    "SeriesDescription": "func_task-figures4",
    "SeriesNumber": 19,
    "ShimSetting": [
      620,
      -7185,
      -8877,
      348,
      -6,
      -176,
      -3,
      -19
    ],
    "SliceThickness": 2,
    "SliceTiming": [
      0,
      0.7825,
      0.0975,
      0.88,
      0.195,
      0.98,
      0.2925,
      1.0775,
      0.3925,
      1.175,
      0.49,
      1.2725,
      0.5875,
      1.37,
      0.685,
      0,
      0.7825,
      0.0975,
      0.88,
      0.195,
      0.98,
      0.2925,
      1.0775,
      0.3925,
      1.175,
      0.49,
      1.2725,
      0.5875,
      1.37,
      0.685,
      0,
      0.7825,
      0.0975,
      0.88,
      0.195,
      0.98,
      0.2925,
      1.0775,
      0.3925,
      1.175,
      0.49,
      1.2725,
      0.5875,
      1.37,
      0.685,
      0,
      0.7825,
      0.0975,
      0.88,
      0.195,
      0.98,
      0.2925,
      1.0775,
      0.3925,
      1.175,
      0.49,
      1.2725,
      0.5875,
      1.37,
      0.685
    ],
    "SoftwareVersions": "syngo_MR_E11",
    "SpacingBetweenSlices": 2,
    "StationName": "MRC35049",
    "TaskName": "figures04",
    "TotalReadoutTime": 0.0576811,
    "TxRefAmp": 248.475,
    "dataset": "<unset>",
    "dcmmeta_affine": [
      [
        -1.999077320098877,
        -0.06072809547185898,
        0.0014158118283376098,
        109.10775756835938
      ],
      [
        -0.05442972853779793,
        1.7700754404067993,
        -0.929446280002594,
        -58.15526580810547
      ],
      [
        -0.026968704536557198,
        0.9290559887886047,
        1.7709115743637085,
        -93.81527709960938
      ],
      [
        0.0,
        0.0,
        0.0,
        1.0
      ]
    ],
    "dcmmeta_reorient_transform": [
      [
        0.0,
        -1.0,
        0.0,
        103.0
      ],
      [
        1.0,
        0.0,
        0.0,
        0.0
      ],
      [
        0.0,
        0.0,
        1.0,
        0.0
      ],
      [
        0.0,
        0.0,
        0.0,
        1.0
      ]
    ],
    "dcmmeta_shape": [
      104,
      104,
      60,
      410
    ],
    "dcmmeta_slice_dim": 2,
    "dcmmeta_version": 0.6,
    "global": {
      "const": {
        "AcquisitionMatrix": [
          104,
          0,
          0,
          104
        ],
        "AngioFlag": "N",
        "BitsAllocated": 16,
        "BitsStored": 16,
        "BodyPartExamined": "BRAIN",
        "Columns": 832,
        "EchoNumbers": 1,
        "EchoTime": 37.0,
        "EchoTrainLength": 104,
        "FlipAngle": 52.0,
        "HighBit": 15,
        "ImageOrientationPatient": [
          0.99953865529852,
          0.02721486372997,
          -0.0134843522716,
          -0.0303640483669,
          0.88503771675029,
          -0.464528001843
        ],
        "ImagePositionPatient": [
          -808.41187792275,
          -788.28238167027,
          349.87048608178
        ],
        "ImageType": [
          "ORIGINAL",
          "PRIMARY",
          "M",
          "MB",
          "ND",
          "MOSAIC"
        ],
        "ImagedNucleus": "1H",
        "ImagingFrequency": 123.258277,
        "InPlanePhaseEncodingDirection": "COL",
        "MRAcquisitionType": "2D",
        "MagneticFieldStrength": 3.0,
        "Manufacturer": "SIEMENS",
        "ManufacturerModelName": "Prisma_fit",
        "Modality": "MR",
        "NumberOfAverages": 1.0,
        "NumberOfPhaseEncodingSteps": 104,
        "PercentPhaseFieldOfView": 100.0,
        "PercentSampling": 100.0,
        "PerformedProcedureStepStartTime": "142709.721000",
        "PhotometricInterpretation": "MONOCHROME2",
        "PixelBandwidth": 2290.0,
        "PixelRepresentation": 0,
        "PixelSpacing": [
          2.0,
          2.0
        ],
        "ProtocolName": "func_task-figures4",
        "RepetitionTime": 1490.0,
        "Rows": 832,
        "SAR": 0.03610909203675,
        "SamplesPerPixel": 1,
        "ScanOptions": "FS",
        "ScanningSequence": "EP",
        "SequenceName": "epfid2d1_104",
        "SequenceVariant": [
          "SK",
          "SS"
        ],
        "SeriesDescription": "func_task-figures4",
        "SeriesNumber": 19,
        "SeriesTime": "151627.046000",
        "SliceLocation": -55.965941091133,
        "SliceThickness": 2.0,
        "SmallestImagePixelValue": 0,
        "SoftwareVersions": "syngo MR E11",
        "SpacingBetweenSlices": 2.0000000141746,
        "SpecificCharacterSet": "ISO_IR 100",
        "StudyID": "2",
        "StudyTime": "142709.656000",
        "TransmitCoilName": "Body",
        "VariableFlipAngleFlag": "N",
        "WindowCenterWidthExplanation": "Algo1",
        "dBdt": 0.0
      },
      "slices": {}
    },
    "modality": "bold",
    "run_id": 1,
    "session_id": "002",
    "subject_id": "02",
    "task_id": "figures04",
    "time": {
      "samples": {
        "AcquisitionNumber": [
          1,
          2,
          3,
          4,
          5,
          6,
          7,
          8,
          9,
          10,
          11,
          12,
          13,
          14,
          15,
          16,
          17,
          18,
          19,
          20,
          21,
          22,
          23,
          24,
          25,
          26,
          27,
          28,
          29,
          30,
          31,
          32,
          33,
          34,
          35,
          36,
          37,
          38,
          39,
          40,
          41,
          42,
          43,
          44,
          45,
          46,
          47,
          48,
          49,
          50,
          51,
          52,
          53,
          54,
          55,
          56,
          57,
          58,
          59,
          60,
          61,
          62,
          63,
          64,
          65,
          66,
          67,
          68,
          69,
          70,
          71,
          72,
          73,
          74,
          75,
          76,
          77,
          78,
          79,
          80,
          81,
          82,
          83,
          84,
          85,
          86,
          87,
          88,
          89,
          90,
          91,
          92,
          93,
          94,
          95,
          96,
          97,
          98,
          99,
          100,
          101,
          102,
          103,
          104,
          105,
          106,
          107,
          108,
          109,
          110,
          111,
          112,
          113,
          114,
          115,
          116,
          117,
          118,
          119,
          120,
          121,
          122,
          123,
          124,
          125,
          126,
          127,
          128,
          129,
          130,
          131,
          132,
          133,
          134,
          135,
          136,
          137,
          138,
          139,
          140,
          141,
          142,
          143,
          144,
          145,
          146,
          147,
          148,
          149,
          150,
          151,
          152,
          153,
          154,
          155,
          156,
          157,
          158,
          159,
          160,
          161,
          162,
          163,
          164,
          165,
          166,
          167,
          168,
          169,
          170,
          171,
          172,
          173,
          174,
          175,
          176,
          177,
          178,
          179,
          180,
          181,
          182,
          183,
          184,
          185,
          186,
          187,
          188,
          189,
          190,
          191,
          192,
          193,
          194,
          195,
          196,
          197,
          198,
          199,
          200,
          201,
          202,
          203,
          204,
          205,
          206,
          207,
          208,
          209,
          210,
          211,
          212,
          213,
          214,
          215,
          216,
          217,
          218,
          219,
          220,
          221,
          222,
          223,
          224,
          225,
          226,
          227,
          228,
          229,
          230,
          231,
          232,
          233,
          234,
          235,
          236,
          237,
          238,
          239,
          240,
          241,
          242,
          243,
          244,
          245,
          246,
          247,
          248,
          249,
          250,
          251,
          252,
          253,
          254,
          255,
          256,
          257,
          258,
          259,
          260,
          261,
          262,
          263,
          264,
          265,
          266,
          267,
          268,
          269,
          270,
          271,
          272,
          273,
          274,
          275,
          276,
          277,
          278,
          279,
          280,
          281,
          282,
          283,
          284,
          285,
          286,
          287,
          288,
          289,
          290,
          291,
          292,
          293,
          294,
          295,
          296,
          297,
          298,
          299,
          300,
          301,
          302,
          303,
          304,
          305,
          306,
          307,
          308,
          309,
          310,
          311,
          312,
          313,
          314,
          315,
          316,
          317,
          318,
          319,
          320,
          321,
          322,
          323,
          324,
          325,
          326,
          327,
          328,
          329,
          330,
          331,
          332,
          333,
          334,
          335,
          336,
          337,
          338,
          339,
          340,
          341,
          342,
          343,
          344,
          345,
          346,
          347,
          348,
          349,
          350,
          351,
          352,
          353,
          354,
          355,
          356,
          357,
          358,
          359,
          360,
          361,
          362,
          363,
          364,
          365,
          366,
          367,
          368,
          369,
          370,
          371,
          372,
          373,
          374,
          375,
          376,
          377,
          378,
          379,
          380,
          381,
          382,
          383,
          384,
          385,
          386,
          387,
          388,
          389,
          390,
          391,
          392,
          393,
          394,
          395,
          396,
          397,
          398,
          399,
          400,
          401,
          402,
          403,
          404,
          405,
          406,
          407,
          408,
          409,
          410
        ],
        "AcquisitionTime": [
          "151524.200000",
          "151525.690000",
          "151527.180000",
          "151528.670000",
          "151530.160000",
          "151531.650000",
          "151533.140000",
          "151534.630000",
          "151536.120000",
          "151537.610000",
          "151539.100000",
          "151540.590000",
          "151542.080000",
          "151543.570000",
          "151545.060000",
          "151546.550000",
          "151548.040000",
          "151549.530000",
          "151551.020000",
          "151552.510000",
          "151554.000000",
          "151555.490000",
          "151556.980000",
          "151558.470000",
          "151559.960000",
          "151601.450000",
          "151602.940000",
          "151604.430000",
          "151605.920000",
          "151607.410000",
          "151608.900000",
          "151610.390000",
          "151611.880000",
          "151613.370000",
          "151614.860000",
          "151616.350000",
          "151617.840000",
          "151619.330000",
          "151620.820000",
          "151622.310000",
          "151623.800000",
          "151625.290000",
          "151626.780000",
          "151628.270000",
          "151629.760000",
          "151631.250000",
          "151632.740000",
          "151634.230000",
          "151635.720000",
          "151637.210000",
          "151638.700000",
          "151640.190000",
          "151641.680000",
          "151643.170000",
          "151644.660000",
          "151646.150000",
          "151647.640000",
          "151649.130000",
          "151650.620000",
          "151652.110000",
          "151653.600000",
          "151655.090000",
          "151656.580000",
          "151658.070000",
          "151659.560000",
          "151701.050000",
          "151702.540000",
          "151704.030000",
          "151705.520000",
          "151707.010000",
          "151708.500000",
          "151709.990000",
          "151711.480000",
          "151712.970000",
          "151714.460000",
          "151715.950000",
          "151717.440000",
          "151718.930000",
          "151720.420000",
          "151721.910000",
          "151723.400000",
          "151724.890000",
          "151726.380000",
          "151727.870000",
          "151729.360000",
          "151730.850000",
          "151732.340000",
          "151733.830000",
          "151735.320000",
          "151736.810000",
          "151738.300000",
          "151739.790000",
          "151741.280000",
          "151742.770000",
          "151744.260000",
          "151745.750000",
          "151747.240000",
          "151748.730000",
          "151750.220000",
          "151751.710000",
          "151753.200000",
          "151754.690000",
          "151756.180000",
          "151757.670000",
          "151759.160000",
          "151800.650000",
          "151802.140000",
          "151803.630000",
          "151805.120000",
          "151806.610000",
          "151808.100000",
          "151809.590000",
          "151811.080000",
          "151812.570000",
          "151814.060000",
          "151815.550000",
          "151817.040000",
          "151818.530000",
          "151820.020000",
          "151821.510000",
          "151823.000000",
          "151824.490000",
          "151825.980000",
          "151827.470000",
          "151828.960000",
          "151830.450000",
          "151831.940000",
          "151833.430000",
          "151834.920000",
          "151836.410000",
          "151837.900000",
          "151839.390000",
          "151840.880000",
          "151842.370000",
          "151843.860000",
          "151845.350000",
          "151846.840000",
          "151848.330000",
          "151849.820000",
          "151851.310000",
          "151852.800000",
          "151854.290000",
          "151855.780000",
          "151857.270000",
          "151858.760000",
          "151900.250000",
          "151901.740000",
          "151903.230000",
          "151904.720000",
          "151906.210000",
          "151907.700000",
          "151909.190000",
          "151910.680000",
          "151912.170000",
          "151913.660000",
          "151915.150000",
          "151916.640000",
          "151918.130000",
          "151919.620000",
          "151921.110000",
          "151922.600000",
          "151924.090000",
          "151925.580000",
          "151927.070000",
          "151928.560000",
          "151930.050000",
          "151931.540000",
          "151933.030000",
          "151934.520000",
          "151936.010000",
          "151937.500000",
          "151938.990000",
          "151940.480000",
          "151941.970000",
          "151943.460000",
          "151944.950000",
          "151946.440000",
          "151947.930000",
          "151949.420000",
          "151950.910000",
          "151952.400000",
          "151953.890000",
          "151955.380000",
          "151956.870000",
          "151958.360000",
          "151959.850000",
          "152001.340000",
          "152002.830000",
          "152004.320000",
          "152005.810000",
          "152007.300000",
          "152008.790000",
          "152010.280000",
          "152011.770000",
          "152013.260000",
          "152014.750000",
          "152016.240000",
          "152017.730000",
          "152019.220000",
          "152020.710000",
          "152022.200000",
          "152023.690000",
          "152025.180000",
          "152026.670000",
          "152028.160000",
          "152029.650000",
          "152031.140000",
          "152032.630000",
          "152034.120000",
          "152035.610000",
          "152037.100000",
          "152038.590000",
          "152040.080000",
          "152041.570000",
          "152043.060000",
          "152044.550000",
          "152046.040000",
          "152047.530000",
          "152049.020000",
          "152050.510000",
          "152052.000000",
          "152053.490000",
          "152054.980000",
          "152056.470000",
          "152057.960000",
          "152059.450000",
          "152100.940000",
          "152102.430000",
          "152103.920000",
          "152105.410000",
          "152106.900000",
          "152108.390000",
          "152109.880000",
          "152111.370000",
          "152112.860000",
          "152114.350000",
          "152115.840000",
          "152117.330000",
          "152118.820000",
          "152120.310000",
          "152121.800000",
          "152123.290000",
          "152124.780000",
          "152126.270000",
          "152127.760000",
          "152129.250000",
          "152130.740000",
          "152132.230000",
          "152133.720000",
          "152135.210000",
          "152136.700000",
          "152138.190000",
          "152139.680000",
          "152141.170000",
          "152142.660000",
          "152144.150000",
          "152145.640000",
          "152147.130000",
          "152148.620000",
          "152150.110000",
          "152151.600000",
          "152153.090000",
          "152154.580000",
          "152156.070000",
          "152157.560000",
          "152159.050000",
          "152200.540000",
          "152202.030000",
          "152203.520000",
          "152205.010000",
          "152206.500000",
          "152207.990000",
          "152209.480000",
          "152210.970000",
          "152212.460000",
          "152213.950000",
          "152215.440000",
          "152216.930000",
          "152218.420000",
          "152219.910000",
          "152221.400000",
          "152222.890000",
          "152224.380000",
          "152225.870000",
          "152227.360000",
          "152228.850000",
          "152230.340000",
          "152231.830000",
          "152233.320000",
          "152234.810000",
          "152236.300000",
          "152237.790000",
          "152239.280000",
          "152240.770000",
          "152242.260000",
          "152243.750000",
          "152245.240000",
          "152246.730000",
          "152248.220000",
          "152249.710000",
          "152251.200000",
          "152252.690000",
          "152254.180000",
          "152255.670000",
          "152257.160000",
          "152258.650000",
          "152300.140000",
          "152301.630000",
          "152303.120000",
          "152304.610000",
          "152306.100000",
          "152307.590000",
          "152309.080000",
          "152310.570000",
          "152312.060000",
          "152313.550000",
          "152315.040000",
          "152316.530000",
          "152318.020000",
          "152319.510000",
          "152321.000000",
          "152322.490000",
          "152323.980000",
          "152325.470000",
          "152326.960000",
          "152328.450000",
          "152329.940000",
          "152331.430000",
          "152332.920000",
          "152334.410000",
          "152335.900000",
          "152337.390000",
          "152338.880000",
          "152340.370000",
          "152341.860000",
          "152343.350000",
          "152344.840000",
          "152346.330000",
          "152347.820000",
          "152349.310000",
          "152350.800000",
          "152352.290000",
          "152353.780000",
          "152355.270000",
          "152356.760000",
          "152358.250000",
          "152359.740000",
          "152401.230000",
          "152402.720000",
          "152404.210000",
          "152405.700000",
          "152407.190000",
          "152408.680000",
          "152410.170000",
          "152411.660000",
          "152413.150000",
          "152414.640000",
          "152416.130000",
          "152417.620000",
          "152419.110000",
          "152420.600000",
          "152422.090000",
          "152423.580000",
          "152425.070000",
          "152426.560000",
          "152428.050000",
          "152429.540000",
          "152431.030000",
          "152432.520000",
          "152434.010000",
          "152435.500000",
          "152436.990000",
          "152438.480000",
          "152439.970000",
          "152441.460000",
          "152442.950000",
          "152444.440000",
          "152445.930000",
          "152447.420000",
          "152448.910000",
          "152450.400000",
          "152451.890000",
          "152453.380000",
          "152454.870000",
          "152456.360000",
          "152457.850000",
          "152459.340000",
          "152500.830000",
          "152502.320000",
          "152503.810000",
          "152505.300000",
          "152506.790000",
          "152508.280000",
          "152509.770000",
          "152511.260000",
          "152512.750000",
          "152514.240000",
          "152515.730000",
          "152517.220000",
          "152518.710000",
          "152520.200000",
          "152521.690000",
          "152523.180000",
          "152524.670000",
          "152526.160000",
          "152527.650000",
          "152529.140000",
          "152530.630000",
          "152532.120000",
          "152533.610000"
        ],
        "ContentTime": [
          "151627.050000",
          "151627.062000",
          "151627.065000",
          "151627.068000",
          "151627.071000",
          "151627.074000",
          "151627.077000",
          "151647.016000",
          "151647.019000",
          "151647.025000",
          "151647.028000",
          "151647.031000",
          "151647.034000",
          "151647.038000",
          "151647.041000",
          "151647.044000",
          "151647.047000",
          "151647.050000",
          "151647.053000",
          "151647.056000",
          "151647.059000",
          "151647.067000",
          "151647.070000",
          "151647.073000",
          "151647.076000",
          "151647.079000",
          "151647.082000",
          "151707.016000",
          "151707.019000",
          "151707.022000",
          "151707.025000",
          "151707.028000",
          "151707.031000",
          "151707.034000",
          "151707.037000",
          "151707.039000",
          "151707.042000",
          "151707.045000",
          "151707.048000",
          "151707.051000",
          "151707.054000",
          "151707.057000",
          "151707.060000",
          "151707.063000",
          "151707.066000",
          "151707.069000",
          "151707.072000",
          "151727.017000",
          "151727.020000",
          "151727.023000",
          "151727.026000",
          "151727.029000",
          "151727.032000",
          "151727.035000",
          "151727.038000",
          "151727.041000",
          "151727.044000",
          "151727.046000",
          "151727.049000",
          "151727.052000",
          "151727.055000",
          "151727.058000",
          "151727.061000",
          "151727.064000",
          "151727.067000",
          "151727.070000",
          "151727.073000",
          "151747.017000",
          "151747.020000",
          "151747.023000",
          "151747.026000",
          "151747.035000",
          "151747.038000",
          "151747.041000",
          "151747.044000",
          "151747.047000",
          "151747.050000",
          "151747.061000",
          "151747.064000",
          "151747.067000",
          "151747.070000",
          "151747.073000",
          "151747.075000",
          "151747.079000",
          "151747.082000",
          "151747.084000",
          "151747.087000",
          "151747.090000",
          "151807.016000",
          "151807.019000",
          "151807.022000",
          "151807.025000",
          "151807.028000",
          "151807.031000",
          "151807.034000",
          "151807.037000",
          "151807.040000",
          "151807.043000",
          "151807.046000",
          "151807.049000",
          "151807.051000",
          "151807.054000",
          "151807.057000",
          "151807.060000",
          "151807.064000",
          "151807.067000",
          "151807.070000",
          "151807.072000",
          "151847.016000",
          "151847.019000",
          "151847.022000",
          "151847.025000",
          "151847.028000",
          "151847.031000",
          "151847.034000",
          "151847.037000",
          "151847.040000",
          "151847.043000",
          "151847.046000",
          "151847.049000",
          "151847.052000",
          "151847.065000",
          "151847.068000",
          "151847.071000",
          "151847.074000",
          "151847.077000",
          "151847.080000",
          "151847.083000",
          "151847.086000",
          "151847.089000",
          "151847.092000",
          "151847.095000",
          "151847.098000",
          "151847.101000",
          "151847.104000",
          "151927.016000",
          "151927.019000",
          "151927.022000",
          "151927.025000",
          "151927.028000",
          "151927.031000",
          "151927.034000",
          "151927.037000",
          "151927.040000",
          "151927.043000",
          "151927.046000",
          "151927.049000",
          "151927.051000",
          "151927.054000",
          "151927.057000",
          "151927.060000",
          "151927.063000",
          "151927.066000",
          "151927.069000",
          "151927.072000",
          "151927.075000",
          "151927.078000",
          "151927.081000",
          "151927.084000",
          "151927.087000",
          "151927.090000",
          "151927.093000",
          "152007.017000",
          "152007.021000",
          "152007.024000",
          "152007.027000",
          "152007.030000",
          "152007.033000",
          "152007.036000",
          "152007.039000",
          "152007.042000",
          "152007.045000",
          "152007.048000",
          "152007.051000",
          "152007.054000",
          "152007.057000",
          "152007.060000",
          "152007.063000",
          "152007.066000",
          "152007.069000",
          "152007.072000",
          "152007.075000",
          "152007.078000",
          "152007.081000",
          "152007.084000",
          "152007.087000",
          "152007.089000",
          "152007.092000",
          "152007.095000",
          "152047.016000",
          "152047.019000",
          "152047.023000",
          "152047.026000",
          "152047.029000",
          "152047.032000",
          "152047.035000",
          "152047.038000",
          "152047.043000",
          "152047.047000",
          "152047.051000",
          "152047.054000",
          "152047.057000",
          "152047.060000",
          "152047.064000",
          "152047.067000",
          "152047.070000",
          "152047.073000",
          "152047.076000",
          "152047.079000",
          "152047.082000",
          "152047.085000",
          "152047.088000",
          "152047.091000",
          "152047.094000",
          "152047.097000",
          "152127.016000",
