{
  "aor": 0.0009363414634146342,
  "aqi": 0.007332515365853659,
  "bids_meta": {
    "AcquisitionMatrixPE": 104,
    "AcquisitionNumber": 1,
    "AcquisitionTime": "14:43:13.630000",
    "BandwidthPerPixelPhaseEncode": 17.17,
    "BaseResolution": 104,
    "BodyPartExamined": "BRAIN",
    "CogAtlasID": "trm_4c898da401420",
    "ConsistencyInfo": "N4_VE11C_LATEST_20160120",
    "ConversionSoftware": "dcm2niix",
    "ConversionSoftwareVersion": "v1.0.20171215 (OpenJPEG build) GCC7.3.0",
    "DerivedVendorReportedEchoSpacing": 0.000560011,
    "DeviceSerialNumber": "167006",
    "DwellTime": 2.1e-06,
    "EchoTime": 0.037,
    "EchoTrainLength": 104,
    "EffectiveEchoSpacing": 0.000560011,
    "FlipAngle": 52,
    "ImageComments": "Unaliased_MB4_PE3_LB",
    "ImageOrientationPatientDICOM": [
      0.999539,
      0.0272149,
      -0.0134844,
      -0.030364,
      0.885038,
      -0.464528
    ],
    "ImageType": [
      "ORIGINAL",
      "PRIMARY",
      "M",
      "MB",
      "ND",
      "MOSAIC"
    ],
    "InPlanePhaseEncodingDirectionDICOM": "COL",
    "InstitutionAddress": "Chemin_Queen-Mary_4565_Montreal_District_CA_H3W_1W5",
    "InstitutionName": "IUGM",
    "InstitutionalDepartmentName": "Department",
    "MRAcquisitionType": "2D",
    "MagneticFieldStrength": 3,
    "Manufacturer": "Siemens",
    "ManufacturersModelName": "Prisma_fit",
    "Modality": "MR",
    "MultibandAccelerationFactor": 4,
    "PartialFourier": 1,
    "PatientPosition": "HFS",
    "PercentPhaseFOV": 100,
    "PhaseEncodingDirection": "j-",
    "PhaseEncodingSteps": 104,
    "PhaseResolution": 1,
    "PixelBandwidth": 2290,
    "ProcedureStepDescription": "video5_generic",
    "ProtocolName": "func_task-figures1",
    "PulseSequenceDetails": "%CustomerSeq%_cmrr_mbep2d_bold",
    "ReceiveCoilActiveElements": "HC1-7;NC1,2",
    "ReceiveCoilName": "HeadNeck_64",
    "ReconMatrixPE": 104,
    "RepetitionTime": 1.49,
    "SAR": 0.0361091,
    "ScanOptions": "FS",
    "ScanningSequence": "EP",
    "SequenceName": "epfid2d1_104",
    "SequenceVariant": "SK_SS",
    "SeriesDescription": "func_task-figures1",
    "SeriesNumber": 13,
    "ShimSetting": [
      620,
      -7185,
      -8877,
      348,
      -6,
      -176,
      -3,
      -19
    ],
    "SliceThickness": 2,
    "SliceTiming": [
      0,
      0.785,
      0.1,
      0.8825,
      0.1975,
      0.98,
      0.295,
      1.08,
      0.3925,
      1.1775,
      0.49,
      1.275,
      0.59,
      1.3725,
      0.6875,
      0,
      0.785,
      0.1,
      0.8825,
      0.1975,
      0.98,
      0.295,
      1.08,
      0.3925,
      1.1775,
      0.49,
      1.275,
      0.59,
      1.3725,
      0.6875,
      0,
      0.785,
      0.1,
      0.8825,
      0.1975,
      0.98,
      0.295,
      1.08,
      0.3925,
      1.1775,
      0.49,
      1.275,
      0.59,
      1.3725,
      0.6875,
      0,
      0.785,
      0.1,
      0.8825,
      0.1975,
      0.98,
      0.295,
      1.08,
      0.3925,
      1.1775,
      0.49,
      1.275,
      0.59,
      1.3725,
      0.6875
    ],
    "SoftwareVersions": "syngo_MR_E11",
    "SpacingBetweenSlices": 2,
    "StationName": "MRC35049",
    "TaskName": "figures01",
    "TotalReadoutTime": 0.0576811,
    "TxRefAmp": 248.475,
    "dataset": "<unset>",
    "dcmmeta_affine": [
      [
        -1.999077320098877,
        -0.06072809547185898,
        0.0014158118283376098,
        109.10775756835938
      ],
      [
        -0.05442972853779793,
        1.7700754404067993,
        -0.929446280002594,
        -58.15526580810547
      ],
      [
        -0.026968704536557198,
        0.9290559887886047,
        1.7709115743637085,
        -93.81527709960938
      ],
      [
        0.0,
        0.0,
        0.0,
        1.0
      ]
    ],
    "dcmmeta_reorient_transform": [
      [
        0.0,
        -1.0,
        0.0,
        103.0
      ],
      [
        1.0,
        0.0,
        0.0,
        0.0
      ],
      [
        0.0,
        0.0,
        1.0,
        0.0
      ],
      [
        0.0,
        0.0,
        0.0,
        1.0
      ]
    ],
    "dcmmeta_shape": [
      104,
      104,
      60,
      410
    ],
    "dcmmeta_slice_dim": 2,
    "dcmmeta_version": 0.6,
    "global": {
      "const": {
        "AcquisitionMatrix": [
          104,
          0,
          0,
          104
        ],
        "AngioFlag": "N",
        "BitsAllocated": 16,
        "BitsStored": 16,
        "BodyPartExamined": "BRAIN",
        "Columns": 832,
        "EchoNumbers": 1,
        "EchoTime": 37.0,
        "EchoTrainLength": 104,
        "FlipAngle": 52.0,
        "HighBit": 15,
        "ImageOrientationPatient": [
          0.99953865529852,
          0.02721486372997,
          -0.0134843522716,
          -0.0303640483669,
          0.88503771675029,
          -0.464528001843
        ],
        "ImagePositionPatient": [
          -808.41187792275,
          -788.28238167027,
          349.87048608178
        ],
        "ImageType": [
          "ORIGINAL",
          "PRIMARY",
          "M",
          "MB",
          "ND",
          "MOSAIC"
        ],
        "ImagedNucleus": "1H",
        "ImagingFrequency": 123.258255,
        "InPlanePhaseEncodingDirection": "COL",
        "MRAcquisitionType": "2D",
        "MagneticFieldStrength": 3.0,
        "Manufacturer": "SIEMENS",
        "ManufacturerModelName": "Prisma_fit",
        "Modality": "MR",
        "NumberOfAverages": 1.0,
        "NumberOfPhaseEncodingSteps": 104,
        "PercentPhaseFieldOfView": 100.0,
        "PercentSampling": 100.0,
        "PerformedProcedureStepStartTime": "142709.721000",
        "PhotometricInterpretation": "MONOCHROME2",
        "PixelBandwidth": 2290.0,
        "PixelRepresentation": 0,
        "PixelSpacing": [
          2.0,
          2.0
        ],
        "ProtocolName": "func_task-figures1",
        "RepetitionTime": 1490.0,
        "Rows": 832,
        "SAR": 0.03610909203675,
        "SamplesPerPixel": 1,
        "ScanOptions": "FS",
        "ScanningSequence": "EP",
        "SequenceName": "epfid2d1_104",
        "SequenceVariant": [
          "SK",
          "SS"
        ],
        "SeriesDescription": "func_task-figures1",
        "SeriesNumber": 13,
        "SeriesTime": "144447.043000",
        "SliceLocation": -55.965941091133,
        "SliceThickness": 2.0,
        "SmallestImagePixelValue": 0,
        "SoftwareVersions": "syngo MR E11",
        "SpacingBetweenSlices": 2.0000000141746,
        "SpecificCharacterSet": "ISO_IR 100",
        "StudyID": "2",
        "StudyTime": "142709.656000",
        "TransmitCoilName": "Body",
        "VariableFlipAngleFlag": "N",
        "WindowCenterWidthExplanation": "Algo1",
        "dBdt": 0.0
      },
      "slices": {}
    },
    "modality": "bold",
    "run_id": 1,
    "session_id": "002",
    "subject_id": "02",
    "task_id": "figures01",
    "time": {
      "samples": {
        "AcquisitionNumber": [
          1,
          2,
          3,
          4,
          5,
          6,
          7,
          8,
          9,
          10,
          11,
          12,
          13,
          14,
          15,
          16,
          17,
          18,
          19,
          20,
          21,
          22,
          23,
          24,
          25,
          26,
          27,
          28,
          29,
          30,
          31,
          32,
          33,
          34,
          35,
          36,
          37,
          38,
          39,
          40,
          41,
          42,
          43,
          44,
          45,
          46,
          47,
          48,
          49,
          50,
          51,
          52,
          53,
          54,
          55,
          56,
          57,
          58,
          59,
          60,
          61,
          62,
          63,
          64,
          65,
          66,
          67,
          68,
          69,
          70,
          71,
          72,
          73,
          74,
          75,
          76,
          77,
          78,
          79,
          80,
          81,
          82,
          83,
          84,
          85,
          86,
          87,
          88,
          89,
          90,
          91,
          92,
          93,
          94,
          95,
          96,
          97,
          98,
          99,
          100,
          101,
          102,
          103,
          104,
          105,
          106,
          107,
          108,
          109,
          110,
          111,
          112,
          113,
          114,
          115,
          116,
          117,
          118,
          119,
          120,
          121,
          122,
          123,
          124,
          125,
          126,
          127,
          128,
          129,
          130,
          131,
          132,
          133,
          134,
          135,
          136,
          137,
          138,
          139,
          140,
          141,
          142,
          143,
          144,
          145,
          146,
          147,
          148,
          149,
          150,
          151,
          152,
          153,
          154,
          155,
          156,
          157,
          158,
          159,
          160,
          161,
          162,
          163,
          164,
          165,
          166,
          167,
          168,
          169,
          170,
          171,
          172,
          173,
          174,
          175,
          176,
          177,
          178,
          179,
          180,
          181,
          182,
          183,
          184,
          185,
          186,
          187,
          188,
          189,
          190,
          191,
          192,
          193,
          194,
          195,
          196,
          197,
          198,
          199,
          200,
          201,
          202,
          203,
          204,
          205,
          206,
          207,
          208,
          209,
          210,
          211,
          212,
          213,
          214,
          215,
          216,
          217,
          218,
          219,
          220,
          221,
          222,
          223,
          224,
          225,
          226,
          227,
          228,
          229,
          230,
          231,
          232,
          233,
          234,
          235,
          236,
          237,
          238,
          239,
          240,
          241,
          242,
          243,
          244,
          245,
          246,
          247,
          248,
          249,
          250,
          251,
          252,
          253,
          254,
          255,
          256,
          257,
          258,
          259,
          260,
          261,
          262,
          263,
          264,
          265,
          266,
          267,
          268,
          269,
          270,
          271,
          272,
          273,
          274,
          275,
          276,
          277,
          278,
          279,
          280,
          281,
          282,
          283,
          284,
          285,
          286,
          287,
          288,
          289,
          290,
          291,
          292,
          293,
          294,
          295,
          296,
          297,
          298,
          299,
          300,
          301,
          302,
          303,
          304,
          305,
          306,
          307,
          308,
          309,
          310,
          311,
          312,
          313,
          314,
          315,
          316,
          317,
          318,
          319,
          320,
          321,
          322,
          323,
          324,
          325,
          326,
          327,
          328,
          329,
          330,
          331,
          332,
          333,
          334,
          335,
          336,
          337,
          338,
          339,
          340,
          341,
          342,
          343,
          344,
          345,
          346,
          347,
          348,
          349,
          350,
          351,
          352,
          353,
          354,
          355,
          356,
          357,
          358,
          359,
          360,
          361,
          362,
          363,
          364,
          365,
          366,
          367,
          368,
          369,
          370,
          371,
          372,
          373,
          374,
          375,
          376,
          377,
          378,
          379,
          380,
          381,
          382,
          383,
          384,
          385,
          386,
          387,
          388,
          389,
          390,
          391,
          392,
          393,
          394,
          395,
          396,
          397,
          398,
          399,
          400,
          401,
          402,
          403,
          404,
          405,
          406,
          407,
          408,
          409,
          410
        ],
        "AcquisitionTime": [
          "144313.630000",
          "144315.120000",
          "144316.610000",
          "144318.100000",
          "144319.590000",
          "144321.080000",
          "144322.570000",
          "144324.060000",
          "144325.550000",
          "144327.040000",
          "144328.530000",
          "144330.020000",
          "144331.510000",
          "144333.000000",
          "144334.490000",
          "144335.980000",
          "144337.470000",
          "144338.960000",
          "144340.450000",
          "144341.940000",
          "144343.430000",
          "144344.920000",
          "144346.410000",
          "144347.900000",
          "144349.390000",
          "144350.880000",
          "144352.370000",
          "144353.860000",
          "144355.350000",
          "144356.840000",
          "144358.330000",
          "144359.820000",
          "144401.310000",
          "144402.800000",
          "144404.290000",
          "144405.780000",
          "144407.270000",
          "144408.760000",
          "144410.250000",
          "144411.740000",
          "144413.230000",
          "144414.720000",
          "144416.210000",
          "144417.700000",
          "144419.190000",
          "144420.680000",
          "144422.170000",
          "144423.660000",
          "144425.150000",
          "144426.640000",
          "144428.130000",
          "144429.620000",
          "144431.110000",
          "144432.600000",
          "144434.090000",
          "144435.580000",
          "144437.070000",
          "144438.560000",
          "144440.050000",
          "144441.540000",
          "144443.030000",
          "144444.520000",
          "144446.010000",
          "144447.500000",
          "144448.990000",
          "144450.480000",
          "144451.970000",
          "144453.460000",
          "144454.950000",
          "144456.440000",
          "144457.930000",
          "144459.420000",
          "144500.910000",
          "144502.400000",
          "144503.890000",
          "144505.380000",
          "144506.870000",
          "144508.360000",
          "144509.850000",
          "144511.340000",
          "144512.830000",
          "144514.320000",
          "144515.810000",
          "144517.300000",
          "144518.790000",
          "144520.280000",
          "144521.770000",
          "144523.260000",
          "144524.750000",
          "144526.240000",
          "144527.730000",
          "144529.220000",
          "144530.710000",
          "144532.200000",
          "144533.690000",
          "144535.180000",
          "144536.670000",
          "144538.160000",
          "144539.650000",
          "144541.140000",
          "144542.630000",
          "144544.120000",
          "144545.610000",
          "144547.100000",
          "144548.590000",
          "144550.080000",
          "144551.570000",
          "144553.060000",
          "144554.550000",
          "144556.040000",
          "144557.530000",
          "144559.020000",
          "144600.510000",
          "144602.000000",
          "144603.490000",
          "144604.980000",
          "144606.470000",
          "144607.960000",
          "144609.450000",
          "144610.940000",
          "144612.430000",
          "144613.920000",
          "144615.410000",
          "144616.900000",
          "144618.390000",
          "144619.880000",
          "144621.370000",
          "144622.860000",
          "144624.350000",
          "144625.840000",
          "144627.330000",
          "144628.820000",
          "144630.310000",
          "144631.800000",
          "144633.290000",
          "144634.780000",
          "144636.270000",
          "144637.760000",
          "144639.250000",
          "144640.740000",
          "144642.230000",
          "144643.720000",
          "144645.210000",
          "144646.700000",
          "144648.190000",
          "144649.680000",
          "144651.170000",
          "144652.660000",
          "144654.150000",
          "144655.640000",
          "144657.130000",
          "144658.620000",
          "144700.110000",
          "144701.600000",
          "144703.090000",
          "144704.580000",
          "144706.070000",
          "144707.560000",
          "144709.050000",
          "144710.540000",
          "144712.030000",
          "144713.520000",
          "144715.010000",
          "144716.500000",
          "144717.990000",
          "144719.480000",
          "144720.970000",
          "144722.460000",
          "144723.950000",
          "144725.440000",
          "144726.930000",
          "144728.420000",
          "144729.910000",
          "144731.400000",
          "144732.890000",
          "144734.380000",
          "144735.870000",
          "144737.360000",
          "144738.850000",
          "144740.340000",
          "144741.830000",
          "144743.320000",
          "144744.810000",
          "144746.300000",
          "144747.790000",
          "144749.280000",
          "144750.770000",
          "144752.260000",
          "144753.750000",
          "144755.240000",
          "144756.730000",
          "144758.220000",
          "144759.710000",
          "144801.200000",
          "144802.690000",
          "144804.180000",
          "144805.670000",
          "144807.160000",
          "144808.650000",
          "144810.140000",
          "144811.630000",
          "144813.120000",
          "144814.610000",
          "144816.100000",
          "144817.590000",
          "144819.080000",
          "144820.570000",
          "144822.060000",
          "144823.550000",
          "144825.040000",
          "144826.530000",
          "144828.020000",
          "144829.510000",
          "144831.000000",
          "144832.490000",
          "144833.980000",
          "144835.470000",
          "144836.960000",
          "144838.450000",
          "144839.940000",
          "144841.430000",
          "144842.920000",
          "144844.410000",
          "144845.900000",
          "144847.390000",
          "144848.880000",
          "144850.370000",
          "144851.860000",
          "144853.350000",
          "144854.840000",
          "144856.330000",
          "144857.820000",
          "144859.310000",
          "144900.800000",
          "144902.290000",
          "144903.780000",
          "144905.270000",
          "144906.760000",
          "144908.250000",
          "144909.740000",
          "144911.230000",
          "144912.720000",
          "144914.210000",
          "144915.700000",
          "144917.190000",
          "144918.680000",
          "144920.170000",
          "144921.660000",
          "144923.150000",
          "144924.640000",
          "144926.130000",
          "144927.620000",
          "144929.110000",
          "144930.600000",
          "144932.090000",
          "144933.580000",
          "144935.070000",
          "144936.560000",
          "144938.050000",
          "144939.540000",
          "144941.030000",
          "144942.520000",
          "144944.010000",
          "144945.500000",
          "144946.990000",
          "144948.480000",
          "144949.970000",
          "144951.460000",
          "144952.950000",
          "144954.440000",
          "144955.930000",
          "144957.420000",
          "144958.910000",
          "145000.400000",
          "145001.890000",
          "145003.380000",
          "145004.870000",
          "145006.360000",
          "145007.850000",
          "145009.340000",
          "145010.830000",
          "145012.320000",
          "145013.810000",
          "145015.300000",
          "145016.790000",
          "145018.280000",
          "145019.770000",
          "145021.260000",
          "145022.750000",
          "145024.240000",
          "145025.730000",
          "145027.220000",
          "145028.710000",
          "145030.200000",
          "145031.690000",
          "145033.180000",
          "145034.670000",
          "145036.160000",
          "145037.650000",
          "145039.140000",
          "145040.630000",
          "145042.120000",
          "145043.610000",
          "145045.100000",
          "145046.590000",
          "145048.080000",
          "145049.570000",
          "145051.060000",
          "145052.550000",
          "145054.040000",
          "145055.530000",
          "145057.020000",
          "145058.510000",
          "145100.000000",
          "145101.490000",
          "145102.980000",
          "145104.470000",
          "145105.960000",
          "145107.450000",
          "145108.940000",
          "145110.430000",
          "145111.920000",
          "145113.410000",
          "145114.900000",
          "145116.390000",
          "145117.880000",
          "145119.370000",
          "145120.860000",
          "145122.350000",
          "145123.840000",
          "145125.330000",
          "145126.820000",
          "145128.310000",
          "145129.800000",
          "145131.290000",
          "145132.780000",
          "145134.270000",
          "145135.760000",
          "145137.250000",
          "145138.740000",
          "145140.230000",
          "145141.720000",
          "145143.210000",
          "145144.700000",
          "145146.190000",
          "145147.680000",
          "145149.170000",
          "145150.660000",
          "145152.150000",
          "145153.640000",
          "145155.130000",
          "145156.620000",
          "145158.110000",
          "145159.600000",
          "145201.090000",
          "145202.580000",
          "145204.070000",
          "145205.560000",
          "145207.050000",
          "145208.540000",
          "145210.030000",
          "145211.520000",
          "145213.010000",
          "145214.500000",
          "145215.990000",
          "145217.480000",
          "145218.970000",
          "145220.460000",
          "145221.950000",
          "145223.440000",
          "145224.930000",
          "145226.420000",
          "145227.910000",
          "145229.400000",
          "145230.890000",
          "145232.380000",
          "145233.870000",
          "145235.360000",
          "145236.850000",
          "145238.340000",
          "145239.830000",
          "145241.320000",
          "145242.810000",
          "145244.300000",
          "145245.790000",
          "145247.280000",
          "145248.770000",
          "145250.260000",
          "145251.750000",
          "145253.240000",
          "145254.730000",
          "145256.220000",
          "145257.710000",
          "145259.200000",
          "145300.690000",
          "145302.180000",
          "145303.670000",
          "145305.160000",
          "145306.650000",
          "145308.140000",
          "145309.630000",
          "145311.120000",
          "145312.610000",
          "145314.100000",
          "145315.590000",
          "145317.080000",
          "145318.570000",
          "145320.060000",
          "145321.550000",
          "145323.040000"
        ],
        "ContentTime": [
          "144447.046000",
          "144447.049000",
          "144447.057000",
          "144447.060000",
          "144447.063000",
          "144447.067000",
          "144447.071000",
          "144447.075000",
          "144447.078000",
          "144447.081000",
          "144447.083000",
          "144447.086000",
          "144447.089000",
          "144447.092000",
          "144447.095000",
          "144447.098000",
          "144447.101000",
          "144447.104000",
          "144447.107000",
          "144447.110000",
          "144447.113000",
          "144447.116000",
          "144447.119000",
          "144447.124000",
          "144447.127000",
          "144447.130000",
          "144447.133000",
          "144447.136000",
          "144447.139000",
          "144447.142000",
          "144447.145000",
          "144447.148000",
          "144447.151000",
          "144447.153000",
          "144447.156000",
          "144447.159000",
          "144447.162000",
          "144447.165000",
          "144447.168000",
          "144507.017000",
          "144507.020000",
          "144507.031000",
          "144507.034000",
          "144507.037000",
          "144507.040000",
          "144507.043000",
          "144507.046000",
          "144507.049000",
          "144507.052000",
          "144507.055000",
          "144507.058000",
          "144507.074000",
          "144507.077000",
          "144507.080000",
          "144507.083000",
          "144507.086000",
          "144507.089000",
          "144507.091000",
          "144507.094000",
          "144507.097000",
          "144527.017000",
          "144527.020000",
          "144527.023000",
          "144527.026000",
          "144527.029000",
          "144527.032000",
          "144527.035000",
          "144527.038000",
          "144527.041000",
          "144527.044000",
          "144527.047000",
          "144527.050000",
          "144527.053000",
          "144527.056000",
          "144527.059000",
          "144527.062000",
          "144527.065000",
          "144527.068000",
          "144527.071000",
          "144527.074000",
          "144547.016000",
          "144547.019000",
          "144547.022000",
          "144547.025000",
          "144547.028000",
          "144547.031000",
          "144547.034000",
          "144547.037000",
          "144547.040000",
          "144547.043000",
          "144547.046000",
          "144547.049000",
          "144547.052000",
          "144547.054000",
          "144547.057000",
          "144547.066000",
          "144547.069000",
          "144547.072000",
          "144547.075000",
          "144547.077000",
          "144627.016000",
          "144627.019000",
          "144627.022000",
          "144627.025000",
          "144627.028000",
          "144627.031000",
          "144627.034000",
          "144627.037000",
          "144627.040000",
          "144627.043000",
          "144627.046000",
          "144627.049000",
          "144627.052000",
          "144627.055000",
          "144627.058000",
          "144627.061000",
          "144627.064000",
          "144627.067000",
          "144627.070000",
          "144627.073000",
          "144627.084000",
          "144627.087000",
          "144627.090000",
          "144627.092000",
          "144627.095000",
          "144627.098000",
          "144627.101000",
          "144627.104000",
          "144627.107000",
          "144707.016000",
          "144707.019000",
          "144707.022000",
          "144707.025000",
          "144707.028000",
          "144707.031000",
          "144707.034000",
          "144707.037000",
          "144707.040000",
          "144707.043000",
          "144707.045000",
          "144707.048000",
          "144707.051000",
          "144707.054000",
          "144707.057000",
          "144707.060000",
          "144707.063000",
          "144707.066000",
          "144707.069000",
          "144707.072000",
          "144707.075000",
          "144707.078000",
          "144707.081000",
          "144707.084000",
          "144707.086000",
          "144707.089000",
          "144707.092000",
          "144747.017000",
          "144747.020000",
          "144747.023000",
          "144747.026000",
          "144747.029000",
          "144747.032000",
          "144747.035000",
          "144747.038000",
          "144747.041000",
          "144747.044000",
          "144747.046000",
          "144747.049000",
          "144747.052000",
          "144747.055000",
          "144747.058000",
          "144747.061000",
          "144747.064000",
          "144747.067000",
          "144747.070000",
          "144747.073000",
          "144747.076000",
          "144747.079000",
          "144747.082000",
          "144747.085000",
          "144747.088000",
          "144747.090000",
          "144747.093000",
          "144827.016000",
          "144827.019000",
          "144827.022000",
          "144827.025000",
          "144827.028000",
          "144827.031000",
          "144827.034000",
          "144827.037000",
          "144827.040000",
          "144827.043000",
          "144827.046000",
          "144827.049000",
          "144827.052000",
          "144827.055000",
          "144827.058000",
          "144827.061000",
          "144827.064000",
          "144827.067000",
          "144827.070000",
          "144827.072000",
          "144827.075000",
          "144827.078000",
          "144827.081000",
          "144827.084000",
          "144827.087000",
          "144827.090000",
          "144907.016000",
          "144907.019000",
          "144907.022000",
          "144907.025000",
          "144907.028000",
          "144907.031000",
          "144907.034000",
          "144907.037000",
