{
  "aor": 0.000858341463414634,
  "aqi": 0.007226142609756098,
  "bids_meta": {
    "AcquisitionMatrixPE": 104,
    "AcquisitionNumber": 1,
    "AcquisitionTime": "14:54:8.862500",
    "BandwidthPerPixelPhaseEncode": 17.17,
    "BaseResolution": 104,
    "BodyPartExamined": "BRAIN",
    "CogAtlasID": "trm_4c898da401420",
    "ConsistencyInfo": "N4_VE11C_LATEST_20160120",
    "ConversionSoftware": "dcm2niix",
    "ConversionSoftwareVersion": "v1.0.20171215 (OpenJPEG build) GCC7.3.0",
    "DerivedVendorReportedEchoSpacing": 0.000560011,
    "DeviceSerialNumber": "167006",
    "DwellTime": 2.1e-06,
    "EchoTime": 0.037,
    "EchoTrainLength": 104,
    "EffectiveEchoSpacing": 0.000560011,
    "FlipAngle": 52,
    "ImageComments": "Unaliased_MB4_PE3_LB",
    "ImageOrientationPatientDICOM": [
      0.999539,
      0.0272149,
      -0.0134844,
      -0.030364,
      0.885038,
      -0.464528
    ],
    "ImageType": [
      "ORIGINAL",
      "PRIMARY",
      "M",
      "MB",
      "ND",
      "MOSAIC"
    ],
    "InPlanePhaseEncodingDirectionDICOM": "COL",
    "InstitutionAddress": "Chemin_Queen-Mary_4565_Montreal_District_CA_H3W_1W5",
    "InstitutionName": "IUGM",
    "InstitutionalDepartmentName": "Department",
    "MRAcquisitionType": "2D",
    "MagneticFieldStrength": 3,
    "Manufacturer": "Siemens",
    "ManufacturersModelName": "Prisma_fit",
    "Modality": "MR",
    "MultibandAccelerationFactor": 4,
    "PartialFourier": 1,
    "PatientPosition": "HFS",
    "PercentPhaseFOV": 100,
    "PhaseEncodingDirection": "j-",
    "PhaseEncodingSteps": 104,
    "PhaseResolution": 1,
    "PixelBandwidth": 2290,
    "ProcedureStepDescription": "video5_generic",
    "ProtocolName": "func_task-figures2",
    "PulseSequenceDetails": "%CustomerSeq%_cmrr_mbep2d_bold",
    "ReceiveCoilActiveElements": "HC1-7;NC1,2",
    "ReceiveCoilName": "HeadNeck_64",
    "ReconMatrixPE": 104,
    "RepetitionTime": 1.49,
    "SAR": 0.0361091,
    "ScanOptions": "FS",
    "ScanningSequence": "EP",
    "SequenceName": "epfid2d1_104",
    "SequenceVariant": "SK_SS",
    "SeriesDescription": "func_task-figures2",
    "SeriesNumber": 15,
    "ShimSetting": [
      620,
      -7185,
      -8877,
      348,
      -6,
      -176,
      -3,
      -19
    ],
    "SliceThickness": 2,
    "SliceTiming": [
      0,
      0.785,
      0.1,
      0.8825,
      0.1975,
      0.98,
      0.295,
      1.08,
      0.3925,
      1.1775,
      0.49,
      1.275,
      0.59,
      1.3725,
      0.6875,
      0,
      0.785,
      0.1,
      0.8825,
      0.1975,
      0.98,
      0.295,
      1.08,
      0.3925,
      1.1775,
      0.49,
      1.275,
      0.59,
      1.3725,
      0.6875,
      0,
      0.785,
      0.1,
      0.8825,
      0.1975,
      0.98,
      0.295,
      1.08,
      0.3925,
      1.1775,
      0.49,
      1.275,
      0.59,
      1.3725,
      0.6875,
      0,
      0.785,
      0.1,
      0.8825,
      0.1975,
      0.98,
      0.295,
      1.08,
      0.3925,
      1.1775,
      0.49,
      1.275,
      0.59,
      1.3725,
      0.6875
    ],
    "SoftwareVersions": "syngo_MR_E11",
    "SpacingBetweenSlices": 2,
    "StationName": "MRC35049",
    "TaskName": "figures02",
    "TotalReadoutTime": 0.0576811,
    "TxRefAmp": 248.475,
    "dataset": "<unset>",
    "dcmmeta_affine": [
      [
        -1.999077320098877,
        -0.06072809547185898,
        0.0014158118283376098,
        109.10775756835938
      ],
      [
        -0.05442972853779793,
        1.7700754404067993,
        -0.929446280002594,
        -58.15526580810547
      ],
      [
        -0.026968704536557198,
        0.9290559887886047,
        1.7709115743637085,
        -93.81527709960938
      ],
      [
        0.0,
        0.0,
        0.0,
        1.0
      ]
    ],
    "dcmmeta_reorient_transform": [
      [
        0.0,
        -1.0,
        0.0,
        103.0
      ],
      [
        1.0,
        0.0,
        0.0,
        0.0
      ],
      [
        0.0,
        0.0,
        1.0,
        0.0
      ],
      [
        0.0,
        0.0,
        0.0,
        1.0
      ]
    ],
    "dcmmeta_shape": [
      104,
      104,
      60,
      410
    ],
    "dcmmeta_slice_dim": 2,
    "dcmmeta_version": 0.6,
    "global": {
      "const": {
        "AcquisitionMatrix": [
          104,
          0,
          0,
          104
        ],
        "AngioFlag": "N",
        "BitsAllocated": 16,
        "BitsStored": 16,
        "BodyPartExamined": "BRAIN",
        "Columns": 832,
        "EchoNumbers": 1,
        "EchoTime": 37.0,
        "EchoTrainLength": 104,
        "FlipAngle": 52.0,
        "HighBit": 15,
        "ImageOrientationPatient": [
          0.99953865529852,
          0.02721486372997,
          -0.0134843522716,
          -0.0303640483669,
          0.88503771675029,
          -0.464528001843
        ],
        "ImagePositionPatient": [
          -808.41187792275,
          -788.28238167027,
          349.87048608178
        ],
        "ImageType": [
          "ORIGINAL",
          "PRIMARY",
          "M",
          "MB",
          "ND",
          "MOSAIC"
        ],
        "ImagedNucleus": "1H",
        "ImagingFrequency": 123.258266,
        "InPlanePhaseEncodingDirection": "COL",
        "MRAcquisitionType": "2D",
        "MagneticFieldStrength": 3.0,
        "Manufacturer": "SIEMENS",
        "ManufacturerModelName": "Prisma_fit",
        "Modality": "MR",
        "NumberOfAverages": 1.0,
        "NumberOfPhaseEncodingSteps": 104,
        "PercentPhaseFieldOfView": 100.0,
        "PercentSampling": 100.0,
        "PerformedProcedureStepStartTime": "142709.721000",
        "PhotometricInterpretation": "MONOCHROME2",
        "PixelBandwidth": 2290.0,
        "PixelRepresentation": 0,
        "PixelSpacing": [
          2.0,
          2.0
        ],
        "ProtocolName": "func_task-figures2",
        "RepetitionTime": 1490.0,
        "Rows": 832,
        "SAR": 0.03610909203675,
        "SamplesPerPixel": 1,
        "ScanOptions": "FS",
        "ScanningSequence": "EP",
        "SequenceName": "epfid2d1_104",
        "SequenceVariant": [
          "SK",
          "SS"
        ],
        "SeriesDescription": "func_task-figures2",
        "SeriesNumber": 15,
        "SeriesTime": "145532.594000",
        "SliceLocation": -55.965941091133,
        "SliceThickness": 2.0,
        "SmallestImagePixelValue": 0,
        "SoftwareVersions": "syngo MR E11",
        "SpacingBetweenSlices": 2.0000000141746,
        "SpecificCharacterSet": "ISO_IR 100",
        "StudyID": "2",
        "StudyTime": "142709.656000",
        "TransmitCoilName": "Body",
        "VariableFlipAngleFlag": "N",
        "WindowCenterWidthExplanation": "Algo1",
        "dBdt": 0.0
      },
      "slices": {}
    },
    "modality": "bold",
    "run_id": 1,
    "session_id": "002",
    "subject_id": "02",
    "task_id": "figures02",
    "time": {
      "samples": {
        "AcquisitionNumber": [
          1,
          2,
          3,
          4,
          5,
          6,
          7,
          8,
          9,
          10,
          11,
          12,
          13,
          14,
          15,
          16,
          17,
          18,
          19,
          20,
          21,
          22,
          23,
          24,
          25,
          26,
          27,
          28,
          29,
          30,
          31,
          32,
          33,
          34,
          35,
          36,
          37,
          38,
          39,
          40,
          41,
          42,
          43,
          44,
          45,
          46,
          47,
          48,
          49,
          50,
          51,
          52,
          53,
          54,
          55,
          56,
          57,
          58,
          59,
          60,
          61,
          62,
          63,
          64,
          65,
          66,
          67,
          68,
          69,
          70,
          71,
          72,
          73,
          74,
          75,
          76,
          77,
          78,
          79,
          80,
          81,
          82,
          83,
          84,
          85,
          86,
          87,
          88,
          89,
          90,
          91,
          92,
          93,
          94,
          95,
          96,
          97,
          98,
          99,
          100,
          101,
          102,
          103,
          104,
          105,
          106,
          107,
          108,
          109,
          110,
          111,
          112,
          113,
          114,
          115,
          116,
          117,
          118,
          119,
          120,
          121,
          122,
          123,
          124,
          125,
          126,
          127,
          128,
          129,
          130,
          131,
          132,
          133,
          134,
          135,
          136,
          137,
          138,
          139,
          140,
          141,
          142,
          143,
          144,
          145,
          146,
          147,
          148,
          149,
          150,
          151,
          152,
          153,
          154,
          155,
          156,
          157,
          158,
          159,
          160,
          161,
          162,
          163,
          164,
          165,
          166,
          167,
          168,
          169,
          170,
          171,
          172,
          173,
          174,
          175,
          176,
          177,
          178,
          179,
          180,
          181,
          182,
          183,
          184,
          185,
          186,
          187,
          188,
          189,
          190,
          191,
          192,
          193,
          194,
          195,
          196,
          197,
          198,
          199,
          200,
          201,
          202,
          203,
          204,
          205,
          206,
          207,
          208,
          209,
          210,
          211,
          212,
          213,
          214,
          215,
          216,
          217,
          218,
          219,
          220,
          221,
          222,
          223,
          224,
          225,
          226,
          227,
          228,
          229,
          230,
          231,
          232,
          233,
          234,
          235,
          236,
          237,
          238,
          239,
          240,
          241,
          242,
          243,
          244,
          245,
          246,
          247,
          248,
          249,
          250,
          251,
          252,
          253,
          254,
          255,
          256,
          257,
          258,
          259,
          260,
          261,
          262,
          263,
          264,
          265,
          266,
          267,
          268,
          269,
          270,
          271,
          272,
          273,
          274,
          275,
          276,
          277,
          278,
          279,
          280,
          281,
          282,
          283,
          284,
          285,
          286,
          287,
          288,
          289,
          290,
          291,
          292,
          293,
          294,
          295,
          296,
          297,
          298,
          299,
          300,
          301,
          302,
          303,
          304,
          305,
          306,
          307,
          308,
          309,
          310,
          311,
          312,
          313,
          314,
          315,
          316,
          317,
          318,
          319,
          320,
          321,
          322,
          323,
          324,
          325,
          326,
          327,
          328,
          329,
          330,
          331,
          332,
          333,
          334,
          335,
          336,
          337,
          338,
          339,
          340,
          341,
          342,
          343,
          344,
          345,
          346,
          347,
          348,
          349,
          350,
          351,
          352,
          353,
          354,
          355,
          356,
          357,
          358,
          359,
          360,
          361,
          362,
          363,
          364,
          365,
          366,
          367,
          368,
          369,
          370,
          371,
          372,
          373,
          374,
          375,
          376,
          377,
          378,
          379,
          380,
          381,
          382,
          383,
          384,
          385,
          386,
          387,
          388,
          389,
          390,
          391,
          392,
          393,
          394,
          395,
          396,
          397,
          398,
          399,
          400,
          401,
          402,
          403,
          404,
          405,
          406,
          407,
          408,
          409,
          410
        ],
        "AcquisitionTime": [
          "145408.862500",
          "145410.352500",
          "145411.842500",
          "145413.332500",
          "145414.822500",
          "145416.312500",
          "145417.802500",
          "145419.292500",
          "145420.782500",
          "145422.272500",
          "145423.762500",
          "145425.252500",
          "145426.742500",
          "145428.232500",
          "145429.722500",
          "145431.212500",
          "145432.702500",
          "145434.192500",
          "145435.682500",
          "145437.172500",
          "145438.662500",
          "145440.152500",
          "145441.642500",
          "145443.132500",
          "145444.622500",
          "145446.112500",
          "145447.602500",
          "145449.092500",
          "145450.582500",
          "145452.072500",
          "145453.562500",
          "145455.052500",
          "145456.542500",
          "145458.032500",
          "145459.522500",
          "145501.012500",
          "145502.502500",
          "145503.992500",
          "145505.482500",
          "145506.972500",
          "145508.462500",
          "145509.952500",
          "145511.442500",
          "145512.932500",
          "145514.422500",
          "145515.912500",
          "145517.402500",
          "145518.892500",
          "145520.382500",
          "145521.872500",
          "145523.362500",
          "145524.852500",
          "145526.342500",
          "145527.832500",
          "145529.322500",
          "145530.812500",
          "145532.302500",
          "145533.792500",
          "145535.282500",
          "145536.772500",
          "145538.262500",
          "145539.752500",
          "145541.242500",
          "145542.732500",
          "145544.222500",
          "145545.712500",
          "145547.202500",
          "145548.692500",
          "145550.182500",
          "145551.672500",
          "145553.162500",
          "145554.652500",
          "145556.142500",
          "145557.632500",
          "145559.122500",
          "145600.612500",
          "145602.102500",
          "145603.592500",
          "145605.082500",
          "145606.572500",
          "145608.062500",
          "145609.552500",
          "145611.042500",
          "145612.532500",
          "145614.022500",
          "145615.512500",
          "145617.002500",
          "145618.492500",
          "145619.982500",
          "145621.472500",
          "145622.962500",
          "145624.452500",
          "145625.942500",
          "145627.432500",
          "145628.922500",
          "145630.412500",
          "145631.902500",
          "145633.392500",
          "145634.882500",
          "145636.372500",
          "145637.862500",
          "145639.352500",
          "145640.842500",
          "145642.332500",
          "145643.822500",
          "145645.312500",
          "145646.802500",
          "145648.292500",
          "145649.782500",
          "145651.272500",
          "145652.762500",
          "145654.252500",
          "145655.742500",
          "145657.232500",
          "145658.722500",
          "145700.212500",
          "145701.702500",
          "145703.192500",
          "145704.682500",
          "145706.172500",
          "145707.662500",
          "145709.152500",
          "145710.642500",
          "145712.132500",
          "145713.622500",
          "145715.112500",
          "145716.602500",
          "145718.092500",
          "145719.582500",
          "145721.072500",
          "145722.562500",
          "145724.052500",
          "145725.542500",
          "145727.032500",
          "145728.522500",
          "145730.012500",
          "145731.502500",
          "145732.992500",
          "145734.482500",
          "145735.972500",
          "145737.462500",
          "145738.952500",
          "145740.442500",
          "145741.932500",
          "145743.422500",
          "145744.912500",
          "145746.402500",
          "145747.892500",
          "145749.382500",
          "145750.872500",
          "145752.362500",
          "145753.852500",
          "145755.342500",
          "145756.832500",
          "145758.322500",
          "145759.812500",
          "145801.302500",
          "145802.792500",
          "145804.282500",
          "145805.772500",
          "145807.262500",
          "145808.752500",
          "145810.242500",
          "145811.732500",
          "145813.222500",
          "145814.712500",
          "145816.202500",
          "145817.692500",
          "145819.182500",
          "145820.672500",
          "145822.162500",
          "145823.652500",
          "145825.142500",
          "145826.632500",
          "145828.122500",
          "145829.612500",
          "145831.102500",
          "145832.592500",
          "145834.082500",
          "145835.572500",
          "145837.062500",
          "145838.552500",
          "145840.042500",
          "145841.532500",
          "145843.022500",
          "145844.512500",
          "145846.002500",
          "145847.492500",
          "145848.982500",
          "145850.472500",
          "145851.962500",
          "145853.452500",
          "145854.942500",
          "145856.432500",
          "145857.922500",
          "145859.412500",
          "145900.902500",
          "145902.392500",
          "145903.882500",
          "145905.372500",
          "145906.862500",
          "145908.352500",
          "145909.842500",
          "145911.332500",
          "145912.822500",
          "145914.312500",
          "145915.802500",
          "145917.292500",
          "145918.782500",
          "145920.272500",
          "145921.762500",
          "145923.252500",
          "145924.742500",
          "145926.232500",
          "145927.722500",
          "145929.212500",
          "145930.702500",
          "145932.192500",
          "145933.682500",
          "145935.172500",
          "145936.662500",
          "145938.152500",
          "145939.642500",
          "145941.132500",
          "145942.622500",
          "145944.112500",
          "145945.602500",
          "145947.092500",
          "145948.582500",
          "145950.072500",
          "145951.562500",
          "145953.052500",
          "145954.542500",
          "145956.032500",
          "145957.522500",
          "145959.012500",
          "150000.502500",
          "150001.992500",
          "150003.482500",
          "150004.972500",
          "150006.462500",
          "150007.952500",
          "150009.442500",
          "150010.932500",
          "150012.422500",
          "150013.912500",
          "150015.402500",
          "150016.892500",
          "150018.382500",
          "150019.872500",
          "150021.362500",
          "150022.852500",
          "150024.342500",
          "150025.832500",
          "150027.322500",
          "150028.812500",
          "150030.302500",
          "150031.792500",
          "150033.282500",
          "150034.772500",
          "150036.262500",
          "150037.752500",
          "150039.242500",
          "150040.732500",
          "150042.222500",
          "150043.712500",
          "150045.202500",
          "150046.692500",
          "150048.182500",
          "150049.672500",
          "150051.162500",
          "150052.652500",
          "150054.142500",
          "150055.632500",
          "150057.122500",
          "150058.612500",
          "150100.102500",
          "150101.592500",
          "150103.082500",
          "150104.572500",
          "150106.062500",
          "150107.552500",
          "150109.042500",
          "150110.532500",
          "150112.022500",
          "150113.512500",
          "150115.002500",
          "150116.492500",
          "150117.982500",
          "150119.472500",
          "150120.962500",
          "150122.452500",
          "150123.942500",
          "150125.432500",
          "150126.922500",
          "150128.412500",
          "150129.902500",
          "150131.392500",
          "150132.882500",
          "150134.372500",
          "150135.862500",
          "150137.352500",
          "150138.842500",
          "150140.332500",
          "150141.822500",
          "150143.312500",
          "150144.802500",
          "150146.292500",
          "150147.782500",
          "150149.272500",
          "150150.762500",
          "150152.252500",
          "150153.742500",
          "150155.232500",
          "150156.722500",
          "150158.212500",
          "150159.702500",
          "150201.192500",
          "150202.682500",
          "150204.172500",
          "150205.662500",
          "150207.152500",
          "150208.642500",
          "150210.132500",
          "150211.622500",
          "150213.112500",
          "150214.602500",
          "150216.092500",
          "150217.582500",
          "150219.072500",
          "150220.562500",
          "150222.052500",
          "150223.542500",
          "150225.032500",
          "150226.522500",
          "150228.012500",
          "150229.502500",
          "150230.992500",
          "150232.482500",
          "150233.972500",
          "150235.462500",
          "150236.952500",
          "150238.442500",
          "150239.932500",
          "150241.422500",
          "150242.912500",
          "150244.402500",
          "150245.892500",
          "150247.382500",
          "150248.872500",
          "150250.362500",
          "150251.852500",
          "150253.342500",
          "150254.832500",
          "150256.322500",
          "150257.812500",
          "150259.302500",
          "150300.792500",
          "150302.282500",
          "150303.772500",
          "150305.262500",
          "150306.752500",
          "150308.242500",
          "150309.732500",
          "150311.222500",
          "150312.712500",
          "150314.202500",
          "150315.692500",
          "150317.182500",
          "150318.672500",
          "150320.162500",
          "150321.652500",
          "150323.142500",
          "150324.632500",
          "150326.122500",
          "150327.612500",
          "150329.102500",
          "150330.592500",
          "150332.082500",
          "150333.572500",
          "150335.062500",
          "150336.552500",
          "150338.042500",
          "150339.532500",
          "150341.022500",
          "150342.512500",
          "150344.002500",
          "150345.492500",
          "150346.982500",
          "150348.472500",
          "150349.962500",
          "150351.452500",
          "150352.942500",
          "150354.432500",
          "150355.922500",
          "150357.412500",
          "150358.902500",
          "150400.392500",
          "150401.882500",
          "150403.372500",
          "150404.862500",
          "150406.352500",
          "150407.842500",
          "150409.332500",
          "150410.822500",
          "150412.312500",
          "150413.802500",
          "150415.292500",
          "150416.782500",
          "150418.272500"
        ],
        "ContentTime": [
          "145532.596000",
          "145532.600000",
          "145532.603000",
          "145532.607000",
          "145532.615000",
          "145532.623000",
          "145532.626000",
          "145532.629000",
          "145532.632000",
          "145532.635000",
          "145532.638000",
          "145532.641000",
          "145532.644000",
          "145532.647000",
          "145532.650000",
          "145532.653000",
          "145532.656000",
          "145532.659000",
          "145532.662000",
          "145532.665000",
          "145532.668000",
          "145532.671000",
          "145532.674000",
          "145532.677000",
          "145532.680000",
          "145532.683000",
          "145532.686000",
          "145532.688000",
          "145552.560000",
          "145552.563000",
          "145552.567000",
          "145552.570000",
          "145552.573000",
          "145552.576000",
          "145552.579000",
          "145552.582000",
          "145552.585000",
          "145552.588000",
          "145552.590000",
          "145552.593000",
          "145552.596000",
          "145552.599000",
          "145552.602000",
          "145552.605000",
          "145552.608000",
          "145552.611000",
          "145552.614000",
          "145552.617000",
          "145612.559000",
          "145612.562000",
          "145612.565000",
          "145612.568000",
          "145612.571000",
          "145612.574000",
          "145612.577000",
          "145612.580000",
          "145612.583000",
          "145612.586000",
          "145612.589000",
          "145612.592000",
          "145612.595000",
          "145612.598000",
          "145612.601000",
          "145612.604000",
          "145612.607000",
          "145612.610000",
          "145612.612000",
          "145612.616000",
          "145632.559000",
          "145632.562000",
          "145632.565000",
          "145632.568000",
          "145632.571000",
          "145632.574000",
          "145632.577000",
          "145632.580000",
          "145632.583000",
          "145632.586000",
          "145632.589000",
          "145632.592000",
          "145632.595000",
          "145632.598000",
          "145632.601000",
          "145632.603000",
          "145632.606000",
          "145632.609000",
          "145632.612000",
          "145632.615000",
          "145652.559000",
          "145652.562000",
          "145652.565000",
          "145652.568000",
          "145652.571000",
          "145652.574000",
          "145652.577000",
          "145652.580000",
          "145652.583000",
          "145652.586000",
          "145652.589000",
          "145652.592000",
          "145652.594000",
          "145652.597000",
          "145652.600000",
          "145652.604000",
          "145652.607000",
          "145652.609000",
          "145652.612000",
          "145652.623000",
          "145732.559000",
          "145732.562000",
          "145732.565000",
          "145732.578000",
          "145732.581000",
          "145732.584000",
          "145732.587000",
          "145732.591000",
          "145732.594000",
          "145732.597000",
          "145732.600000",
          "145732.603000",
          "145732.606000",
          "145732.608000",
          "145732.611000",
          "145732.621000",
          "145732.624000",
          "145732.627000",
          "145732.630000",
          "145732.633000",
          "145732.636000",
          "145732.639000",
          "145732.642000",
          "145732.645000",
          "145732.647000",
          "145732.650000",
          "145732.653000",
          "145732.656000",
          "145812.560000",
          "145812.563000",
          "145812.566000",
          "145812.569000",
          "145812.572000",
          "145812.575000",
          "145812.578000",
          "145812.581000",
          "145812.584000",
          "145812.587000",
          "145812.590000",
          "145812.593000",
          "145812.595000",
          "145812.598000",
          "145812.601000",
          "145812.604000",
          "145812.607000",
          "145812.610000",
          "145812.613000",
          "145812.616000",
          "145812.619000",
          "145812.622000",
          "145812.625000",
          "145812.628000",
          "145812.631000",
          "145812.634000",
          "145812.637000",
          "145852.559000",
          "145852.562000",
          "145852.565000",
          "145852.568000",
          "145852.571000",
          "145852.574000",
          "145852.577000",
          "145852.580000",
          "145852.583000",
          "145852.586000",
          "145852.589000",
          "145852.592000",
          "145852.595000",
          "145852.598000",
          "145852.601000",
          "145852.603000",
          "145852.607000",
          "145852.610000",
          "145852.612000",
          "145852.616000",
          "145852.619000",
          "145852.622000",
          "145852.624000",
          "145852.627000",
          "145852.630000",
          "145852.633000",
          "145852.636000",
          "145932.559000",
          "145932.562000",
          "145932.565000",
          "145932.568000",
          "145932.571000",
          "145932.591000",
          "145932.594000",
          "145932.597000",
          "145932.600000",
          "145932.603000",
          "145932.606000",
          "145932.610000",
          "145932.615000",
          "145932.619000",
          "145932.622000",
          "145932.626000",
          "145932.629000",
          "145932.632000",
          "145932.635000",
          "145932.638000",
          "145932.641000",
          "145932.644000",
          "145932.647000",
          "145932.650000",
          "145932.653000",
          "145932.656000",
          "150012.559000",
