{
  "aor": 0.0008696097560975609,
  "aqi": 0.007946764853658536,
  "bids_meta": {
    "AcquisitionMatrixPE": 104,
    "AcquisitionNumber": 1,
    "AcquisitionTime": "15:26:5.980000",
    "BandwidthPerPixelPhaseEncode": 17.17,
    "BaseResolution": 104,
    "BodyPartExamined": "BRAIN",
    "CogAtlasID": "trm_4c898da401420",
    "ConsistencyInfo": "N4_VE11C_LATEST_20160120",
    "ConversionSoftware": "dcm2niix",
    "ConversionSoftwareVersion": "v1.0.20171215 (OpenJPEG build) GCC7.3.0",
    "DerivedVendorReportedEchoSpacing": 0.000560011,
    "DeviceSerialNumber": "167006",
    "DwellTime": 2.1e-06,
    "EchoTime": 0.037,
    "EchoTrainLength": 104,
    "EffectiveEchoSpacing": 0.000560011,
    "FlipAngle": 52,
    "ImageComments": "Unaliased_MB4_PE3_LB",
    "ImageOrientationPatientDICOM": [
      0.999539,
      0.0272149,
      -0.0134844,
      -0.030364,
      0.885038,
      -0.464528
    ],
    "ImageType": [
      "ORIGINAL",
      "PRIMARY",
      "M",
      "MB",
      "ND",
      "MOSAIC"
    ],
    "InPlanePhaseEncodingDirectionDICOM": "COL",
    "InstitutionAddress": "Chemin_Queen-Mary_4565_Montreal_District_CA_H3W_1W5",
    "InstitutionName": "IUGM",
    "InstitutionalDepartmentName": "Department",
    "MRAcquisitionType": "2D",
    "MagneticFieldStrength": 3,
    "Manufacturer": "Siemens",
    "ManufacturersModelName": "Prisma_fit",
    "Modality": "MR",
    "MultibandAccelerationFactor": 4,
    "PartialFourier": 1,
    "PatientPosition": "HFS",
    "PercentPhaseFOV": 100,
    "PhaseEncodingDirection": "j-",
    "PhaseEncodingSteps": 104,
    "PhaseResolution": 1,
    "PixelBandwidth": 2290,
    "ProcedureStepDescription": "video5_generic",
    "ProtocolName": "func_task-figures5",
    "PulseSequenceDetails": "%CustomerSeq%_cmrr_mbep2d_bold",
    "ReceiveCoilActiveElements": "HC1-7;NC1,2",
    "ReceiveCoilName": "HeadNeck_64",
    "ReconMatrixPE": 104,
    "RepetitionTime": 1.49,
    "SAR": 0.0361091,
    "ScanOptions": "FS",
    "ScanningSequence": "EP",
    "SequenceName": "epfid2d1_104",
    "SequenceVariant": "SK_SS",
    "SeriesDescription": "func_task-figures5",
    "SeriesNumber": 21,
    "ShimSetting": [
      620,
      -7185,
      -8877,
      348,
      -6,
      -176,
      -3,
      -19
    ],
    "SliceThickness": 2,
    "SliceTiming": [
      0,
      0.7825,
      0.0975,
      0.8825,
      0.195,
      0.98,
      0.2925,
      1.0775,
      0.3925,
      1.175,
      0.49,
      1.2725,
      0.5875,
      1.3725,
      0.685,
      0,
      0.7825,
      0.0975,
      0.8825,
      0.195,
      0.98,
      0.2925,
      1.0775,
      0.3925,
      1.175,
      0.49,
      1.2725,
      0.5875,
      1.3725,
      0.685,
      0,
      0.7825,
      0.0975,
      0.8825,
      0.195,
      0.98,
      0.2925,
      1.0775,
      0.3925,
      1.175,
      0.49,
      1.2725,
      0.5875,
      1.3725,
      0.685,
      0,
      0.7825,
      0.0975,
      0.8825,
      0.195,
      0.98,
      0.2925,
      1.0775,
      0.3925,
      1.175,
      0.49,
      1.2725,
      0.5875,
      1.3725,
      0.685
    ],
    "SoftwareVersions": "syngo_MR_E11",
    "SpacingBetweenSlices": 2,
    "StationName": "MRC35049",
    "TaskName": "figures05",
    "TotalReadoutTime": 0.0576811,
    "TxRefAmp": 248.475,
    "dataset": "<unset>",
    "dcmmeta_affine": [
      [
        -1.999077320098877,
        -0.06072809547185898,
        0.0014158118283376098,
        109.10775756835938
      ],
      [
        -0.05442972853779793,
        1.7700754404067993,
        -0.929446280002594,
        -58.15526580810547
      ],
      [
        -0.026968704536557198,
        0.9290559887886047,
        1.7709115743637085,
        -93.81527709960938
      ],
      [
        0.0,
        0.0,
        0.0,
        1.0
      ]
    ],
    "dcmmeta_reorient_transform": [
      [
        0.0,
        -1.0,
        0.0,
        103.0
      ],
      [
        1.0,
        0.0,
        0.0,
        0.0
      ],
      [
        0.0,
        0.0,
        1.0,
        0.0
      ],
      [
        0.0,
        0.0,
        0.0,
        1.0
      ]
    ],
    "dcmmeta_shape": [
      104,
      104,
      60,
      410
    ],
    "dcmmeta_slice_dim": 2,
    "dcmmeta_version": 0.6,
    "global": {
      "const": {
        "AcquisitionMatrix": [
          104,
          0,
          0,
          104
        ],
        "AngioFlag": "N",
        "BitsAllocated": 16,
        "BitsStored": 16,
        "BodyPartExamined": "BRAIN",
        "Columns": 832,
        "EchoNumbers": 1,
        "EchoTime": 37.0,
        "EchoTrainLength": 104,
        "FlipAngle": 52.0,
        "HighBit": 15,
        "ImageOrientationPatient": [
          0.99953865529852,
          0.02721486372997,
          -0.0134843522716,
          -0.0303640483669,
          0.88503771675029,
          -0.464528001843
        ],
        "ImagePositionPatient": [
          -808.41187792275,
          -788.28238167027,
          349.87048608178
        ],
        "ImageType": [
          "ORIGINAL",
          "PRIMARY",
          "M",
          "MB",
          "ND",
          "MOSAIC"
        ],
        "ImagedNucleus": "1H",
        "ImagingFrequency": 123.258279,
        "InPlanePhaseEncodingDirection": "COL",
        "MRAcquisitionType": "2D",
        "MagneticFieldStrength": 3.0,
        "Manufacturer": "SIEMENS",
        "ManufacturerModelName": "Prisma_fit",
        "Modality": "MR",
        "NumberOfAverages": 1.0,
        "NumberOfPhaseEncodingSteps": 104,
        "PercentPhaseFieldOfView": 100.0,
        "PercentSampling": 100.0,
        "PerformedProcedureStepStartTime": "142709.721000",
        "PhotometricInterpretation": "MONOCHROME2",
        "PixelBandwidth": 2290.0,
        "PixelRepresentation": 0,
        "PixelSpacing": [
          2.0,
          2.0
        ],
        "ProtocolName": "func_task-figures5",
        "RepetitionTime": 1490.0,
        "Rows": 832,
        "SAR": 0.03610909203675,
        "SamplesPerPixel": 1,
        "ScanOptions": "FS",
        "ScanningSequence": "EP",
        "SequenceName": "epfid2d1_104",
        "SequenceVariant": [
          "SK",
          "SS"
        ],
        "SeriesDescription": "func_task-figures5",
        "SeriesNumber": 21,
        "SeriesTime": "152712.589000",
        "SliceLocation": -55.965941091133,
        "SliceThickness": 2.0,
        "SmallestImagePixelValue": 0,
        "SoftwareVersions": "syngo MR E11",
        "SpacingBetweenSlices": 2.0000000141746,
        "SpecificCharacterSet": "ISO_IR 100",
        "StudyID": "2",
        "StudyTime": "142709.656000",
        "TransmitCoilName": "Body",
        "VariableFlipAngleFlag": "N",
        "WindowCenterWidthExplanation": "Algo1",
        "dBdt": 0.0
      },
      "slices": {}
    },
    "modality": "bold",
    "run_id": 1,
    "session_id": "002",
    "subject_id": "02",
    "task_id": "figures05",
    "time": {
      "samples": {
        "AcquisitionNumber": [
          1,
          2,
          3,
          4,
          5,
          6,
          7,
          8,
          9,
          10,
          11,
          12,
          13,
          14,
          15,
          16,
          17,
          18,
          19,
          20,
          21,
          22,
          23,
          24,
          25,
          26,
          27,
          28,
          29,
          30,
          31,
          32,
          33,
          34,
          35,
          36,
          37,
          38,
          39,
          40,
          41,
          42,
          43,
          44,
          45,
          46,
          47,
          48,
          49,
          50,
          51,
          52,
          53,
          54,
          55,
          56,
          57,
          58,
          59,
          60,
          61,
          62,
          63,
          64,
          65,
          66,
          67,
          68,
          69,
          70,
          71,
          72,
          73,
          74,
          75,
          76,
          77,
          78,
          79,
          80,
          81,
          82,
          83,
          84,
          85,
          86,
          87,
          88,
          89,
          90,
          91,
          92,
          93,
          94,
          95,
          96,
          97,
          98,
          99,
          100,
          101,
          102,
          103,
          104,
          105,
          106,
          107,
          108,
          109,
          110,
          111,
          112,
          113,
          114,
          115,
          116,
          117,
          118,
          119,
          120,
          121,
          122,
          123,
          124,
          125,
          126,
          127,
          128,
          129,
          130,
          131,
          132,
          133,
          134,
          135,
          136,
          137,
          138,
          139,
          140,
          141,
          142,
          143,
          144,
          145,
          146,
          147,
          148,
          149,
          150,
          151,
          152,
          153,
          154,
          155,
          156,
          157,
          158,
          159,
          160,
          161,
          162,
          163,
          164,
          165,
          166,
          167,
          168,
          169,
          170,
          171,
          172,
          173,
          174,
          175,
          176,
          177,
          178,
          179,
          180,
          181,
          182,
          183,
          184,
          185,
          186,
          187,
          188,
          189,
          190,
          191,
          192,
          193,
          194,
          195,
          196,
          197,
          198,
          199,
          200,
          201,
          202,
          203,
          204,
          205,
          206,
          207,
          208,
          209,
          210,
          211,
          212,
          213,
          214,
          215,
          216,
          217,
          218,
          219,
          220,
          221,
          222,
          223,
          224,
          225,
          226,
          227,
          228,
          229,
          230,
          231,
          232,
          233,
          234,
          235,
          236,
          237,
          238,
          239,
          240,
          241,
          242,
          243,
          244,
          245,
          246,
          247,
          248,
          249,
          250,
          251,
          252,
          253,
          254,
          255,
          256,
          257,
          258,
          259,
          260,
          261,
          262,
          263,
          264,
          265,
          266,
          267,
          268,
          269,
          270,
          271,
          272,
          273,
          274,
          275,
          276,
          277,
          278,
          279,
          280,
          281,
          282,
          283,
          284,
          285,
          286,
          287,
          288,
          289,
          290,
          291,
          292,
          293,
          294,
          295,
          296,
          297,
          298,
          299,
          300,
          301,
          302,
          303,
          304,
          305,
          306,
          307,
          308,
          309,
          310,
          311,
          312,
          313,
          314,
          315,
          316,
          317,
          318,
          319,
          320,
          321,
          322,
          323,
          324,
          325,
          326,
          327,
          328,
          329,
          330,
          331,
          332,
          333,
          334,
          335,
          336,
          337,
          338,
          339,
          340,
          341,
          342,
          343,
          344,
          345,
          346,
          347,
          348,
          349,
          350,
          351,
          352,
          353,
          354,
          355,
          356,
          357,
          358,
          359,
          360,
          361,
          362,
          363,
          364,
          365,
          366,
          367,
          368,
          369,
          370,
          371,
          372,
          373,
          374,
          375,
          376,
          377,
          378,
          379,
          380,
          381,
          382,
          383,
          384,
          385,
          386,
          387,
          388,
          389,
          390,
          391,
          392,
          393,
          394,
          395,
          396,
          397,
          398,
          399,
          400,
          401,
          402,
          403,
          404,
          405,
          406,
          407,
          408,
          409,
          410
        ],
        "AcquisitionTime": [
          "152605.980000",
          "152607.470000",
          "152608.960000",
          "152610.450000",
          "152611.940000",
          "152613.430000",
          "152614.920000",
          "152616.410000",
          "152617.900000",
          "152619.390000",
          "152620.880000",
          "152622.370000",
          "152623.860000",
          "152625.350000",
          "152626.840000",
          "152628.330000",
          "152629.820000",
          "152631.310000",
          "152632.800000",
          "152634.290000",
          "152635.780000",
          "152637.270000",
          "152638.760000",
          "152640.250000",
          "152641.740000",
          "152643.230000",
          "152644.720000",
          "152646.210000",
          "152647.700000",
          "152649.190000",
          "152650.680000",
          "152652.170000",
          "152653.660000",
          "152655.150000",
          "152656.640000",
          "152658.130000",
          "152659.620000",
          "152701.110000",
          "152702.600000",
          "152704.090000",
          "152705.580000",
          "152707.070000",
          "152708.560000",
          "152710.050000",
          "152711.540000",
          "152713.030000",
          "152714.520000",
          "152716.010000",
          "152717.500000",
          "152718.990000",
          "152720.480000",
          "152721.970000",
          "152723.460000",
          "152724.950000",
          "152726.440000",
          "152727.930000",
          "152729.420000",
          "152730.910000",
          "152732.400000",
          "152733.890000",
          "152735.380000",
          "152736.870000",
          "152738.360000",
          "152739.850000",
          "152741.340000",
          "152742.830000",
          "152744.320000",
          "152745.810000",
          "152747.300000",
          "152748.790000",
          "152750.280000",
          "152751.770000",
          "152753.260000",
          "152754.750000",
          "152756.240000",
          "152757.730000",
          "152759.220000",
          "152800.710000",
          "152802.200000",
          "152803.690000",
          "152805.180000",
          "152806.670000",
          "152808.160000",
          "152809.650000",
          "152811.140000",
          "152812.630000",
          "152814.120000",
          "152815.610000",
          "152817.100000",
          "152818.590000",
          "152820.080000",
          "152821.570000",
          "152823.060000",
          "152824.550000",
          "152826.040000",
          "152827.530000",
          "152829.020000",
          "152830.510000",
          "152832.000000",
          "152833.490000",
          "152834.980000",
          "152836.470000",
          "152837.960000",
          "152839.450000",
          "152840.940000",
          "152842.430000",
          "152843.920000",
          "152845.410000",
          "152846.900000",
          "152848.390000",
          "152849.880000",
          "152851.370000",
          "152852.860000",
          "152854.350000",
          "152855.840000",
          "152857.330000",
          "152858.820000",
          "152900.310000",
          "152901.800000",
          "152903.290000",
          "152904.780000",
          "152906.270000",
          "152907.760000",
          "152909.250000",
          "152910.740000",
          "152912.230000",
          "152913.720000",
          "152915.210000",
          "152916.700000",
          "152918.190000",
          "152919.680000",
          "152921.170000",
          "152922.660000",
          "152924.150000",
          "152925.640000",
          "152927.130000",
          "152928.620000",
          "152930.110000",
          "152931.600000",
          "152933.090000",
          "152934.580000",
          "152936.070000",
          "152937.560000",
          "152939.050000",
          "152940.540000",
          "152942.030000",
          "152943.520000",
          "152945.010000",
          "152946.500000",
          "152947.990000",
          "152949.480000",
          "152950.970000",
          "152952.460000",
          "152953.950000",
          "152955.440000",
          "152956.930000",
          "152958.420000",
          "152959.910000",
          "153001.400000",
          "153002.890000",
          "153004.380000",
          "153005.870000",
          "153007.360000",
          "153008.850000",
          "153010.340000",
          "153011.830000",
          "153013.320000",
          "153014.810000",
          "153016.300000",
          "153017.790000",
          "153019.280000",
          "153020.770000",
          "153022.260000",
          "153023.750000",
          "153025.240000",
          "153026.730000",
          "153028.220000",
          "153029.710000",
          "153031.200000",
          "153032.690000",
          "153034.180000",
          "153035.670000",
          "153037.160000",
          "153038.650000",
          "153040.140000",
          "153041.630000",
          "153043.120000",
          "153044.610000",
          "153046.100000",
          "153047.590000",
          "153049.080000",
          "153050.570000",
          "153052.060000",
          "153053.550000",
          "153055.040000",
          "153056.530000",
          "153058.020000",
          "153059.510000",
          "153101.000000",
          "153102.490000",
          "153103.980000",
          "153105.470000",
          "153106.960000",
          "153108.450000",
          "153109.940000",
          "153111.430000",
          "153112.920000",
          "153114.410000",
          "153115.900000",
          "153117.390000",
          "153118.880000",
          "153120.370000",
          "153121.860000",
          "153123.350000",
          "153124.840000",
          "153126.330000",
          "153127.820000",
          "153129.310000",
          "153130.800000",
          "153132.290000",
          "153133.780000",
          "153135.270000",
          "153136.760000",
          "153138.250000",
          "153139.740000",
          "153141.230000",
          "153142.720000",
          "153144.210000",
          "153145.700000",
          "153147.190000",
          "153148.680000",
          "153150.170000",
          "153151.660000",
          "153153.150000",
          "153154.640000",
          "153156.130000",
          "153157.620000",
          "153159.110000",
          "153200.600000",
          "153202.090000",
          "153203.580000",
          "153205.070000",
          "153206.560000",
          "153208.050000",
          "153209.540000",
          "153211.030000",
          "153212.520000",
          "153214.010000",
          "153215.500000",
          "153216.990000",
          "153218.480000",
          "153219.970000",
          "153221.460000",
          "153222.950000",
          "153224.440000",
          "153225.930000",
          "153227.420000",
          "153228.910000",
          "153230.400000",
          "153231.890000",
          "153233.380000",
          "153234.870000",
          "153236.360000",
          "153237.850000",
          "153239.340000",
          "153240.830000",
          "153242.320000",
          "153243.810000",
          "153245.300000",
          "153246.790000",
          "153248.280000",
          "153249.770000",
          "153251.260000",
          "153252.750000",
          "153254.240000",
          "153255.730000",
          "153257.220000",
          "153258.710000",
          "153300.200000",
          "153301.690000",
          "153303.180000",
          "153304.670000",
          "153306.160000",
          "153307.650000",
          "153309.140000",
          "153310.630000",
          "153312.120000",
          "153313.610000",
          "153315.100000",
          "153316.590000",
          "153318.080000",
          "153319.570000",
          "153321.060000",
          "153322.550000",
          "153324.040000",
          "153325.530000",
          "153327.020000",
          "153328.510000",
          "153330.000000",
          "153331.490000",
          "153332.980000",
          "153334.470000",
          "153335.960000",
          "153337.450000",
          "153338.940000",
          "153340.430000",
          "153341.920000",
          "153343.410000",
          "153344.900000",
          "153346.390000",
          "153347.880000",
          "153349.370000",
          "153350.860000",
          "153352.350000",
          "153353.840000",
          "153355.330000",
          "153356.820000",
          "153358.310000",
          "153359.800000",
          "153401.290000",
          "153402.780000",
          "153404.270000",
          "153405.760000",
          "153407.250000",
          "153408.740000",
          "153410.230000",
          "153411.720000",
          "153413.210000",
          "153414.700000",
          "153416.190000",
          "153417.680000",
          "153419.170000",
          "153420.660000",
          "153422.150000",
          "153423.640000",
          "153425.130000",
          "153426.620000",
          "153428.110000",
          "153429.600000",
          "153431.090000",
          "153432.580000",
          "153434.070000",
          "153435.560000",
          "153437.050000",
          "153438.540000",
          "153440.030000",
          "153441.520000",
          "153443.010000",
          "153444.500000",
          "153445.990000",
          "153447.480000",
          "153448.970000",
          "153450.460000",
          "153451.950000",
          "153453.440000",
          "153454.930000",
          "153456.420000",
          "153457.910000",
          "153459.400000",
          "153500.890000",
          "153502.380000",
          "153503.870000",
          "153505.360000",
          "153506.850000",
          "153508.340000",
          "153509.830000",
          "153511.320000",
          "153512.810000",
          "153514.300000",
          "153515.790000",
          "153517.280000",
          "153518.770000",
          "153520.260000",
          "153521.750000",
          "153523.240000",
          "153524.730000",
          "153526.220000",
          "153527.710000",
          "153529.200000",
          "153530.690000",
          "153532.180000",
          "153533.670000",
          "153535.160000",
          "153536.650000",
          "153538.140000",
          "153539.630000",
          "153541.120000",
          "153542.610000",
          "153544.100000",
          "153545.590000",
          "153547.080000",
          "153548.570000",
          "153550.060000",
          "153551.550000",
          "153553.040000",
          "153554.530000",
          "153556.020000",
          "153557.510000",
          "153559.000000",
          "153600.490000",
          "153601.980000",
          "153603.470000",
          "153604.960000",
          "153606.450000",
          "153607.940000",
          "153609.430000",
          "153610.920000",
          "153612.410000",
          "153613.900000",
          "153615.390000"
        ],
        "ContentTime": [
          "152712.592000",
          "152712.607000",
          "152712.610000",
          "152712.613000",
          "152712.616000",
          "152712.632000",
          "152712.635000",
          "152712.638000",
          "152712.641000",
          "152712.644000",
          "152732.559000",
          "152732.563000",
          "152732.579000",
          "152732.583000",
          "152732.586000",
          "152732.590000",
          "152732.593000",
          "152732.597000",
          "152732.629000",
          "152732.633000",
          "152732.637000",
          "152732.640000",
          "152732.645000",
          "152732.648000",
          "152732.652000",
          "152732.655000",
          "152732.658000",
          "152732.662000",
          "152732.665000",
          "152732.668000",
          "152752.559000",
          "152752.562000",
          "152752.565000",
          "152752.568000",
          "152752.580000",
          "152752.582000",
          "152752.585000",
          "152752.588000",
          "152752.591000",
          "152752.594000",
          "152752.597000",
          "152752.600000",
          "152752.603000",
          "152752.606000",
          "152752.609000",
          "152752.612000",
          "152752.614000",
          "152752.617000",
          "152752.620000",
          "152752.623000",
          "152752.634000",
          "152812.560000",
          "152812.563000",
          "152812.566000",
          "152812.569000",
          "152812.572000",
          "152812.575000",
          "152812.578000",
          "152812.581000",
          "152812.584000",
          "152812.587000",
          "152812.589000",
          "152812.592000",
          "152812.595000",
          "152812.599000",
          "152812.602000",
          "152812.604000",
          "152812.607000",
          "152812.610000",
          "152812.613000",
          "152812.616000",
          "152832.559000",
          "152832.562000",
          "152832.565000",
          "152832.568000",
          "152832.571000",
          "152832.574000",
          "152832.577000",
          "152832.580000",
          "152832.583000",
          "152832.586000",
          "152832.589000",
          "152832.592000",
          "152832.595000",
          "152832.598000",
          "152832.601000",
          "152832.604000",
          "152832.607000",
          "152832.609000",
          "152832.612000",
          "152832.615000",
          "152852.559000",
          "152852.562000",
          "152852.565000",
          "152852.568000",
          "152852.571000",
          "152852.574000",
          "152852.577000",
          "152852.580000",
          "152852.583000",
          "152852.586000",
          "152852.589000",
          "152852.592000",
          "152852.604000",
          "152852.607000",
          "152852.609000",
          "152852.612000",
          "152852.615000",
          "152852.618000",
          "152852.621000",
          "152852.624000",
          "152932.559000",
          "152932.562000",
          "152932.565000",
          "152932.568000",
          "152932.571000",
          "152932.583000",
          "152932.586000",
          "152932.589000",
          "152932.592000",
          "152932.595000",
          "152932.598000",
          "152932.601000",
          "152932.604000",
          "152932.607000",
          "152932.610000",
          "152932.612000",
          "152932.615000",
          "152932.618000",
          "152932.621000",
          "152932.624000",
          "152932.627000",
          "152932.630000",
          "152932.633000",
          "152932.636000",
          "152932.639000",
          "152932.642000",
          "152932.645000",
          "153012.559000",
          "153012.562000",
          "153012.565000",
          "153012.568000",
          "153012.571000",
          "153012.574000",
          "153012.577000",
          "153012.580000",
          "153012.583000",
          "153012.586000",
          "153012.589000",
          "153012.592000",
          "153012.595000",
          "153012.598000",
          "153012.600000",
          "153012.603000",
          "153012.606000",
          "153012.609000",
          "153012.612000",
          "153012.615000",
          "153012.618000",
          "153012.621000",
          "153012.624000",
          "153012.627000",
          "153012.630000",
          "153012.633000",
          "153012.636000",
          "153052.559000",
          "153052.562000",
          "153052.565000",
          "153052.568000",
          "153052.571000",
          "153052.574000",
          "153052.577000",
          "153052.580000",
          "153052.583000",
          "153052.586000",
          "153052.589000",
          "153052.592000",
          "153052.595000",
          "153052.598000",
          "153052.600000",
          "153052.603000",
          "153052.606000",
          "153052.609000",
          "153052.612000",
          "153052.615000",
          "153052.618000",
          "153052.621000",
          "153052.624000",
          "153052.627000",
          "153052.630000",
          "153052.633000",
          "153052.636000",
          "153132.559000",
          "153132.562000",
          "153132.565000",
          "153132.568000",
          "153132.571000",
          "153132.574000",
          "153132.577000",
          "153132.580000",
          "153132.583000",
          "153132.587000",
          "153132.590000",
          "153132.593000",
          "153132.596000",
          "153132.599000",
          "153132.602000",
          "153132.605000",
          "153132.608000",
          "153132.611000",
          "153132.614000",
          "153132.617000",
          "153132.627000",
          "153132.630000",
          "153132.633000",
          "153132.636000",
