{
  "aor": 0.00044421182266009854,
  "aqi": 0.006969617561576354,
  "bids_meta": {
    "AcquisitionMatrixPE": 104,
    "AcquisitionNumber": 1,
    "AcquisitionTime": "11:57:12.170000",
    "BandwidthPerPixelPhaseEncode": 17.17,
    "BaseResolution": 104,
    "BodyPartExamined": "BRAIN",
    "CogAtlasID": "trm_4c898da401420",
    "ConsistencyInfo": "N4_VE11C_LATEST_20160120",
    "ConversionSoftware": "dcm2niix",
    "ConversionSoftwareVersion": "v1.0.20171215 (OpenJPEG build) GCC7.3.0",
    "DerivedVendorReportedEchoSpacing": 0.000560011,
    "DeviceSerialNumber": "167006",
    "DwellTime": 2.1e-06,
    "EchoTime": 0.037,
    "EchoTrainLength": 104,
    "EffectiveEchoSpacing": 0.000560011,
    "FlipAngle": 52,
    "ImageComments": "Unaliased_MB4_PE3_LB",
    "ImageOrientationPatientDICOM": [
      0.99604,
      0.0876553,
      0.0148375,
      -0.0820645,
      0.970723,
      -0.225747
    ],
    "ImageType": [
      "ORIGINAL",
      "PRIMARY",
      "M",
      "MB",
      "ND",
      "MOSAIC"
    ],
    "InPlanePhaseEncodingDirectionDICOM": "COL",
    "InstitutionAddress": "Chemin_Queen-Mary_4565_Montreal_District_CA_H3W_1W5",
    "InstitutionName": "IUGM",
    "InstitutionalDepartmentName": "Department",
    "MRAcquisitionType": "2D",
    "MagneticFieldStrength": 3,
    "Manufacturer": "Siemens",
    "ManufacturersModelName": "Prisma_fit",
    "Modality": "MR",
    "MultibandAccelerationFactor": 4,
    "PartialFourier": 1,
    "PatientPosition": "HFS",
    "PercentPhaseFOV": 100,
    "PhaseEncodingDirection": "j-",
    "PhaseEncodingSteps": 104,
    "PhaseResolution": 1,
    "PixelBandwidth": 2290,
    "ProcedureStepDescription": "video5_generic",
    "ProtocolName": "func_task-wolf6",
    "PulseSequenceDetails": "%CustomerSeq%_cmrr_mbep2d_bold",
    "ReceiveCoilActiveElements": "HC1-7;NC1,2",
    "ReceiveCoilName": "HeadNeck_64",
    "ReconMatrixPE": 104,
    "RepetitionTime": 1.49,
    "SAR": 0.0403879,
    "ScanOptions": "FS",
    "ScanningSequence": "EP",
    "SequenceName": "epfid2d1_104",
    "SequenceVariant": "SK_SS",
    "SeriesDescription": "func_task-wolf6",
    "SeriesNumber": 26,
    "ShimSetting": [
      636,
      -7187,
      -8836,
      695,
      132,
      62,
      -9,
      -21
    ],
    "SliceThickness": 2,
    "SliceTiming": [
      0,
      0.7825,
      0.0975,
      0.88,
      0.195,
      0.98,
      0.2925,
      1.0775,
      0.39,
      1.175,
      0.49,
      1.2725,
      0.5875,
      1.37,
      0.685,
      0,
      0.7825,
      0.0975,
      0.88,
      0.195,
      0.98,
      0.2925,
      1.0775,
      0.39,
      1.175,
      0.49,
      1.2725,
      0.5875,
      1.37,
      0.685,
      0,
      0.7825,
      0.0975,
      0.88,
      0.195,
      0.98,
      0.2925,
      1.0775,
      0.39,
      1.175,
      0.49,
      1.2725,
      0.5875,
      1.37,
      0.685,
      0,
      0.7825,
      0.0975,
      0.88,
      0.195,
      0.98,
      0.2925,
      1.0775,
      0.39,
      1.175,
      0.49,
      1.2725,
      0.5875,
      1.37,
      0.685
    ],
    "SoftwareVersions": "syngo_MR_E11",
    "SpacingBetweenSlices": 2,
    "StationName": "MRC35049",
    "TaskName": "wolf06",
    "TotalReadoutTime": 0.0576811,
    "TxRefAmp": 254.359,
    "dataset": "<unset>",
    "dcmmeta_affine": [
      [
        -1.9920806884765625,
        -0.16412898898124695,
        0.0683821365237236,
        111.98944091796875
      ],
      [
        -0.17531068623065948,
        1.9414464235305786,
        -0.44727185368537903,
        -55.48967742919922
      ],
      [
        0.029674984514713287,
        0.45149490237236023,
        1.9481456279754639,
        -55.134864807128906
      ],
      [
        0.0,
        0.0,
        0.0,
        1.0
      ]
    ],
    "dcmmeta_reorient_transform": [
      [
        0.0,
        -1.0,
        0.0,
        103.0
      ],
      [
        1.0,
        0.0,
        0.0,
        0.0
      ],
      [
        0.0,
        0.0,
        1.0,
        0.0
      ],
      [
        0.0,
        0.0,
        0.0,
        1.0
      ]
    ],
    "dcmmeta_shape": [
      104,
      104,
      60,
      406
    ],
    "dcmmeta_slice_dim": 2,
    "dcmmeta_version": 0.6,
    "global": {
      "const": {
        "AcquisitionMatrix": [
          104,
          0,
          0,
          104
        ],
        "AngioFlag": "N",
        "BitsAllocated": 16,
        "BitsStored": 16,
        "BodyPartExamined": "BRAIN",
        "Columns": 832,
        "EchoNumbers": 1,
        "EchoTime": 37.0,
        "EchoTrainLength": 104,
        "FlipAngle": 52.0,
        "HighBit": 15,
        "ImageOrientationPatient": [
          0.99604035536238,
          0.0876553438364,
          0.01483749259526,
          -0.0820644950005,
          0.97072318838748,
          -0.2257474477976
        ],
        "ImagePositionPatient": [
          -760.45858145152,
          -914.97887109176,
          144.91155767346
        ],
        "ImageType": [
          "ORIGINAL",
          "PRIMARY",
          "M",
          "MB",
          "ND",
          "MOSAIC"
        ],
        "ImagedNucleus": "1H",
        "ImagingFrequency": 123.259493,
        "InPlanePhaseEncodingDirection": "COL",
        "MRAcquisitionType": "2D",
        "MagneticFieldStrength": 3.0,
        "Manufacturer": "SIEMENS",
        "ManufacturerModelName": "Prisma_fit",
        "Modality": "MR",
        "NumberOfAverages": 1.0,
        "NumberOfPhaseEncodingSteps": 104,
        "PercentPhaseFieldOfView": 100.0,
        "PercentSampling": 100.0,
        "PerformedProcedureStepStartTime": "104822.308000",
        "PhotometricInterpretation": "MONOCHROME2",
        "PixelBandwidth": 2290.0,
        "PixelRepresentation": 0,
        "PixelSpacing": [
          2.0,
          2.0
        ],
        "ProtocolName": "func_task-wolf6",
        "RepetitionTime": 1490.0,
        "Rows": 832,
        "SAR": 0.04038787103535,
        "SamplesPerPixel": 1,
        "ScanOptions": "FS",
        "ScanningSequence": "EP",
        "SequenceName": "epfid2d1_104",
        "SequenceVariant": [
          "SK",
          "SS"
        ],
        "SeriesDescription": "func_task-wolf6",
        "SeriesNumber": 26,
        "SeriesTime": "115842.426000",
        "SliceLocation": -37.466850117731,
        "SliceThickness": 2.0,
        "SmallestImagePixelValue": 0,
        "SoftwareVersions": "syngo MR E11",
        "SpacingBetweenSlices": 1.9999999327449,
        "SpecificCharacterSet": "ISO_IR 100",
        "StudyID": "1",
        "StudyTime": "104822.241000",
        "TransmitCoilName": "Body",
        "VariableFlipAngleFlag": "N",
        "WindowCenterWidthExplanation": "Algo1",
        "dBdt": 0.0
      },
      "slices": {}
    },
    "modality": "bold",
    "session_id": "003",
    "subject_id": "01",
    "task_id": "wolf06",
    "time": {
      "samples": {
        "AcquisitionNumber": [
          1,
          2,
          3,
          4,
          5,
          6,
          7,
          8,
          9,
          10,
          11,
          12,
          13,
          14,
          15,
          16,
          17,
          18,
          19,
          20,
          21,
          22,
          23,
          24,
          25,
          26,
          27,
          28,
          29,
          30,
          31,
          32,
          33,
          34,
          35,
          36,
          37,
          38,
          39,
          40,
          41,
          42,
          43,
          44,
          45,
          46,
          47,
          48,
          49,
          50,
          51,
          52,
          53,
          54,
          55,
          56,
          57,
          58,
          59,
          60,
          61,
          62,
          63,
          64,
          65,
          66,
          67,
          68,
          69,
          70,
          71,
          72,
          73,
          74,
          75,
          76,
          77,
          78,
          79,
          80,
          81,
          82,
          83,
          84,
          85,
          86,
          87,
          88,
          89,
          90,
          91,
          92,
          93,
          94,
          95,
          96,
          97,
          98,
          99,
          100,
          101,
          102,
          103,
          104,
          105,
          106,
          107,
          108,
          109,
          110,
          111,
          112,
          113,
          114,
          115,
          116,
          117,
          118,
          119,
          120,
          121,
          122,
          123,
          124,
          125,
          126,
          127,
          128,
          129,
          130,
          131,
          132,
          133,
          134,
          135,
          136,
          137,
          138,
          139,
          140,
          141,
          142,
          143,
          144,
          145,
          146,
          147,
          148,
          149,
          150,
          151,
          152,
          153,
          154,
          155,
          156,
          157,
          158,
          159,
          160,
          161,
          162,
          163,
          164,
          165,
          166,
          167,
          168,
          169,
          170,
          171,
          172,
          173,
          174,
          175,
          176,
          177,
          178,
          179,
          180,
          181,
          182,
          183,
          184,
          185,
          186,
          187,
          188,
          189,
          190,
          191,
          192,
          193,
          194,
          195,
          196,
          197,
          198,
          199,
          200,
          201,
          202,
          203,
          204,
          205,
          206,
          207,
          208,
          209,
          210,
          211,
          212,
          213,
          214,
          215,
          216,
          217,
          218,
          219,
          220,
          221,
          222,
          223,
          224,
          225,
          226,
          227,
          228,
          229,
          230,
          231,
          232,
          233,
          234,
          235,
          236,
          237,
          238,
          239,
          240,
          241,
          242,
          243,
          244,
          245,
          246,
          247,
          248,
          249,
          250,
          251,
          252,
          253,
          254,
          255,
          256,
          257,
          258,
          259,
          260,
          261,
          262,
          263,
          264,
          265,
          266,
          267,
          268,
          269,
          270,
          271,
          272,
          273,
          274,
          275,
          276,
          277,
          278,
          279,
          280,
          281,
          282,
          283,
          284,
          285,
          286,
          287,
          288,
          289,
          290,
          291,
          292,
          293,
          294,
          295,
          296,
          297,
          298,
          299,
          300,
          301,
          302,
          303,
          304,
          305,
          306,
          307,
          308,
          309,
          310,
          311,
          312,
          313,
          314,
          315,
          316,
          317,
          318,
          319,
          320,
          321,
          322,
          323,
          324,
          325,
          326,
          327,
          328,
          329,
          330,
          331,
          332,
          333,
          334,
          335,
          336,
          337,
          338,
          339,
          340,
          341,
          342,
          343,
          344,
          345,
          346,
          347,
          348,
          349,
          350,
          351,
          352,
          353,
          354,
          355,
          356,
          357,
          358,
          359,
          360,
          361,
          362,
          363,
          364,
          365,
          366,
          367,
          368,
          369,
          370,
          371,
          372,
          373,
          374,
          375,
          376,
          377,
          378,
          379,
          380,
          381,
          382,
          383,
          384,
          385,
          386,
          387,
          388,
          389,
          390,
          391,
          392,
          393,
          394,
          395,
          396,
          397,
          398,
          399,
          400,
          401,
          402,
          403,
          404,
          405,
          406
        ],
        "AcquisitionTime": [
          "115712.170000",
          "115713.660000",
          "115715.150000",
          "115716.640000",
          "115718.130000",
          "115719.620000",
          "115721.110000",
          "115722.600000",
          "115724.090000",
          "115725.580000",
          "115727.070000",
          "115728.560000",
          "115730.050000",
          "115731.540000",
          "115733.030000",
          "115734.520000",
          "115736.010000",
          "115737.500000",
          "115738.990000",
          "115740.480000",
          "115741.970000",
          "115743.460000",
          "115744.950000",
          "115746.440000",
          "115747.930000",
          "115749.420000",
          "115750.910000",
          "115752.400000",
          "115753.890000",
          "115755.380000",
          "115756.870000",
          "115758.360000",
          "115759.850000",
          "115801.340000",
          "115802.830000",
          "115804.320000",
          "115805.810000",
          "115807.300000",
          "115808.790000",
          "115810.280000",
          "115811.770000",
          "115813.260000",
          "115814.750000",
          "115816.240000",
          "115817.730000",
          "115819.220000",
          "115820.710000",
          "115822.200000",
          "115823.690000",
          "115825.180000",
          "115826.670000",
          "115828.160000",
          "115829.650000",
          "115831.140000",
          "115832.630000",
          "115834.120000",
          "115835.610000",
          "115837.100000",
          "115838.590000",
          "115840.080000",
          "115841.570000",
          "115843.060000",
          "115844.550000",
          "115846.040000",
          "115847.530000",
          "115849.020000",
          "115850.510000",
          "115852.000000",
          "115853.490000",
          "115854.980000",
          "115856.470000",
          "115857.960000",
          "115859.450000",
          "115900.940000",
          "115902.430000",
          "115903.920000",
          "115905.410000",
          "115906.900000",
          "115908.390000",
          "115909.880000",
          "115911.370000",
          "115912.860000",
          "115914.350000",
          "115915.840000",
          "115917.330000",
          "115918.820000",
          "115920.310000",
          "115921.800000",
          "115923.290000",
          "115924.780000",
          "115926.270000",
          "115927.760000",
          "115929.250000",
          "115930.740000",
          "115932.230000",
          "115933.720000",
          "115935.210000",
          "115936.700000",
          "115938.190000",
          "115939.680000",
          "115941.170000",
          "115942.660000",
          "115944.150000",
          "115945.640000",
          "115947.130000",
          "115948.620000",
          "115950.110000",
          "115951.600000",
          "115953.090000",
          "115954.580000",
          "115956.070000",
          "115957.560000",
          "115959.050000",
          "120000.540000",
          "120002.030000",
          "120003.520000",
          "120005.010000",
          "120006.500000",
          "120007.990000",
          "120009.480000",
          "120010.970000",
          "120012.460000",
          "120013.950000",
          "120015.440000",
          "120016.930000",
          "120018.420000",
          "120019.910000",
          "120021.400000",
          "120022.890000",
          "120024.380000",
          "120025.870000",
          "120027.360000",
          "120028.850000",
          "120030.340000",
          "120031.830000",
          "120033.320000",
          "120034.810000",
          "120036.300000",
          "120037.790000",
          "120039.280000",
          "120040.770000",
          "120042.260000",
          "120043.750000",
          "120045.240000",
          "120046.730000",
          "120048.220000",
          "120049.710000",
          "120051.200000",
          "120052.690000",
          "120054.180000",
          "120055.670000",
          "120057.160000",
          "120058.650000",
          "120100.140000",
          "120101.630000",
          "120103.120000",
          "120104.610000",
          "120106.100000",
          "120107.590000",
          "120109.080000",
          "120110.570000",
          "120112.060000",
          "120113.550000",
          "120115.040000",
          "120116.530000",
          "120118.020000",
          "120119.510000",
          "120121.000000",
          "120122.490000",
          "120123.980000",
          "120125.470000",
          "120126.960000",
          "120128.450000",
          "120129.940000",
          "120131.430000",
          "120132.920000",
          "120134.410000",
          "120135.900000",
          "120137.390000",
          "120138.880000",
          "120140.370000",
          "120141.860000",
          "120143.350000",
          "120144.840000",
          "120146.330000",
          "120147.820000",
          "120149.310000",
          "120150.800000",
          "120152.290000",
          "120153.780000",
          "120155.270000",
          "120156.760000",
          "120158.250000",
          "120159.740000",
          "120201.230000",
          "120202.720000",
          "120204.210000",
          "120205.700000",
          "120207.190000",
          "120208.680000",
          "120210.170000",
          "120211.660000",
          "120213.150000",
          "120214.640000",
          "120216.130000",
          "120217.620000",
          "120219.110000",
          "120220.600000",
          "120222.090000",
          "120223.580000",
          "120225.070000",
          "120226.560000",
          "120228.050000",
          "120229.540000",
          "120231.030000",
          "120232.520000",
          "120234.010000",
          "120235.500000",
          "120236.990000",
          "120238.480000",
          "120239.970000",
          "120241.460000",
          "120242.950000",
          "120244.440000",
          "120245.930000",
          "120247.420000",
          "120248.910000",
          "120250.400000",
          "120251.890000",
          "120253.380000",
          "120254.870000",
          "120256.360000",
          "120257.850000",
          "120259.340000",
          "120300.830000",
          "120302.320000",
          "120303.810000",
          "120305.300000",
          "120306.790000",
          "120308.280000",
          "120309.770000",
          "120311.260000",
          "120312.750000",
          "120314.240000",
          "120315.730000",
          "120317.220000",
          "120318.710000",
          "120320.200000",
          "120321.690000",
          "120323.180000",
          "120324.670000",
          "120326.160000",
          "120327.650000",
          "120329.140000",
          "120330.630000",
          "120332.120000",
          "120333.610000",
          "120335.100000",
          "120336.590000",
          "120338.080000",
          "120339.570000",
          "120341.060000",
          "120342.550000",
          "120344.040000",
          "120345.530000",
          "120347.020000",
          "120348.510000",
          "120350.000000",
          "120351.490000",
          "120352.980000",
          "120354.470000",
          "120355.960000",
          "120357.450000",
          "120358.940000",
          "120400.430000",
          "120401.920000",
          "120403.410000",
          "120404.900000",
          "120406.390000",
          "120407.880000",
          "120409.370000",
          "120410.860000",
          "120412.350000",
          "120413.840000",
          "120415.330000",
          "120416.820000",
          "120418.310000",
          "120419.800000",
          "120421.290000",
          "120422.780000",
          "120424.270000",
          "120425.760000",
          "120427.250000",
          "120428.740000",
          "120430.230000",
          "120431.720000",
          "120433.210000",
          "120434.700000",
          "120436.190000",
          "120437.680000",
          "120439.170000",
          "120440.660000",
          "120442.150000",
          "120443.640000",
          "120445.130000",
          "120446.620000",
          "120448.110000",
          "120449.600000",
          "120451.090000",
          "120452.580000",
          "120454.070000",
          "120455.560000",
          "120457.050000",
          "120458.540000",
          "120500.030000",
          "120501.520000",
          "120503.010000",
          "120504.500000",
          "120505.990000",
          "120507.480000",
          "120508.970000",
          "120510.460000",
          "120511.950000",
          "120513.440000",
          "120514.930000",
          "120516.420000",
          "120517.910000",
          "120519.400000",
          "120520.890000",
          "120522.380000",
          "120523.870000",
          "120525.360000",
          "120526.850000",
          "120528.340000",
          "120529.830000",
          "120531.320000",
          "120532.810000",
          "120534.300000",
          "120535.790000",
          "120537.280000",
          "120538.770000",
          "120540.260000",
          "120541.750000",
          "120543.240000",
          "120544.730000",
          "120546.220000",
          "120547.710000",
          "120549.200000",
          "120550.690000",
          "120552.180000",
          "120553.670000",
          "120555.160000",
          "120556.650000",
          "120558.140000",
          "120559.630000",
          "120601.120000",
          "120602.610000",
          "120604.100000",
          "120605.590000",
          "120607.080000",
          "120608.570000",
          "120610.060000",
          "120611.550000",
          "120613.040000",
          "120614.530000",
          "120616.020000",
          "120617.510000",
          "120619.000000",
          "120620.490000",
          "120621.980000",
          "120623.470000",
          "120624.960000",
          "120626.450000",
          "120627.940000",
          "120629.430000",
          "120630.920000",
          "120632.410000",
          "120633.900000",
          "120635.390000",
          "120636.880000",
          "120638.370000",
          "120639.860000",
          "120641.350000",
          "120642.840000",
          "120644.330000",
          "120645.820000",
          "120647.310000",
          "120648.800000",
          "120650.290000",
          "120651.780000",
          "120653.270000",
          "120654.760000",
          "120656.250000",
          "120657.740000",
          "120659.230000",
          "120700.720000",
          "120702.210000",
          "120703.700000",
          "120705.190000",
          "120706.680000",
          "120708.170000",
          "120709.660000",
          "120711.150000",
          "120712.640000",
          "120714.130000",
          "120715.620000"
        ],
        "ContentTime": [
          "115842.429000",
          "115842.432000",
          "115842.435000",
          "115842.438000",
          "115842.441000",
          "115842.444000",
          "115842.447000",
          "115842.450000",
          "115842.453000",
          "115842.456000",
          "115842.459000",
          "115842.462000",
          "115842.465000",
          "115842.468000",
          "115842.471000",
          "115842.474000",
          "115842.477000",
          "115842.480000",
          "115842.482000",
          "115842.485000",
          "115842.488000",
          "115842.491000",
          "115842.494000",
          "115842.497000",
          "115842.500000",
          "115842.503000",
          "115842.506000",
          "115842.509000",
          "115842.512000",
          "115842.515000",
          "115842.518000",
          "115842.521000",
          "115842.524000",
          "115842.527000",
          "115842.532000",
          "115842.535000",
          "115902.379000",
          "115902.382000",
          "115902.385000",
          "115902.388000",
          "115902.391000",
          "115902.394000",
          "115902.397000",
          "115902.400000",
          "115902.403000",
          "115902.406000",
          "115902.409000",
          "115902.420000",
          "115902.423000",
          "115902.425000",
          "115902.428000",
          "115902.431000",
          "115902.434000",
          "115902.437000",
          "115902.440000",
          "115902.443000",
          "115922.379000",
          "115922.382000",
          "115922.385000",
          "115922.388000",
          "115922.391000",
          "115922.394000",
          "115922.397000",
          "115922.400000",
          "115922.403000",
          "115922.406000",
          "115922.409000",
          "115922.412000",
          "115922.414000",
          "115922.417000",
          "115922.420000",
          "115922.423000",
          "115922.426000",
          "115922.429000",
          "115922.432000",
          "115922.435000",
          "115922.438000",
          "115942.380000",
          "115942.383000",
          "115942.386000",
          "115942.389000",
          "115942.392000",
          "115942.395000",
          "115942.398000",
          "115942.401000",
          "115942.404000",
          "115942.407000",
          "115942.410000",
          "115942.412000",
          "115942.415000",
          "115942.418000",
          "115942.421000",
          "115942.424000",
          "115942.427000",
          "115942.430000",
          "115942.433000",
          "115942.436000",
          "120022.380000",
          "120022.383000",
          "120022.386000",
          "120022.389000",
          "120022.392000",
          "120022.395000",
          "120022.398000",
          "120022.401000",
          "120022.404000",
          "120022.407000",
          "120022.410000",
          "120022.413000",
          "120022.416000",
          "120022.419000",
          "120022.422000",
          "120022.424000",
          "120022.427000",
          "120022.430000",
          "120022.433000",
          "120022.436000",
          "120022.439000",
          "120022.442000",
          "120022.445000",
          "120022.448000",
          "120022.451000",
          "120022.454000",
          "120022.457000",
          "120022.460000",
          "120022.463000",
          "120022.466000",
          "120102.379000",
          "120102.382000",
          "120102.385000",
          "120102.388000",
          "120102.391000",
          "120102.394000",
          "120102.398000",
          "120102.401000",
          "120102.404000",
          "120102.406000",
          "120102.409000",
          "120102.412000",
          "120102.415000",
          "120102.418000",
          "120102.421000",
          "120102.424000",
          "120102.427000",
          "120102.430000",
          "120102.433000",
          "120102.448000",
          "120102.452000",
          "120102.454000",
          "120102.457000",
          "120102.460000",
          "120102.463000",
          "120102.466000",
          "120142.379000",
          "120142.382000",
          "120142.385000",
          "120142.388000",
          "120142.391000",
          "120142.394000",
          "120142.397000",
          "120142.400000",
          "120142.403000",
          "120142.406000",
          "120142.409000",
          "120142.412000",
          "120142.415000",
          "120142.418000",
          "120142.421000",
          "120142.424000",
          "120142.427000",
          "120142.430000",
          "120142.433000",
          "120142.436000",
          "120142.439000",
          "120142.442000",
          "120142.444000",
          "120142.447000",
          "120142.450000",
          "120142.453000",
          "120142.456000",
          "120222.380000",
          "120222.383000",
          "120222.386000",
          "120222.389000",
          "120222.392000",
          "120222.395000",
          "120222.398000",
          "120222.401000",
          "120222.404000",
          "120222.407000",
          "120222.410000",
          "120222.413000",
          "120222.416000",
          "120222.419000",
          "120222.422000",
          "120222.425000",
          "120222.428000",
          "120222.431000",
          "120222.434000",
          "120222.437000",
          "120222.440000",
          "120222.443000",
          "120222.446000",
          "120222.449000",
          "120222.452000",
          "120222.455000",
          "120222.458000",
          "120302.379000",
          "120302.382000",
          "120302.385000",
          "120302.391000",
          "120302.394000",
          "120302.397000",
          "120302.400000",
          "120302.403000",
          "120302.406000",
          "120302.409000",
          "120302.412000",
          "120302.415000",
          "120302.418000",
          "120302.421000",
          "120302.424000",
          "120302.427000",
          "120302.430000",
