{
  "aor": 0.0006055172413793104,
  "aqi": 0.009376028472906405,
  "bids_meta": {
    "AcquisitionMatrixPE": 104,
    "AcquisitionNumber": 1,
    "AcquisitionTime": "11:13:27.482500",
    "BandwidthPerPixelPhaseEncode": 17.17,
    "BaseResolution": 104,
    "BodyPartExamined": "BRAIN",
    "CogAtlasID": "trm_4c898da401420",
    "ConsistencyInfo": "N4_VE11C_LATEST_20160120",
    "ConversionSoftware": "dcm2niix",
    "ConversionSoftwareVersion": "v1.0.20171215 (OpenJPEG build) GCC7.3.0",
    "DerivedVendorReportedEchoSpacing": 0.000560011,
    "DeviceSerialNumber": "167006",
    "DwellTime": 2.1e-06,
    "EchoTime": 0.037,
    "EchoTrainLength": 104,
    "EffectiveEchoSpacing": 0.000560011,
    "FlipAngle": 52,
    "ImageComments": "Unaliased_MB4_PE3_LB",
    "ImageOrientationPatientDICOM": [
      0.995865,
      0.0885572,
      0.020254,
      -0.0810002,
      0.966545,
      -0.243372
    ],
    "ImageType": [
      "ORIGINAL",
      "PRIMARY",
      "M",
      "MB",
      "ND",
      "MOSAIC"
    ],
    "InPlanePhaseEncodingDirectionDICOM": "COL",
    "InstitutionAddress": "Chemin_Queen-Mary_4565_Montreal_District_CA_H3W_1W5",
    "InstitutionName": "IUGM",
    "InstitutionalDepartmentName": "Department",
    "MRAcquisitionType": "2D",
    "MagneticFieldStrength": 3,
    "Manufacturer": "Siemens",
    "ManufacturersModelName": "Prisma_fit",
    "Modality": "MR",
    "MultibandAccelerationFactor": 4,
    "PartialFourier": 1,
    "PatientPosition": "HFS",
    "PercentPhaseFOV": 100,
    "PhaseEncodingDirection": "j-",
    "PhaseEncodingSteps": 104,
    "PhaseResolution": 1,
    "PixelBandwidth": 2290,
    "ProcedureStepDescription": "video5_generic",
    "ProtocolName": "func_task-wolf3",
    "PulseSequenceDetails": "%CustomerSeq%_cmrr_mbep2d_bold",
    "ReceiveCoilActiveElements": "HC1-7;NC1,2",
    "ReceiveCoilName": "HeadNeck_64",
    "ReconMatrixPE": 104,
    "RepetitionTime": 1.49,
    "SAR": 0.0392563,
    "ScanOptions": "FS",
    "ScanningSequence": "EP",
    "SequenceName": "epfid2d1_104",
    "SequenceVariant": "SK_SS",
    "SeriesDescription": "func_task-wolf3",
    "SeriesNumber": 13,
    "ShimSetting": [
      638,
      -7190,
      -8826,
      716,
      125,
      42,
      -1,
      -3
    ],
    "SliceThickness": 2,
    "SliceTiming": [
      0,
      0.7825,
      0.0975,
      0.8825,
      0.195,
      0.98,
      0.2925,
      1.0775,
      0.3925,
      1.175,
      0.49,
      1.2725,
      0.5875,
      1.37,
      0.685,
      0,
      0.7825,
      0.0975,
      0.8825,
      0.195,
      0.98,
      0.2925,
      1.0775,
      0.3925,
      1.175,
      0.49,
      1.2725,
      0.5875,
      1.37,
      0.685,
      0,
      0.7825,
      0.0975,
      0.8825,
      0.195,
      0.98,
      0.2925,
      1.0775,
      0.3925,
      1.175,
      0.49,
      1.2725,
      0.5875,
      1.37,
      0.685,
      0,
      0.7825,
      0.0975,
      0.8825,
      0.195,
      0.98,
      0.2925,
      1.0775,
      0.3925,
      1.175,
      0.49,
      1.2725,
      0.5875,
      1.37,
      0.685
    ],
    "SoftwareVersions": "syngo_MR_E11",
    "SpacingBetweenSlices": 2,
    "StationName": "MRC35049",
    "TaskName": "wolf03",
    "TotalReadoutTime": 0.0576811,
    "TxRefAmp": 252.04,
    "dataset": "<unset>",
    "dcmmeta_affine": [
      [
        -1.9917303323745728,
        -0.16200032830238342,
        0.08225756883621216,
        111.26485443115234
      ],
      [
        -0.17711439728736877,
        1.9330897331237793,
        -0.4814504384994507,
        -54.541900634765625
      ],
      [
        0.04050806537270546,
        0.486744225025177,
        1.9394429922103882,
        -57.98119354248047
      ],
      [
        0.0,
        0.0,
        0.0,
        1.0
      ]
    ],
    "dcmmeta_reorient_transform": [
      [
        0.0,
        -1.0,
        0.0,
        103.0
      ],
      [
        1.0,
        0.0,
        0.0,
        0.0
      ],
      [
        0.0,
        0.0,
        1.0,
        0.0
      ],
      [
        0.0,
        0.0,
        0.0,
        1.0
      ]
    ],
    "dcmmeta_shape": [
      104,
      104,
      60,
      406
    ],
    "dcmmeta_slice_dim": 2,
    "dcmmeta_version": 0.6,
    "global": {
      "const": {
        "AcquisitionMatrix": [
          104,
          0,
          0,
          104
        ],
        "AngioFlag": "N",
        "BitsAllocated": 16,
        "BitsStored": 16,
        "BodyPartExamined": "BRAIN",
        "Columns": 832,
        "EchoNumbers": 1,
        "EchoTime": 37.0,
        "EchoTrainLength": 104,
        "FlipAngle": 52.0,
        "HighBit": 15,
        "ImageOrientationPatient": [
          0.9958651500402,
          0.08855719655271,
          0.02025403352776,
          -0.0810001607857,
          0.96654487177062,
          -0.2433721118095
        ],
        "ImagePositionPatient": [
          -760.60052970569,
          -912.68064853666,
          154.58342364078
        ],
        "ImageType": [
          "ORIGINAL",
          "PRIMARY",
          "M",
          "MB",
          "ND",
          "MOSAIC"
        ],
        "ImagedNucleus": "1H",
        "ImagingFrequency": 123.259486,
        "InPlanePhaseEncodingDirection": "COL",
        "MRAcquisitionType": "2D",
        "MagneticFieldStrength": 3.0,
        "Manufacturer": "SIEMENS",
        "ManufacturerModelName": "Prisma_fit",
        "Modality": "MR",
        "NumberOfAverages": 1.0,
        "NumberOfPhaseEncodingSteps": 104,
        "PercentPhaseFieldOfView": 100.0,
        "PercentSampling": 100.0,
        "PerformedProcedureStepStartTime": "104822.308000",
        "PhotometricInterpretation": "MONOCHROME2",
        "PixelBandwidth": 2290.0,
        "PixelRepresentation": 0,
        "PixelSpacing": [
          2.0,
          2.0
        ],
        "ProtocolName": "func_task-wolf3",
        "RepetitionTime": 1490.0,
        "Rows": 832,
        "SAR": 0.03925630005756,
        "SamplesPerPixel": 1,
        "ScanOptions": "FS",
        "ScanningSequence": "EP",
        "SequenceName": "epfid2d1_104",
        "SequenceVariant": [
          "SK",
          "SS"
        ],
        "SeriesDescription": "func_task-wolf3",
        "SeriesNumber": 13,
        "SeriesTime": "111458.632000",
        "SliceLocation": -38.519809549877,
        "SliceThickness": 2.0,
        "SmallestImagePixelValue": 0,
        "SoftwareVersions": "syngo MR E11",
        "SpacingBetweenSlices": 1.9999999992992,
        "SpecificCharacterSet": "ISO_IR 100",
        "StudyID": "1",
        "StudyTime": "104822.241000",
        "TransmitCoilName": "Body",
        "VariableFlipAngleFlag": "N",
        "WindowCenterWidthExplanation": "Algo1",
        "dBdt": 0.0
      },
      "slices": {}
    },
    "modality": "bold",
    "session_id": "003",
    "subject_id": "01",
    "task_id": "wolf03",
    "time": {
      "samples": {
        "AcquisitionNumber": [
          1,
          2,
          3,
          4,
          5,
          6,
          7,
          8,
          9,
          10,
          11,
          12,
          13,
          14,
          15,
          16,
          17,
          18,
          19,
          20,
          21,
          22,
          23,
          24,
          25,
          26,
          27,
          28,
          29,
          30,
          31,
          32,
          33,
          34,
          35,
          36,
          37,
          38,
          39,
          40,
          41,
          42,
          43,
          44,
          45,
          46,
          47,
          48,
          49,
          50,
          51,
          52,
          53,
          54,
          55,
          56,
          57,
          58,
          59,
          60,
          61,
          62,
          63,
          64,
          65,
          66,
          67,
          68,
          69,
          70,
          71,
          72,
          73,
          74,
          75,
          76,
          77,
          78,
          79,
          80,
          81,
          82,
          83,
          84,
          85,
          86,
          87,
          88,
          89,
          90,
          91,
          92,
          93,
          94,
          95,
          96,
          97,
          98,
          99,
          100,
          101,
          102,
          103,
          104,
          105,
          106,
          107,
          108,
          109,
          110,
          111,
          112,
          113,
          114,
          115,
          116,
          117,
          118,
          119,
          120,
          121,
          122,
          123,
          124,
          125,
          126,
          127,
          128,
          129,
          130,
          131,
          132,
          133,
          134,
          135,
          136,
          137,
          138,
          139,
          140,
          141,
          142,
          143,
          144,
          145,
          146,
          147,
          148,
          149,
          150,
          151,
          152,
          153,
          154,
          155,
          156,
          157,
          158,
          159,
          160,
          161,
          162,
          163,
          164,
          165,
          166,
          167,
          168,
          169,
          170,
          171,
          172,
          173,
          174,
          175,
          176,
          177,
          178,
          179,
          180,
          181,
          182,
          183,
          184,
          185,
          186,
          187,
          188,
          189,
          190,
          191,
          192,
          193,
          194,
          195,
          196,
          197,
          198,
          199,
          200,
          201,
          202,
          203,
          204,
          205,
          206,
          207,
          208,
          209,
          210,
          211,
          212,
          213,
          214,
          215,
          216,
          217,
          218,
          219,
          220,
          221,
          222,
          223,
          224,
          225,
          226,
          227,
          228,
          229,
          230,
          231,
          232,
          233,
          234,
          235,
          236,
          237,
          238,
          239,
          240,
          241,
          242,
          243,
          244,
          245,
          246,
          247,
          248,
          249,
          250,
          251,
          252,
          253,
          254,
          255,
          256,
          257,
          258,
          259,
          260,
          261,
          262,
          263,
          264,
          265,
          266,
          267,
          268,
          269,
          270,
          271,
          272,
          273,
          274,
          275,
          276,
          277,
          278,
          279,
          280,
          281,
          282,
          283,
          284,
          285,
          286,
          287,
          288,
          289,
          290,
          291,
          292,
          293,
          294,
          295,
          296,
          297,
          298,
          299,
          300,
          301,
          302,
          303,
          304,
          305,
          306,
          307,
          308,
          309,
          310,
          311,
          312,
          313,
          314,
          315,
          316,
          317,
          318,
          319,
          320,
          321,
          322,
          323,
          324,
          325,
          326,
          327,
          328,
          329,
          330,
          331,
          332,
          333,
          334,
          335,
          336,
          337,
          338,
          339,
          340,
          341,
          342,
          343,
          344,
          345,
          346,
          347,
          348,
          349,
          350,
          351,
          352,
          353,
          354,
          355,
          356,
          357,
          358,
          359,
          360,
          361,
          362,
          363,
          364,
          365,
          366,
          367,
          368,
          369,
          370,
          371,
          372,
          373,
          374,
          375,
          376,
          377,
          378,
          379,
          380,
          381,
          382,
          383,
          384,
          385,
          386,
          387,
          388,
          389,
          390,
          391,
          392,
          393,
          394,
          395,
          396,
          397,
          398,
          399,
          400,
          401,
          402,
          403,
          404,
          405,
          406
        ],
        "AcquisitionTime": [
          "111327.482500",
          "111328.972500",
          "111330.462500",
          "111331.952500",
          "111333.442500",
          "111334.932500",
          "111336.422500",
          "111337.912500",
          "111339.402500",
          "111340.892500",
          "111342.382500",
          "111343.872500",
          "111345.362500",
          "111346.852500",
          "111348.342500",
          "111349.832500",
          "111351.322500",
          "111352.812500",
          "111354.302500",
          "111355.792500",
          "111357.282500",
          "111358.772500",
          "111400.262500",
          "111401.752500",
          "111403.242500",
          "111404.732500",
          "111406.222500",
          "111407.712500",
          "111409.202500",
          "111410.692500",
          "111412.182500",
          "111413.672500",
          "111415.162500",
          "111416.652500",
          "111418.142500",
          "111419.632500",
          "111421.122500",
          "111422.612500",
          "111424.102500",
          "111425.592500",
          "111427.082500",
          "111428.572500",
          "111430.062500",
          "111431.552500",
          "111433.042500",
          "111434.532500",
          "111436.022500",
          "111437.512500",
          "111439.002500",
          "111440.492500",
          "111441.982500",
          "111443.472500",
          "111444.962500",
          "111446.452500",
          "111447.942500",
          "111449.432500",
          "111450.922500",
          "111452.412500",
          "111453.902500",
          "111455.392500",
          "111456.882500",
          "111458.372500",
          "111459.862500",
          "111501.352500",
          "111502.842500",
          "111504.332500",
          "111505.822500",
          "111507.312500",
          "111508.802500",
          "111510.292500",
          "111511.782500",
          "111513.272500",
          "111514.762500",
          "111516.252500",
          "111517.742500",
          "111519.232500",
          "111520.722500",
          "111522.212500",
          "111523.702500",
          "111525.192500",
          "111526.682500",
          "111528.172500",
          "111529.662500",
          "111531.152500",
          "111532.642500",
          "111534.132500",
          "111535.622500",
          "111537.112500",
          "111538.602500",
          "111540.092500",
          "111541.582500",
          "111543.072500",
          "111544.562500",
          "111546.052500",
          "111547.542500",
          "111549.032500",
          "111550.522500",
          "111552.012500",
          "111553.502500",
          "111554.992500",
          "111556.482500",
          "111557.972500",
          "111559.462500",
          "111600.952500",
          "111602.442500",
          "111603.932500",
          "111605.422500",
          "111606.912500",
          "111608.402500",
          "111609.892500",
          "111611.382500",
          "111612.872500",
          "111614.362500",
          "111615.852500",
          "111617.342500",
          "111618.832500",
          "111620.322500",
          "111621.812500",
          "111623.302500",
          "111624.792500",
          "111626.282500",
          "111627.772500",
          "111629.262500",
          "111630.752500",
          "111632.242500",
          "111633.732500",
          "111635.222500",
          "111636.712500",
          "111638.202500",
          "111639.692500",
          "111641.182500",
          "111642.672500",
          "111644.162500",
          "111645.652500",
          "111647.142500",
          "111648.632500",
          "111650.122500",
          "111651.612500",
          "111653.102500",
          "111654.592500",
          "111656.082500",
          "111657.572500",
          "111659.062500",
          "111700.552500",
          "111702.042500",
          "111703.532500",
          "111705.022500",
          "111706.512500",
          "111708.002500",
          "111709.492500",
          "111710.982500",
          "111712.472500",
          "111713.962500",
          "111715.452500",
          "111716.942500",
          "111718.432500",
          "111719.922500",
          "111721.412500",
          "111722.902500",
          "111724.392500",
          "111725.882500",
          "111727.372500",
          "111728.862500",
          "111730.352500",
          "111731.842500",
          "111733.332500",
          "111734.822500",
          "111736.312500",
          "111737.802500",
          "111739.292500",
          "111740.782500",
          "111742.272500",
          "111743.762500",
          "111745.252500",
          "111746.742500",
          "111748.232500",
          "111749.722500",
          "111751.212500",
          "111752.702500",
          "111754.192500",
          "111755.682500",
          "111757.172500",
          "111758.662500",
          "111800.152500",
          "111801.642500",
          "111803.132500",
          "111804.622500",
          "111806.112500",
          "111807.602500",
          "111809.092500",
          "111810.582500",
          "111812.072500",
          "111813.562500",
          "111815.052500",
          "111816.542500",
          "111818.032500",
          "111819.522500",
          "111821.012500",
          "111822.502500",
          "111823.992500",
          "111825.482500",
          "111826.972500",
          "111828.462500",
          "111829.952500",
          "111831.442500",
          "111832.932500",
          "111834.422500",
          "111835.912500",
          "111837.402500",
          "111838.892500",
          "111840.382500",
          "111841.872500",
          "111843.362500",
          "111844.852500",
          "111846.342500",
          "111847.832500",
          "111849.322500",
          "111850.812500",
          "111852.302500",
          "111853.792500",
          "111855.282500",
          "111856.772500",
          "111858.262500",
          "111859.752500",
          "111901.242500",
          "111902.732500",
          "111904.222500",
          "111905.712500",
          "111907.202500",
          "111908.692500",
          "111910.182500",
          "111911.672500",
          "111913.162500",
          "111914.652500",
          "111916.142500",
          "111917.632500",
          "111919.122500",
          "111920.612500",
          "111922.102500",
          "111923.592500",
          "111925.082500",
          "111926.572500",
          "111928.062500",
          "111929.552500",
          "111931.042500",
          "111932.532500",
          "111934.022500",
          "111935.512500",
          "111937.002500",
          "111938.492500",
          "111939.982500",
          "111941.472500",
          "111942.962500",
          "111944.452500",
          "111945.942500",
          "111947.432500",
          "111948.922500",
          "111950.412500",
          "111951.902500",
          "111953.392500",
          "111954.882500",
          "111956.372500",
          "111957.862500",
          "111959.352500",
          "112000.842500",
          "112002.332500",
          "112003.822500",
          "112005.312500",
          "112006.802500",
          "112008.292500",
          "112009.782500",
          "112011.272500",
          "112012.762500",
          "112014.252500",
          "112015.742500",
          "112017.232500",
          "112018.722500",
          "112020.212500",
          "112021.702500",
          "112023.192500",
          "112024.682500",
          "112026.172500",
          "112027.662500",
          "112029.152500",
          "112030.642500",
          "112032.132500",
          "112033.622500",
          "112035.112500",
          "112036.602500",
          "112038.092500",
          "112039.582500",
          "112041.072500",
          "112042.562500",
          "112044.052500",
          "112045.542500",
          "112047.032500",
          "112048.522500",
          "112050.012500",
          "112051.502500",
          "112052.992500",
          "112054.482500",
          "112055.972500",
          "112057.462500",
          "112058.952500",
          "112100.442500",
          "112101.932500",
          "112103.422500",
          "112104.912500",
          "112106.402500",
          "112107.892500",
          "112109.382500",
          "112110.872500",
          "112112.362500",
          "112113.852500",
          "112115.342500",
          "112116.832500",
          "112118.322500",
          "112119.812500",
          "112121.302500",
          "112122.792500",
          "112124.282500",
          "112125.772500",
          "112127.262500",
          "112128.752500",
          "112130.242500",
          "112131.732500",
          "112133.222500",
          "112134.712500",
          "112136.202500",
          "112137.692500",
          "112139.182500",
          "112140.672500",
          "112142.162500",
          "112143.652500",
          "112145.142500",
          "112146.632500",
          "112148.122500",
          "112149.612500",
          "112151.102500",
          "112152.592500",
          "112154.082500",
          "112155.572500",
          "112157.062500",
          "112158.552500",
          "112200.042500",
          "112201.532500",
          "112203.022500",
          "112204.512500",
          "112206.002500",
          "112207.492500",
          "112208.982500",
          "112210.472500",
          "112211.962500",
          "112213.452500",
          "112214.942500",
          "112216.432500",
          "112217.922500",
          "112219.412500",
          "112220.902500",
          "112222.392500",
          "112223.882500",
          "112225.372500",
          "112226.862500",
          "112228.352500",
          "112229.842500",
          "112231.332500",
          "112232.822500",
          "112234.312500",
          "112235.802500",
          "112237.292500",
          "112238.782500",
          "112240.272500",
          "112241.762500",
          "112243.252500",
          "112244.742500",
          "112246.232500",
          "112247.722500",
          "112249.212500",
          "112250.702500",
          "112252.192500",
          "112253.682500",
          "112255.172500",
          "112256.662500",
          "112258.152500",
          "112259.642500",
          "112301.132500",
          "112302.622500",
          "112304.112500",
          "112305.602500",
          "112307.092500",
          "112308.582500",
          "112310.072500",
          "112311.562500",
          "112313.052500",
          "112314.542500",
          "112316.032500",
          "112317.522500",
          "112319.012500",
          "112320.502500",
          "112321.992500",
          "112323.482500",
          "112324.972500",
          "112326.462500",
          "112327.952500",
          "112329.442500",
          "112330.932500"
        ],
        "ContentTime": [
          "111458.634000",
          "111458.638000",
          "111458.643000",
          "111458.646000",
          "111458.649000",
          "111458.652000",
          "111458.655000",
          "111458.658000",
          "111458.660000",
          "111458.663000",
          "111458.666000",
          "111458.669000",
          "111458.672000",
          "111458.675000",
          "111458.678000",
          "111458.681000",
          "111458.684000",
          "111458.688000",
          "111458.691000",
          "111458.694000",
          "111458.697000",
          "111458.700000",
          "111458.703000",
          "111458.706000",
          "111458.709000",
          "111458.712000",
          "111458.715000",
          "111458.718000",
          "111458.721000",
          "111458.723000",
          "111458.726000",
          "111458.729000",
          "111458.732000",
          "111458.735000",
          "111518.608000",
          "111518.611000",
          "111518.614000",
          "111518.617000",
          "111518.620000",
          "111518.623000",
          "111518.626000",
          "111518.629000",
          "111518.632000",
          "111518.635000",
          "111518.637000",
          "111518.640000",
          "111518.643000",
          "111518.646000",
          "111518.649000",
          "111518.652000",
          "111518.655000",
          "111518.662000",
          "111518.665000",
          "111518.668000",
          "111538.608000",
          "111538.611000",
          "111538.614000",
          "111538.617000",
          "111538.620000",
          "111538.623000",
          "111538.626000",
          "111538.629000",
          "111538.632000",
          "111538.635000",
          "111538.637000",
          "111538.640000",
          "111538.643000",
          "111538.646000",
          "111538.654000",
          "111538.657000",
          "111538.660000",
          "111538.663000",
          "111538.666000",
          "111538.669000",
          "111558.609000",
          "111558.612000",
          "111558.615000",
          "111558.618000",
          "111558.621000",
          "111558.624000",
          "111558.627000",
          "111558.630000",
          "111558.633000",
          "111558.636000",
          "111558.639000",
          "111558.642000",
          "111558.645000",
          "111558.647000",
          "111558.659000",
          "111558.662000",
          "111558.665000",
          "111558.668000",
          "111558.671000",
          "111558.674000",
          "111618.609000",
          "111618.612000",
          "111618.615000",
          "111618.618000",
          "111618.621000",
          "111618.624000",
          "111618.627000",
          "111618.630000",
          "111618.633000",
          "111618.636000",
          "111618.639000",
          "111618.641000",
          "111618.644000",
          "111618.647000",
          "111618.650000",
          "111618.653000",
          "111618.656000",
          "111618.659000",
          "111618.662000",
          "111618.665000",
          "111658.609000",
          "111658.612000",
          "111658.615000",
          "111658.618000",
          "111658.621000",
          "111658.624000",
          "111658.627000",
          "111658.630000",
          "111658.633000",
          "111658.636000",
          "111658.639000",
          "111658.642000",
          "111658.645000",
          "111658.648000",
          "111658.651000",
          "111658.654000",
          "111658.657000",
          "111658.660000",
          "111658.663000",
          "111658.666000",
          "111658.669000",
          "111658.672000",
          "111658.674000",
          "111658.677000",
          "111658.680000",
          "111658.683000",
          "111658.686000",
          "111738.608000",
          "111738.611000",
          "111738.614000",
          "111738.617000",
          "111738.620000",
          "111738.623000",
          "111738.626000",
          "111738.629000",
          "111738.632000",
          "111738.635000",
          "111738.638000",
          "111738.641000",
          "111738.644000",
          "111738.647000",
          "111738.650000",
          "111738.653000",
          "111738.655000",
          "111738.658000",
          "111738.661000",
          "111738.676000",
          "111738.679000",
          "111738.681000",
          "111738.684000",
          "111738.687000",
          "111738.690000",
          "111738.693000",
          "111738.696000",
          "111818.609000",
          "111818.612000",
          "111818.615000",
          "111818.618000",
          "111818.621000",
          "111818.624000",
          "111818.627000",
          "111818.630000",
          "111818.633000",
          "111818.636000",
          "111818.639000",
          "111818.642000",
          "111818.645000",
          "111818.648000",
          "111818.651000",
          "111818.654000",
          "111818.657000",
          "111818.660000",
          "111818.663000",
          "111818.666000",
          "111818.669000",
          "111818.672000",
          "111818.675000",
          "111818.678000",
          "111818.681000",
          "111818.684000",
          "111818.686000",
          "111858.609000",
          "111858.612000",
          "111858.615000",
          "111858.618000",
          "111858.621000",
          "111858.624000",
          "111858.627000",
          "111858.630000",
          "111858.633000",
          "111858.636000",
          "111858.639000",
          "111858.642000",
          "111858.645000",
          "111858.648000",
          "111858.651000",
          "111858.654000",
          "111858.657000",
          "111858.660000",
          "111858.663000",
          "111858.665000",
          "111858.668000",
          "111858.671000",
          "111858.674000",
          "111858.677000",
          "111858.680000",
          "111858.692000",
          "111938.608000",
          "111938.611000",
          "111938.614000",
