{
  "aor": 0.0008326044226044226,
  "aqi": 0.007066133194103193,
  "bids_meta": {
    "AcquisitionMatrixPE": 104,
    "AcquisitionNumber": 1,
    "AcquisitionTime": "15:46:27.632500",
    "BandwidthPerPixelPhaseEncode": 17.17,
    "BaseResolution": 104,
    "BodyPartExamined": "BRAIN",
    "CogAtlasID": "trm_4c898da401420",
    "ConsistencyInfo": "N4_VE11C_LATEST_20160120",
    "ConversionSoftware": "dcm2niix",
    "ConversionSoftwareVersion": "v1.0.20171215 (OpenJPEG build) GCC7.3.0",
    "DerivedVendorReportedEchoSpacing": 0.000560011,
    "DeviceSerialNumber": "167006",
    "DwellTime": 2.1e-06,
    "EchoTime": 0.037,
    "EchoTrainLength": 104,
    "EffectiveEchoSpacing": 0.000560011,
    "FlipAngle": 52,
    "ImageComments": "Unaliased_MB4_PE3_LB",
    "ImageOrientationPatientDICOM": [
      0.999349,
      0.0122577,
      -0.0339184,
      -0.0223294,
      0.948828,
      -0.315004
    ],
    "ImageType": [
      "ORIGINAL",
      "PRIMARY",
      "M",
      "MB",
      "ND",
      "MOSAIC"
    ],
    "InPlanePhaseEncodingDirectionDICOM": "COL",
    "InstitutionAddress": "Chemin_Queen-Mary_4565_Montreal_District_CA_H3W_1W5",
    "InstitutionName": "IUGM",
    "InstitutionalDepartmentName": "Department",
    "MRAcquisitionType": "2D",
    "MagneticFieldStrength": 3,
    "Manufacturer": "Siemens",
    "ManufacturersModelName": "Prisma_fit",
    "Modality": "MR",
    "MultibandAccelerationFactor": 4,
    "PartialFourier": 1,
    "PatientPosition": "HFS",
    "PercentPhaseFOV": 100,
    "PhaseEncodingDirection": "j-",
    "PhaseEncodingSteps": 104,
    "PhaseResolution": 1,
    "PixelBandwidth": 2290,
    "ProcedureStepDescription": "video5_generic",
    "ProtocolName": "func_task-figures9",
    "PulseSequenceDetails": "%CustomerSeq%_cmrr_mbep2d_bold",
    "ReceiveCoilActiveElements": "HC1-7;NC1,2",
    "ReceiveCoilName": "HeadNeck_64",
    "ReconMatrixPE": 104,
    "RepetitionTime": 1.49,
    "SAR": 0.0293569,
    "ScanOptions": "FS",
    "ScanningSequence": "EP",
    "SequenceName": "epfid2d1_104",
    "SequenceVariant": "SK_SS",
    "SeriesDescription": "func_task-figures9",
    "SeriesNumber": 11,
    "ShimSetting": [
      639,
      -7257,
      -8841,
      566,
      51,
      -230,
      -127,
      3
    ],
    "SliceThickness": 2,
    "SliceTiming": [
      0,
      0.7825,
      0.0975,
      0.88,
      0.195,
      0.98,
      0.2925,
      1.0775,
      0.39,
      1.175,
      0.49,
      1.2725,
      0.5875,
      1.37,
      0.685,
      0,
      0.7825,
      0.0975,
      0.88,
      0.195,
      0.98,
      0.2925,
      1.0775,
      0.39,
      1.175,
      0.49,
      1.2725,
      0.5875,
      1.37,
      0.685,
      0,
      0.7825,
      0.0975,
      0.88,
      0.195,
      0.98,
      0.2925,
      1.0775,
      0.39,
      1.175,
      0.49,
      1.2725,
      0.5875,
      1.37,
      0.685,
      0,
      0.7825,
      0.0975,
      0.88,
      0.195,
      0.98,
      0.2925,
      1.0775,
      0.39,
      1.175,
      0.49,
      1.2725,
      0.5875,
      1.37,
      0.685
    ],
    "SoftwareVersions": "syngo_MR_E11",
    "SpacingBetweenSlices": 2,
    "StationName": "MRC35049",
    "TaskName": "figures09",
    "TotalReadoutTime": 0.0576811,
    "TxRefAmp": 219.483,
    "dataset": "<unset>",
    "dcmmeta_affine": [
      [
        -1.9986988306045532,
        -0.04465882480144501,
        -0.05664287880063057,
        107.83293914794922
      ],
      [
        -0.0245154220610857,
        1.8976550102233887,
        -0.6311136484146118,
        -69.91526794433594
      ],
      [
        -0.0678367167711258,
        0.6300087571144104,
        1.896967887878418,
        -66.38111877441406
      ],
      [
        0.0,
        0.0,
        0.0,
        1.0
      ]
    ],
    "dcmmeta_reorient_transform": [
      [
        0.0,
        -1.0,
        0.0,
        103.0
      ],
      [
        1.0,
        0.0,
        0.0,
        0.0
      ],
      [
        0.0,
        0.0,
        1.0,
        0.0
      ],
      [
        0.0,
        0.0,
        0.0,
        1.0
      ]
    ],
    "dcmmeta_shape": [
      104,
      104,
      60,
      410
    ],
    "dcmmeta_slice_dim": 2,
    "dcmmeta_version": 0.6,
    "global": {
      "const": {
        "AcquisitionMatrix": [
          104,
          0,
          0,
          104
        ],
        "AngioFlag": "N",
        "BitsAllocated": 16,
        "BitsStored": 16,
        "BodyPartExamined": "BRAIN",
        "Columns": 832,
        "EchoNumbers": 1,
        "EchoTime": 37.0,
        "EchoTrainLength": 104,
        "FlipAngle": 52.0,
        "HighBit": 15,
        "ImageOrientationPatient": [
          0.99934943511071,
          0.01225771077135,
          -0.0339183589012,
          -0.0223294116547,
          0.94882750523132,
          -0.3150043851943
        ],
        "ImagePositionPatient": [
          -814.50366109086,
          -825.21323365282,
          252.52554010406
        ],
        "ImageType": [
          "ORIGINAL",
          "PRIMARY",
          "M",
          "MB",
          "ND",
          "MOSAIC"
        ],
        "ImagedNucleus": "1H",
        "ImagingFrequency": 123.259397,
        "InPlanePhaseEncodingDirection": "COL",
        "MRAcquisitionType": "2D",
        "MagneticFieldStrength": 3.0,
        "Manufacturer": "SIEMENS",
        "ManufacturerModelName": "Prisma_fit",
        "Modality": "MR",
        "NumberOfAverages": 1.0,
        "NumberOfPhaseEncodingSteps": 104,
        "PercentPhaseFieldOfView": 100.0,
        "PercentSampling": 100.0,
        "PerformedProcedureStepStartTime": "150633.219000",
        "PhotometricInterpretation": "MONOCHROME2",
        "PixelBandwidth": 2290.0,
        "PixelRepresentation": 0,
        "PixelSpacing": [
          2.0,
          2.0
        ],
        "ProtocolName": "func_task-figures9",
        "RepetitionTime": 1490.0,
        "Rows": 832,
        "SAR": 0.0293569401304,
        "SamplesPerPixel": 1,
        "ScanOptions": "FS",
        "ScanningSequence": "EP",
        "SequenceName": "epfid2d1_104",
        "SequenceVariant": [
          "SK",
          "SS"
        ],
        "SeriesDescription": "func_task-figures9",
        "SeriesNumber": 11,
        "SeriesTime": "154730.668000",
        "SliceLocation": -43.95317023091,
        "SliceThickness": 2.0,
        "SmallestImagePixelValue": 0,
        "SoftwareVersions": "syngo MR E11",
        "SpacingBetweenSlices": 1.9999999849795,
        "SpecificCharacterSet": "ISO_IR 100",
        "StudyID": "1",
        "StudyTime": "150633.161000",
        "TransmitCoilName": "Body",
        "VariableFlipAngleFlag": "N",
        "WindowCenterWidthExplanation": "Algo1",
        "dBdt": 0.0
      },
      "slices": {}
    },
    "modality": "bold",
    "run_id": 1,
    "session_id": "003",
    "subject_id": "06",
    "task_id": "figures09",
    "time": {
      "samples": {
        "AcquisitionNumber": [
          1,
          2,
          3,
          4,
          5,
          6,
          7,
          8,
          9,
          10,
          11,
          12,
          13,
          14,
          15,
          16,
          17,
          18,
          19,
          20,
          21,
          22,
          23,
          24,
          25,
          26,
          27,
          28,
          29,
          30,
          31,
          32,
          33,
          34,
          35,
          36,
          37,
          38,
          39,
          40,
          41,
          42,
          43,
          44,
          45,
          46,
          47,
          48,
          49,
          50,
          51,
          52,
          53,
          54,
          55,
          56,
          57,
          58,
          59,
          60,
          61,
          62,
          63,
          64,
          65,
          66,
          67,
          68,
          69,
          70,
          71,
          72,
          73,
          74,
          75,
          76,
          77,
          78,
          79,
          80,
          81,
          82,
          83,
          84,
          85,
          86,
          87,
          88,
          89,
          90,
          91,
          92,
          93,
          94,
          95,
          96,
          97,
          98,
          99,
          100,
          101,
          102,
          103,
          104,
          105,
          106,
          107,
          108,
          109,
          110,
          111,
          112,
          113,
          114,
          115,
          116,
          117,
          118,
          119,
          120,
          121,
          122,
          123,
          124,
          125,
          126,
          127,
          128,
          129,
          130,
          131,
          132,
          133,
          134,
          135,
          136,
          137,
          138,
          139,
          140,
          141,
          142,
          143,
          144,
          145,
          146,
          147,
          148,
          149,
          150,
          151,
          152,
          153,
          154,
          155,
          156,
          157,
          158,
          159,
          160,
          161,
          162,
          163,
          164,
          165,
          166,
          167,
          168,
          169,
          170,
          171,
          172,
          173,
          174,
          175,
          176,
          177,
          178,
          179,
          180,
          181,
          182,
          183,
          184,
          185,
          186,
          187,
          188,
          189,
          190,
          191,
          192,
          193,
          194,
          195,
          196,
          197,
          198,
          199,
          200,
          201,
          202,
          203,
          204,
          205,
          206,
          207,
          208,
          209,
          210,
          211,
          212,
          213,
          214,
          215,
          216,
          217,
          218,
          219,
          220,
          221,
          222,
          223,
          224,
          225,
          226,
          227,
          228,
          229,
          230,
          231,
          232,
          233,
          234,
          235,
          236,
          237,
          238,
          239,
          240,
          241,
          242,
          243,
          244,
          245,
          246,
          247,
          248,
          249,
          250,
          251,
          252,
          253,
          254,
          255,
          256,
          257,
          258,
          259,
          260,
          261,
          262,
          263,
          264,
          265,
          266,
          267,
          268,
          269,
          270,
          271,
          272,
          273,
          274,
          275,
          276,
          277,
          278,
          279,
          280,
          281,
          282,
          283,
          284,
          285,
          286,
          287,
          288,
          289,
          290,
          291,
          292,
          293,
          294,
          295,
          296,
          297,
          298,
          299,
          300,
          301,
          302,
          303,
          304,
          305,
          306,
          307,
          308,
          309,
          310,
          311,
          312,
          313,
          314,
          315,
          316,
          317,
          318,
          319,
          320,
          321,
          322,
          323,
          324,
          325,
          326,
          327,
          328,
          329,
          330,
          331,
          332,
          333,
          334,
          335,
          336,
          337,
          338,
          339,
          340,
          341,
          342,
          343,
          344,
          345,
          346,
          347,
          348,
          349,
          350,
          351,
          352,
          353,
          354,
          355,
          356,
          357,
          358,
          359,
          360,
          361,
          362,
          363,
          364,
          365,
          366,
          367,
          368,
          369,
          370,
          371,
          372,
          373,
          374,
          375,
          376,
          377,
          378,
          379,
          380,
          381,
          382,
          383,
          384,
          385,
          386,
          387,
          388,
          389,
          390,
          391,
          392,
          393,
          394,
          395,
          396,
          397,
          398,
          399,
          400,
          401,
          402,
          403,
          404,
          405,
          406,
          407,
          408,
          409,
          410
        ],
        "AcquisitionTime": [
          "154627.632500",
          "154629.122500",
          "154630.612500",
          "154632.102500",
          "154633.592500",
          "154635.082500",
          "154636.572500",
          "154638.062500",
          "154639.552500",
          "154641.042500",
          "154642.532500",
          "154644.022500",
          "154645.512500",
          "154647.002500",
          "154648.492500",
          "154649.982500",
          "154651.472500",
          "154652.962500",
          "154654.452500",
          "154655.942500",
          "154657.432500",
          "154658.922500",
          "154700.412500",
          "154701.902500",
          "154703.392500",
          "154704.882500",
          "154706.372500",
          "154707.862500",
          "154709.352500",
          "154710.842500",
          "154712.332500",
          "154713.822500",
          "154715.312500",
          "154716.802500",
          "154718.292500",
          "154719.782500",
          "154721.272500",
          "154722.762500",
          "154724.252500",
          "154725.742500",
          "154727.232500",
          "154728.722500",
          "154730.212500",
          "154731.702500",
          "154733.192500",
          "154734.682500",
          "154736.172500",
          "154737.662500",
          "154739.152500",
          "154740.642500",
          "154742.132500",
          "154743.622500",
          "154745.112500",
          "154746.602500",
          "154748.092500",
          "154749.582500",
          "154751.072500",
          "154752.562500",
          "154754.052500",
          "154755.542500",
          "154757.032500",
          "154758.522500",
          "154800.012500",
          "154801.502500",
          "154802.992500",
          "154804.482500",
          "154805.972500",
          "154807.462500",
          "154808.952500",
          "154810.442500",
          "154811.932500",
          "154813.422500",
          "154814.912500",
          "154816.402500",
          "154817.892500",
          "154819.382500",
          "154820.872500",
          "154822.362500",
          "154823.852500",
          "154825.342500",
          "154826.832500",
          "154828.322500",
          "154829.812500",
          "154831.302500",
          "154832.792500",
          "154834.282500",
          "154835.772500",
          "154837.262500",
          "154838.752500",
          "154840.242500",
          "154841.732500",
          "154843.222500",
          "154844.712500",
          "154846.202500",
          "154847.692500",
          "154849.182500",
          "154850.672500",
          "154852.162500",
          "154853.652500",
          "154855.142500",
          "154856.632500",
          "154858.122500",
          "154859.612500",
          "154901.102500",
          "154902.592500",
          "154904.082500",
          "154905.572500",
          "154907.062500",
          "154908.552500",
          "154910.042500",
          "154911.532500",
          "154913.022500",
          "154914.512500",
          "154916.002500",
          "154917.492500",
          "154918.982500",
          "154920.472500",
          "154921.962500",
          "154923.452500",
          "154924.942500",
          "154926.432500",
          "154927.922500",
          "154929.412500",
          "154930.902500",
          "154932.392500",
          "154933.882500",
          "154935.372500",
          "154936.862500",
          "154938.352500",
          "154939.842500",
          "154941.332500",
          "154942.822500",
          "154944.312500",
          "154945.802500",
          "154947.292500",
          "154948.782500",
          "154950.272500",
          "154951.762500",
          "154953.252500",
          "154954.742500",
          "154956.232500",
          "154957.722500",
          "154959.212500",
          "155000.702500",
          "155002.192500",
          "155003.682500",
          "155005.172500",
          "155006.662500",
          "155008.152500",
          "155009.642500",
          "155011.132500",
          "155012.622500",
          "155014.112500",
          "155015.602500",
          "155017.092500",
          "155018.582500",
          "155020.072500",
          "155021.562500",
          "155023.052500",
          "155024.542500",
          "155026.032500",
          "155027.522500",
          "155029.012500",
          "155030.502500",
          "155031.992500",
          "155033.482500",
          "155034.972500",
          "155036.462500",
          "155037.952500",
          "155039.442500",
          "155040.932500",
          "155042.422500",
          "155043.912500",
          "155045.402500",
          "155046.892500",
          "155048.382500",
          "155049.872500",
          "155051.362500",
          "155052.852500",
          "155054.342500",
          "155055.832500",
          "155057.322500",
          "155058.812500",
          "155100.302500",
          "155101.792500",
          "155103.282500",
          "155104.772500",
          "155106.262500",
          "155107.752500",
          "155109.242500",
          "155110.732500",
          "155112.222500",
          "155113.712500",
          "155115.202500",
          "155116.692500",
          "155118.182500",
          "155119.672500",
          "155121.162500",
          "155122.652500",
          "155124.142500",
          "155125.632500",
          "155127.122500",
          "155128.612500",
          "155130.102500",
          "155131.592500",
          "155133.082500",
          "155134.572500",
          "155136.062500",
          "155137.552500",
          "155139.042500",
          "155140.532500",
          "155142.022500",
          "155143.512500",
          "155145.002500",
          "155146.492500",
          "155147.982500",
          "155149.472500",
          "155150.962500",
          "155152.452500",
          "155153.942500",
          "155155.432500",
          "155156.922500",
          "155158.412500",
          "155159.902500",
          "155201.392500",
          "155202.882500",
          "155204.372500",
          "155205.862500",
          "155207.352500",
          "155208.842500",
          "155210.332500",
          "155211.822500",
          "155213.312500",
          "155214.802500",
          "155216.292500",
          "155217.782500",
          "155219.272500",
          "155220.762500",
          "155222.252500",
          "155223.742500",
          "155225.232500",
          "155226.722500",
          "155228.212500",
          "155229.702500",
          "155231.192500",
          "155232.682500",
          "155234.172500",
          "155235.662500",
          "155237.152500",
          "155238.642500",
          "155240.132500",
          "155241.622500",
          "155243.112500",
          "155244.602500",
          "155246.092500",
          "155247.582500",
          "155249.072500",
          "155250.562500",
          "155252.052500",
          "155253.542500",
          "155255.032500",
          "155256.522500",
          "155258.012500",
          "155259.502500",
          "155300.992500",
          "155302.482500",
          "155303.972500",
          "155305.462500",
          "155306.952500",
          "155308.442500",
          "155309.932500",
          "155311.422500",
          "155312.912500",
          "155314.402500",
          "155315.892500",
          "155317.382500",
          "155318.872500",
          "155320.362500",
          "155321.852500",
          "155323.342500",
          "155324.832500",
          "155326.322500",
          "155327.812500",
          "155329.302500",
          "155330.792500",
          "155332.282500",
          "155333.772500",
          "155335.262500",
          "155336.752500",
          "155338.242500",
          "155339.732500",
          "155341.222500",
          "155342.712500",
          "155344.202500",
          "155345.692500",
          "155347.182500",
          "155348.672500",
          "155350.162500",
          "155351.652500",
          "155353.142500",
          "155354.632500",
          "155356.122500",
          "155357.612500",
          "155359.102500",
          "155400.592500",
          "155402.082500",
          "155403.572500",
          "155405.062500",
          "155406.552500",
          "155408.042500",
          "155409.532500",
          "155411.022500",
          "155412.512500",
          "155414.002500",
          "155415.492500",
          "155416.982500",
          "155418.472500",
          "155419.962500",
          "155421.452500",
          "155422.942500",
          "155424.432500",
          "155425.922500",
          "155427.412500",
          "155428.902500",
          "155430.392500",
          "155431.882500",
          "155433.372500",
          "155434.862500",
          "155436.352500",
          "155437.842500",
          "155439.332500",
          "155440.822500",
          "155442.312500",
          "155443.802500",
          "155445.292500",
          "155446.782500",
          "155448.272500",
          "155449.762500",
          "155451.252500",
          "155452.742500",
          "155454.232500",
          "155455.722500",
          "155457.212500",
          "155458.702500",
          "155500.192500",
          "155501.682500",
          "155503.172500",
          "155504.662500",
          "155506.152500",
          "155507.642500",
          "155509.132500",
          "155510.622500",
          "155512.112500",
          "155513.602500",
          "155515.092500",
          "155516.582500",
          "155518.072500",
          "155519.562500",
          "155521.052500",
          "155522.542500",
          "155524.032500",
          "155525.522500",
          "155527.012500",
          "155528.502500",
          "155529.992500",
          "155531.482500",
          "155532.972500",
          "155534.462500",
          "155535.952500",
          "155537.442500",
          "155538.932500",
          "155540.422500",
          "155541.912500",
          "155543.402500",
          "155544.892500",
          "155546.382500",
          "155547.872500",
          "155549.362500",
          "155550.852500",
          "155552.342500",
          "155553.832500",
          "155555.322500",
          "155556.812500",
          "155558.302500",
          "155559.792500",
          "155601.282500",
          "155602.772500",
          "155604.262500",
          "155605.752500",
          "155607.242500",
          "155608.732500",
          "155610.222500",
          "155611.712500",
          "155613.202500",
          "155614.692500",
          "155616.182500",
          "155617.672500",
          "155619.162500",
          "155620.652500",
          "155622.142500",
          "155623.632500",
          "155625.122500",
          "155626.612500",
          "155628.102500",
          "155629.592500",
          "155631.082500",
          "155632.572500",
          "155634.062500",
          "155635.552500",
          "155637.042500"
        ],
        "ContentTime": [
          "154730.671000",
          "154730.675000",
          "154730.678000",
          "154730.681000",
          "154730.684000",
          "154730.687000",
          "154730.692000",
          "154730.695000",
          "154730.698000",
          "154730.701000",
          "154750.636000",
          "154750.639000",
          "154750.642000",
          "154750.645000",
          "154750.648000",
          "154750.651000",
          "154750.654000",
          "154750.656000",
          "154750.659000",
          "154750.662000",
          "154750.665000",
          "154750.668000",
          "154750.671000",
          "154750.681000",
          "154750.684000",
          "154750.687000",
          "154750.690000",
          "154750.692000",
          "154750.695000",
          "154750.698000",
          "154810.636000",
          "154810.639000",
          "154810.642000",
          "154810.645000",
          "154810.648000",
          "154810.651000",
          "154810.654000",
          "154810.656000",
          "154810.659000",
          "154810.662000",
          "154810.674000",
          "154810.677000",
          "154810.680000",
          "154810.683000",
          "154810.685000",
          "154810.688000",
          "154810.691000",
          "154810.694000",
          "154810.697000",
          "154810.700000",
          "154830.636000",
          "154830.639000",
          "154830.642000",
          "154830.645000",
          "154830.648000",
          "154830.651000",
          "154830.654000",
          "154830.657000",
          "154830.660000",
          "154830.663000",
          "154830.666000",
          "154830.669000",
          "154830.671000",
          "154830.674000",
          "154830.677000",
          "154830.680000",
          "154830.683000",
          "154830.686000",
          "154830.689000",
          "154830.692000",
          "154830.695000",
          "154850.636000",
          "154850.639000",
          "154850.642000",
          "154850.645000",
          "154850.648000",
          "154850.651000",
          "154850.654000",
          "154850.657000",
          "154850.659000",
          "154850.662000",
          "154850.665000",
          "154850.668000",
          "154850.671000",
          "154850.674000",
          "154850.677000",
          "154850.680000",
          "154850.683000",
          "154850.685000",
          "154850.688000",
          "154850.691000",
          "154930.636000",
          "154930.639000",
          "154930.642000",
          "154930.651000",
          "154930.654000",
          "154930.657000",
          "154930.660000",
          "154930.663000",
          "154930.666000",
          "154930.669000",
          "154930.672000",
          "154930.675000",
          "154930.678000",
          "154930.680000",
          "154930.683000",
          "154930.686000",
          "154930.689000",
          "154930.692000",
          "154930.695000",
          "154930.698000",
          "154930.701000",
          "154930.704000",
          "154930.706000",
          "154930.709000",
          "154930.712000",
          "154930.715000",
          "154930.718000",
          "154930.721000",
          "154930.724000",
          "154930.727000",
          "154930.730000",
          "155010.636000",
          "155010.639000",
          "155010.642000",
          "155010.645000",
          "155010.648000",
          "155010.651000",
          "155010.654000",
          "155010.657000",
          "155010.660000",
          "155010.662000",
          "155010.665000",
          "155010.668000",
          "155010.671000",
          "155010.674000",
          "155010.677000",
          "155010.680000",
          "155010.683000",
          "155010.685000",
          "155010.688000",
          "155010.691000",
          "155010.694000",
          "155010.697000",
          "155010.700000",
          "155010.703000",
          "155010.706000",
          "155010.709000",
          "155010.712000",
          "155050.636000",
          "155050.639000",
          "155050.642000",
          "155050.645000",
          "155050.648000",
          "155050.651000",
          "155050.654000",
          "155050.657000",
          "155050.660000",
          "155050.662000",
          "155050.678000",
          "155050.681000",
          "155050.683000",
          "155050.686000",
          "155050.689000",
          "155050.692000",
          "155050.695000",
          "155050.698000",
          "155050.701000",
          "155050.704000",
          "155050.712000",
          "155050.715000",
          "155050.718000",
          "155050.721000",
          "155050.724000",
          "155050.727000",
          "155050.730000",
          "155130.635000",
          "155130.638000",
          "155130.641000",
          "155130.644000",
          "155130.647000",
          "155130.650000",
          "155130.653000",
          "155130.656000",
          "155130.659000",
          "155130.662000",
          "155130.664000",
          "155130.667000",
          "155130.670000",
          "155130.673000",
          "155130.676000",
          "155130.679000",
          "155130.682000",
          "155130.685000",
          "155130.688000",
          "155130.691000",
          "155130.694000",
          "155130.697000",
          "155130.700000",
          "155130.703000",
          "155130.705000",
          "155130.708000",
          "155130.711000",
          "155210.636000",
          "155210.639000",
          "155210.642000",
          "155210.645000",
          "155210.648000",
          "155210.651000",
          "155210.654000",
          "155210.657000",
          "155210.660000",
          "155210.663000",
          "155210.666000",
          "155210.669000",
          "155210.672000",
          "155210.675000",
