{
  "aor": 0.00037394607843137256,
  "aqi": 0.005985208357843138,
  "bids_meta": {
    "AcquisitionMatrixPE": 104,
    "AcquisitionNumber": 1,
    "AcquisitionTime": "15:35:46.862500",
    "BandwidthPerPixelPhaseEncode": 17.17,
    "BaseResolution": 104,
    "BodyPartExamined": "BRAIN",
    "CogAtlasID": "trm_4c898da401420",
    "ConsistencyInfo": "N4_VE11C_LATEST_20160120",
    "ConversionSoftware": "dcm2niix",
    "ConversionSoftwareVersion": "v1.0.20171215 (OpenJPEG build) GCC7.3.0",
    "DerivedVendorReportedEchoSpacing": 0.000560011,
    "DeviceSerialNumber": "167006",
    "DwellTime": 2.1e-06,
    "EchoTime": 0.037,
    "EchoTrainLength": 104,
    "EffectiveEchoSpacing": 0.000560011,
    "FlipAngle": 52,
    "ImageComments": "Unaliased_MB4_PE3_LB",
    "ImageOrientationPatientDICOM": [
      0.999349,
      0.0122577,
      -0.0339184,
      -0.0223294,
      0.948828,
      -0.315004
    ],
    "ImageType": [
      "ORIGINAL",
      "PRIMARY",
      "M",
      "MB",
      "ND",
      "MOSAIC"
    ],
    "InPlanePhaseEncodingDirectionDICOM": "COL",
    "InstitutionAddress": "Chemin_Queen-Mary_4565_Montreal_District_CA_H3W_1W5",
    "InstitutionName": "IUGM",
    "InstitutionalDepartmentName": "Department",
    "MRAcquisitionType": "2D",
    "MagneticFieldStrength": 3,
    "Manufacturer": "Siemens",
    "ManufacturersModelName": "Prisma_fit",
    "Modality": "MR",
    "MultibandAccelerationFactor": 4,
    "PartialFourier": 1,
    "PatientPosition": "HFS",
    "PercentPhaseFOV": 100,
    "PhaseEncodingDirection": "j-",
    "PhaseEncodingSteps": 104,
    "PhaseResolution": 1,
    "PixelBandwidth": 2290,
    "ProcedureStepDescription": "video5_generic",
    "ProtocolName": "func_task-figures8",
    "PulseSequenceDetails": "%CustomerSeq%_cmrr_mbep2d_bold",
    "ReceiveCoilActiveElements": "HC1-7;NC1,2",
    "ReceiveCoilName": "HeadNeck_64",
    "ReconMatrixPE": 104,
    "RepetitionTime": 1.49,
    "SAR": 0.0293569,
    "ScanOptions": "FS",
    "ScanningSequence": "EP",
    "SequenceName": "epfid2d1_104",
    "SequenceVariant": "SK_SS",
    "SeriesDescription": "func_task-figures8",
    "SeriesNumber": 9,
    "ShimSetting": [
      639,
      -7257,
      -8841,
      566,
      51,
      -230,
      -127,
      3
    ],
    "SliceThickness": 2,
    "SliceTiming": [
      0,
      0.785,
      0.0975,
      0.8825,
      0.1975,
      0.98,
      0.295,
      1.0775,
      0.3925,
      1.1775,
      0.49,
      1.275,
      0.5875,
      1.3725,
      0.6875,
      0,
      0.785,
      0.0975,
      0.8825,
      0.1975,
      0.98,
      0.295,
      1.0775,
      0.3925,
      1.1775,
      0.49,
      1.275,
      0.5875,
      1.3725,
      0.6875,
      0,
      0.785,
      0.0975,
      0.8825,
      0.1975,
      0.98,
      0.295,
      1.0775,
      0.3925,
      1.1775,
      0.49,
      1.275,
      0.5875,
      1.3725,
      0.6875,
      0,
      0.785,
      0.0975,
      0.8825,
      0.1975,
      0.98,
      0.295,
      1.0775,
      0.3925,
      1.1775,
      0.49,
      1.275,
      0.5875,
      1.3725,
      0.6875
    ],
    "SoftwareVersions": "syngo_MR_E11",
    "SpacingBetweenSlices": 2,
    "StationName": "MRC35049",
    "TaskName": "figures08",
    "TotalReadoutTime": 0.0576811,
    "TxRefAmp": 219.483,
    "dataset": "<unset>",
    "dcmmeta_affine": [
      [
        -1.9986988306045532,
        -0.04465882480144501,
        -0.05664287880063057,
        107.83293914794922
      ],
      [
        -0.0245154220610857,
        1.8976550102233887,
        -0.6311136484146118,
        -69.91526794433594
      ],
      [
        -0.0678367167711258,
        0.6300087571144104,
        1.896967887878418,
        -66.38111877441406
      ],
      [
        0.0,
        0.0,
        0.0,
        1.0
      ]
    ],
    "dcmmeta_reorient_transform": [
      [
        0.0,
        -1.0,
        0.0,
        103.0
      ],
      [
        1.0,
        0.0,
        0.0,
        0.0
      ],
      [
        0.0,
        0.0,
        1.0,
        0.0
      ],
      [
        0.0,
        0.0,
        0.0,
        1.0
      ]
    ],
    "dcmmeta_shape": [
      104,
      104,
      60,
      410
    ],
    "dcmmeta_slice_dim": 2,
    "dcmmeta_version": 0.6,
    "global": {
      "const": {
        "AcquisitionMatrix": [
          104,
          0,
          0,
          104
        ],
        "AngioFlag": "N",
        "BitsAllocated": 16,
        "BitsStored": 16,
        "BodyPartExamined": "BRAIN",
        "Columns": 832,
        "EchoNumbers": 1,
        "EchoTime": 37.0,
        "EchoTrainLength": 104,
        "FlipAngle": 52.0,
        "HighBit": 15,
        "ImageOrientationPatient": [
          0.99934943511071,
          0.01225771077135,
          -0.0339183589012,
          -0.0223294116547,
          0.94882750523132,
          -0.3150043851943
        ],
        "ImagePositionPatient": [
          -814.50366109086,
          -825.21323365282,
          252.52554010406
        ],
        "ImageType": [
          "ORIGINAL",
          "PRIMARY",
          "M",
          "MB",
          "ND",
          "MOSAIC"
        ],
        "ImagedNucleus": "1H",
        "ImagingFrequency": 123.259388,
        "InPlanePhaseEncodingDirection": "COL",
        "MRAcquisitionType": "2D",
        "MagneticFieldStrength": 3.0,
        "Manufacturer": "SIEMENS",
        "ManufacturerModelName": "Prisma_fit",
        "Modality": "MR",
        "NumberOfAverages": 1.0,
        "NumberOfPhaseEncodingSteps": 104,
        "PercentPhaseFieldOfView": 100.0,
        "PercentSampling": 100.0,
        "PerformedProcedureStepStartTime": "150633.219000",
        "PhotometricInterpretation": "MONOCHROME2",
        "PixelBandwidth": 2290.0,
        "PixelRepresentation": 0,
        "PixelSpacing": [
          2.0,
          2.0
        ],
        "ProtocolName": "func_task-figures8",
        "RepetitionTime": 1490.0,
        "Rows": 832,
        "SAR": 0.0293569401304,
        "SamplesPerPixel": 1,
        "ScanOptions": "FS",
        "ScanningSequence": "EP",
        "SequenceName": "epfid2d1_104",
        "SequenceVariant": [
          "SK",
          "SS"
        ],
        "SeriesDescription": "func_task-figures8",
        "SeriesNumber": 9,
        "SeriesTime": "153654.247000",
        "SliceLocation": -43.95317023091,
        "SliceThickness": 2.0,
        "SmallestImagePixelValue": 0,
        "SoftwareVersions": "syngo MR E11",
        "SpacingBetweenSlices": 1.9999999849795,
        "SpecificCharacterSet": "ISO_IR 100",
        "StudyID": "1",
        "StudyTime": "150633.161000",
        "TransmitCoilName": "Body",
        "VariableFlipAngleFlag": "N",
        "WindowCenterWidthExplanation": "Algo1",
        "dBdt": 0.0
      },
      "slices": {}
    },
    "modality": "bold",
    "run_id": 1,
    "session_id": "003",
    "subject_id": "06",
    "task_id": "figures08",
    "time": {
      "samples": {
        "AcquisitionNumber": [
          1,
          2,
          3,
          4,
          5,
          6,
          7,
          8,
          9,
          10,
          11,
          12,
          13,
          14,
          15,
          16,
          17,
          18,
          19,
          20,
          21,
          22,
          23,
          24,
          25,
          26,
          27,
          28,
          29,
          30,
          31,
          32,
          33,
          34,
          35,
          36,
          37,
          38,
          39,
          40,
          41,
          42,
          43,
          44,
          45,
          46,
          47,
          48,
          49,
          50,
          51,
          52,
          53,
          54,
          55,
          56,
          57,
          58,
          59,
          60,
          61,
          62,
          63,
          64,
          65,
          66,
          67,
          68,
          69,
          70,
          71,
          72,
          73,
          74,
          75,
          76,
          77,
          78,
          79,
          80,
          81,
          82,
          83,
          84,
          85,
          86,
          87,
          88,
          89,
          90,
          91,
          92,
          93,
          94,
          95,
          96,
          97,
          98,
          99,
          100,
          101,
          102,
          103,
          104,
          105,
          106,
          107,
          108,
          109,
          110,
          111,
          112,
          113,
          114,
          115,
          116,
          117,
          118,
          119,
          120,
          121,
          122,
          123,
          124,
          125,
          126,
          127,
          128,
          129,
          130,
          131,
          132,
          133,
          134,
          135,
          136,
          137,
          138,
          139,
          140,
          141,
          142,
          143,
          144,
          145,
          146,
          147,
          148,
          149,
          150,
          151,
          152,
          153,
          154,
          155,
          156,
          157,
          158,
          159,
          160,
          161,
          162,
          163,
          164,
          165,
          166,
          167,
          168,
          169,
          170,
          171,
          172,
          173,
          174,
          175,
          176,
          177,
          178,
          179,
          180,
          181,
          182,
          183,
          184,
          185,
          186,
          187,
          188,
          189,
          190,
          191,
          192,
          193,
          194,
          195,
          196,
          197,
          198,
          199,
          200,
          201,
          202,
          203,
          204,
          205,
          206,
          207,
          208,
          209,
          210,
          211,
          212,
          213,
          214,
          215,
          216,
          217,
          218,
          219,
          220,
          221,
          222,
          223,
          224,
          225,
          226,
          227,
          228,
          229,
          230,
          231,
          232,
          233,
          234,
          235,
          236,
          237,
          238,
          239,
          240,
          241,
          242,
          243,
          244,
          245,
          246,
          247,
          248,
          249,
          250,
          251,
          252,
          253,
          254,
          255,
          256,
          257,
          258,
          259,
          260,
          261,
          262,
          263,
          264,
          265,
          266,
          267,
          268,
          269,
          270,
          271,
          272,
          273,
          274,
          275,
          276,
          277,
          278,
          279,
          280,
          281,
          282,
          283,
          284,
          285,
          286,
          287,
          288,
          289,
          290,
          291,
          292,
          293,
          294,
          295,
          296,
          297,
          298,
          299,
          300,
          301,
          302,
          303,
          304,
          305,
          306,
          307,
          308,
          309,
          310,
          311,
          312,
          313,
          314,
          315,
          316,
          317,
          318,
          319,
          320,
          321,
          322,
          323,
          324,
          325,
          326,
          327,
          328,
          329,
          330,
          331,
          332,
          333,
          334,
          335,
          336,
          337,
          338,
          339,
          340,
          341,
          342,
          343,
          344,
          345,
          346,
          347,
          348,
          349,
          350,
          351,
          352,
          353,
          354,
          355,
          356,
          357,
          358,
          359,
          360,
          361,
          362,
          363,
          364,
          365,
          366,
          367,
          368,
          369,
          370,
          371,
          372,
          373,
          374,
          375,
          376,
          377,
          378,
          379,
          380,
          381,
          382,
          383,
          384,
          385,
          386,
          387,
          388,
          389,
          390,
          391,
          392,
          393,
          394,
          395,
          396,
          397,
          398,
          399,
          400,
          401,
          402,
          403,
          404,
          405,
          406,
          407,
          408,
          409,
          410
        ],
        "AcquisitionTime": [
          "153546.862500",
          "153548.352500",
          "153549.842500",
          "153551.332500",
          "153552.822500",
          "153554.312500",
          "153555.802500",
          "153557.292500",
          "153558.782500",
          "153600.272500",
          "153601.762500",
          "153603.252500",
          "153604.742500",
          "153606.232500",
          "153607.722500",
          "153609.212500",
          "153610.702500",
          "153612.192500",
          "153613.682500",
          "153615.172500",
          "153616.662500",
          "153618.152500",
          "153619.642500",
          "153621.132500",
          "153622.622500",
          "153624.112500",
          "153625.602500",
          "153627.092500",
          "153628.582500",
          "153630.072500",
          "153631.562500",
          "153633.052500",
          "153634.542500",
          "153636.032500",
          "153637.522500",
          "153639.012500",
          "153640.502500",
          "153641.992500",
          "153643.482500",
          "153644.972500",
          "153646.462500",
          "153647.952500",
          "153649.442500",
          "153650.932500",
          "153652.422500",
          "153653.912500",
          "153655.402500",
          "153656.892500",
          "153658.382500",
          "153659.872500",
          "153701.362500",
          "153702.852500",
          "153704.342500",
          "153705.832500",
          "153707.322500",
          "153708.812500",
          "153710.302500",
          "153711.792500",
          "153713.282500",
          "153714.772500",
          "153716.262500",
          "153717.752500",
          "153719.242500",
          "153720.732500",
          "153722.222500",
          "153723.712500",
          "153725.202500",
          "153726.692500",
          "153728.182500",
          "153729.672500",
          "153731.162500",
          "153732.652500",
          "153734.142500",
          "153735.632500",
          "153737.122500",
          "153738.612500",
          "153740.102500",
          "153741.592500",
          "153743.082500",
          "153744.572500",
          "153746.062500",
          "153747.552500",
          "153749.042500",
          "153750.532500",
          "153752.022500",
          "153753.512500",
          "153755.002500",
          "153756.492500",
          "153757.982500",
          "153759.472500",
          "153800.962500",
          "153802.452500",
          "153803.942500",
          "153805.432500",
          "153806.922500",
          "153808.412500",
          "153809.902500",
          "153811.392500",
          "153812.882500",
          "153814.372500",
          "153815.862500",
          "153817.352500",
          "153818.842500",
          "153820.332500",
          "153821.822500",
          "153823.312500",
          "153824.802500",
          "153826.292500",
          "153827.782500",
          "153829.272500",
          "153830.762500",
          "153832.252500",
          "153833.742500",
          "153835.232500",
          "153836.722500",
          "153838.212500",
          "153839.702500",
          "153841.192500",
          "153842.682500",
          "153844.172500",
          "153845.662500",
          "153847.152500",
          "153848.642500",
          "153850.132500",
          "153851.622500",
          "153853.112500",
          "153854.602500",
          "153856.092500",
          "153857.582500",
          "153859.072500",
          "153900.562500",
          "153902.052500",
          "153903.542500",
          "153905.032500",
          "153906.522500",
          "153908.012500",
          "153909.502500",
          "153910.992500",
          "153912.482500",
          "153913.972500",
          "153915.462500",
          "153916.952500",
          "153918.442500",
          "153919.932500",
          "153921.422500",
          "153922.912500",
          "153924.402500",
          "153925.892500",
          "153927.382500",
          "153928.872500",
          "153930.362500",
          "153931.852500",
          "153933.342500",
          "153934.832500",
          "153936.322500",
          "153937.812500",
          "153939.302500",
          "153940.792500",
          "153942.282500",
          "153943.772500",
          "153945.262500",
          "153946.752500",
          "153948.242500",
          "153949.732500",
          "153951.222500",
          "153952.712500",
          "153954.202500",
          "153955.692500",
          "153957.182500",
          "153958.672500",
          "154000.162500",
          "154001.652500",
          "154003.142500",
          "154004.632500",
          "154006.122500",
          "154007.612500",
          "154009.102500",
          "154010.592500",
          "154012.082500",
          "154013.572500",
          "154015.062500",
          "154016.552500",
          "154018.042500",
          "154019.532500",
          "154021.022500",
          "154022.512500",
          "154024.002500",
          "154025.492500",
          "154026.982500",
          "154028.472500",
          "154029.962500",
          "154031.452500",
          "154032.942500",
          "154034.432500",
          "154035.922500",
          "154037.412500",
          "154038.902500",
          "154040.392500",
          "154041.882500",
          "154043.372500",
          "154044.862500",
          "154046.352500",
          "154047.842500",
          "154049.332500",
          "154050.822500",
          "154052.312500",
          "154053.802500",
          "154055.292500",
          "154056.782500",
          "154058.272500",
          "154059.762500",
          "154101.252500",
          "154102.742500",
          "154104.232500",
          "154105.722500",
          "154107.212500",
          "154108.702500",
          "154110.192500",
          "154111.682500",
          "154113.172500",
          "154114.662500",
          "154116.152500",
          "154117.642500",
          "154119.132500",
          "154120.622500",
          "154122.112500",
          "154123.602500",
          "154125.092500",
          "154126.582500",
          "154128.072500",
          "154129.562500",
          "154131.052500",
          "154132.542500",
          "154134.032500",
          "154135.522500",
          "154137.012500",
          "154138.502500",
          "154139.992500",
          "154141.482500",
          "154142.972500",
          "154144.462500",
          "154145.952500",
          "154147.442500",
          "154148.932500",
          "154150.422500",
          "154151.912500",
          "154153.402500",
          "154154.892500",
          "154156.382500",
          "154157.872500",
          "154159.362500",
          "154200.852500",
          "154202.342500",
          "154203.832500",
          "154205.322500",
          "154206.812500",
          "154208.302500",
          "154209.792500",
          "154211.282500",
          "154212.772500",
          "154214.262500",
          "154215.752500",
          "154217.242500",
          "154218.732500",
          "154220.222500",
          "154221.712500",
          "154223.202500",
          "154224.692500",
          "154226.182500",
          "154227.672500",
          "154229.162500",
          "154230.652500",
          "154232.142500",
          "154233.632500",
          "154235.122500",
          "154236.612500",
          "154238.102500",
          "154239.592500",
          "154241.082500",
          "154242.572500",
          "154244.062500",
          "154245.552500",
          "154247.042500",
          "154248.532500",
          "154250.022500",
          "154251.512500",
          "154253.002500",
          "154254.492500",
          "154255.982500",
          "154257.472500",
          "154258.962500",
          "154300.452500",
          "154301.942500",
          "154303.432500",
          "154304.922500",
          "154306.412500",
          "154307.902500",
          "154309.392500",
          "154310.882500",
          "154312.372500",
          "154313.862500",
          "154315.352500",
          "154316.842500",
          "154318.332500",
          "154319.822500",
          "154321.312500",
          "154322.802500",
          "154324.292500",
          "154325.782500",
          "154327.272500",
          "154328.762500",
          "154330.252500",
          "154331.742500",
          "154333.232500",
          "154334.722500",
          "154336.212500",
          "154337.702500",
          "154339.192500",
          "154340.682500",
          "154342.172500",
          "154343.662500",
          "154345.152500",
          "154346.642500",
          "154348.132500",
          "154349.622500",
          "154351.112500",
          "154352.602500",
          "154354.092500",
          "154355.582500",
          "154357.072500",
          "154358.562500",
          "154400.052500",
          "154401.542500",
          "154403.032500",
          "154404.522500",
          "154406.012500",
          "154407.502500",
          "154408.992500",
          "154410.482500",
          "154411.972500",
          "154413.462500",
          "154414.952500",
          "154416.442500",
          "154417.932500",
          "154419.422500",
          "154420.912500",
          "154422.402500",
          "154423.892500",
          "154425.382500",
          "154426.872500",
          "154428.362500",
          "154429.852500",
          "154431.342500",
          "154432.832500",
          "154434.322500",
          "154435.812500",
          "154437.302500",
          "154438.792500",
          "154440.282500",
          "154441.772500",
          "154443.262500",
          "154444.752500",
          "154446.242500",
          "154447.732500",
          "154449.222500",
          "154450.712500",
          "154452.202500",
          "154453.692500",
          "154455.182500",
          "154456.672500",
          "154458.162500",
          "154459.652500",
          "154501.142500",
          "154502.632500",
          "154504.122500",
          "154505.612500",
          "154507.102500",
          "154508.592500",
          "154510.082500",
          "154511.572500",
          "154513.062500",
          "154514.552500",
          "154516.042500",
          "154517.532500",
          "154519.022500",
          "154520.512500",
          "154522.002500",
          "154523.492500",
          "154524.982500",
          "154526.472500",
          "154527.962500",
          "154529.452500",
          "154530.942500",
          "154532.432500",
          "154533.922500",
          "154535.412500",
          "154536.902500",
          "154538.392500",
          "154539.882500",
          "154541.372500",
          "154542.862500",
          "154544.352500",
          "154545.842500",
          "154547.332500",
          "154548.822500",
          "154550.312500",
          "154551.802500",
          "154553.292500",
          "154554.782500",
          "154556.272500"
        ],
        "ContentTime": [
          "153654.250000",
          "153654.253000",
          "153654.257000",
          "153654.259000",
          "153654.262000",
          "153654.265000",
          "153654.268000",
          "153654.271000",
          "153654.274000",
          "153654.277000",
          "153654.280000",
          "153654.283000",
          "153654.286000",
          "153654.288000",
          "153654.291000",
          "153714.207000",
          "153714.210000",
          "153714.220000",
          "153714.223000",
          "153714.226000",
          "153714.230000",
          "153714.233000",
          "153714.236000",
          "153714.239000",
          "153714.242000",
          "153714.245000",
          "153714.247000",
          "153714.250000",
          "153714.253000",
          "153714.256000",
          "153714.259000",
          "153714.262000",
          "153714.265000",
          "153714.267000",
          "153714.270000",
          "153734.208000",
          "153734.211000",
          "153734.214000",
          "153734.217000",
          "153734.220000",
          "153734.223000",
          "153734.225000",
          "153734.228000",
          "153734.231000",
          "153734.234000",
          "153734.237000",
          "153734.240000",
          "153734.243000",
          "153734.246000",
          "153734.260000",
          "153734.263000",
          "153734.266000",
          "153734.269000",
          "153734.272000",
          "153734.275000",
          "153754.208000",
          "153754.211000",
          "153754.214000",
          "153754.217000",
          "153754.220000",
          "153754.222000",
          "153754.225000",
          "153754.228000",
          "153754.231000",
          "153754.234000",
          "153754.237000",
          "153754.240000",
          "153754.243000",
          "153754.246000",
          "153754.249000",
          "153754.251000",
          "153754.254000",
          "153754.257000",
          "153754.260000",
          "153754.263000",
          "153814.208000",
          "153814.211000",
          "153814.214000",
          "153814.217000",
          "153814.220000",
          "153814.223000",
          "153814.226000",
          "153814.229000",
          "153814.231000",
          "153814.234000",
          "153814.237000",
          "153814.240000",
          "153814.243000",
          "153814.246000",
          "153814.249000",
          "153814.252000",
          "153814.254000",
          "153814.257000",
          "153814.260000",
          "153814.263000",
          "153854.208000",
          "153854.282000",
          "153854.285000",
          "153854.288000",
          "153854.291000",
          "153854.293000",
          "153854.296000",
          "153854.299000",
          "153854.302000",
          "153854.305000",
          "153854.308000",
          "153854.311000",
          "153854.314000",
          "153854.317000",
          "153854.320000",
          "153854.322000",
          "153854.325000",
          "153854.328000",
          "153854.331000",
          "153854.334000",
          "153854.337000",
          "153854.340000",
          "153854.343000",
          "153854.346000",
          "153854.348000",
          "153854.351000",
          "153854.354000",
          "153854.357000",
          "153854.360000",
          "153854.363000",
          "153934.208000",
          "153934.211000",
          "153934.214000",
          "153934.217000",
          "153934.220000",
          "153934.223000",
          "153934.226000",
          "153934.229000",
          "153934.231000",
          "153934.234000",
          "153934.237000",
          "153934.240000",
          "153934.243000",
          "153934.246000",
          "153934.249000",
          "153934.252000",
          "153934.255000",
          "153934.258000",
          "153934.261000",
          "153934.263000",
          "153934.266000",
          "153934.269000",
          "153934.272000",
          "153934.275000",
          "153934.278000",
          "153934.281000",
          "153934.284000",
          "154014.208000",
          "154014.211000",
          "154014.214000",
          "154014.217000",
          "154014.220000",
          "154014.223000",
          "154014.226000",
          "154014.228000",
          "154014.231000",
          "154014.234000",
          "154014.237000",
          "154014.240000",
          "154014.243000",
          "154014.246000",
          "154014.249000",
          "154014.252000",
          "154014.255000",
          "154014.266000",
          "154014.268000",
          "154014.271000",
          "154014.274000",
          "154014.277000",
          "154014.280000",
          "154014.283000",
          "154014.286000",
          "154014.289000",
          "154014.292000",
          "154054.208000",
          "154054.211000",
          "154054.214000",
          "154054.217000",
          "154054.220000",
          "154054.223000",
          "154054.226000",
          "154054.229000",
          "154054.232000",
          "154054.235000",
          "154054.238000",
          "154054.241000",
          "154054.244000",
          "154054.247000",
          "154054.249000",
          "154054.252000",
          "154054.273000",
          "154054.276000",
          "154054.279000",
          "154054.282000",
          "154054.285000",
          "154054.287000",
          "154054.290000",
          "154054.293000",
          "154054.296000",
          "154054.299000",
          "154054.302000",
          "154134.208000",
          "154134.211000",
          "154134.214000",
          "154134.217000",
          "154134.220000",
          "154134.223000",
          "154134.226000",
          "154134.229000",
          "154134.232000",
          "154134.234000",
