{
  "aor": 0.0005697555012224939,
  "aqi": 0.0074167145721271395,
  "bids_meta": {
    "AcquisitionMatrixPE": 104,
    "AcquisitionNumber": 1,
    "AcquisitionTime": "15:25:9.295000",
    "BandwidthPerPixelPhaseEncode": 17.17,
    "BaseResolution": 104,
    "BodyPartExamined": "BRAIN",
    "CogAtlasID": "trm_4c898da401420",
    "ConsistencyInfo": "N4_VE11C_LATEST_20160120",
    "ConversionSoftware": "dcm2niix",
    "ConversionSoftwareVersion": "v1.0.20171215 (OpenJPEG build) GCC7.3.0",
    "DerivedVendorReportedEchoSpacing": 0.000560011,
    "DeviceSerialNumber": "167006",
    "DwellTime": 2.1e-06,
    "EchoTime": 0.037,
    "EchoTrainLength": 104,
    "EffectiveEchoSpacing": 0.000560011,
    "FlipAngle": 52,
    "ImageComments": "Unaliased_MB4_PE3_LB",
    "ImageOrientationPatientDICOM": [
      0.999349,
      0.0122577,
      -0.0339184,
      -0.0223294,
      0.948828,
      -0.315004
    ],
    "ImageType": [
      "ORIGINAL",
      "PRIMARY",
      "M",
      "MB",
      "ND",
      "MOSAIC"
    ],
    "InPlanePhaseEncodingDirectionDICOM": "COL",
    "InstitutionAddress": "Chemin_Queen-Mary_4565_Montreal_District_CA_H3W_1W5",
    "InstitutionName": "IUGM",
    "InstitutionalDepartmentName": "Department",
    "MRAcquisitionType": "2D",
    "MagneticFieldStrength": 3,
    "Manufacturer": "Siemens",
    "ManufacturersModelName": "Prisma_fit",
    "Modality": "MR",
    "MultibandAccelerationFactor": 4,
    "PartialFourier": 1,
    "PatientPosition": "HFS",
    "PercentPhaseFOV": 100,
    "PhaseEncodingDirection": "j-",
    "PhaseEncodingSteps": 104,
    "PhaseResolution": 1,
    "PixelBandwidth": 2290,
    "ProcedureStepDescription": "video5_generic",
    "ProtocolName": "func_task-figures7",
    "PulseSequenceDetails": "%CustomerSeq%_cmrr_mbep2d_bold",
    "ReceiveCoilActiveElements": "HC1-7;NC1,2",
    "ReceiveCoilName": "HeadNeck_64",
    "ReconMatrixPE": 104,
    "RepetitionTime": 1.49,
    "SAR": 0.0293569,
    "ScanOptions": "FS",
    "ScanningSequence": "EP",
    "SequenceName": "epfid2d1_104",
    "SequenceVariant": "SK_SS",
    "SeriesDescription": "func_task-figures7",
    "SeriesNumber": 7,
    "ShimSetting": [
      639,
      -7257,
      -8841,
      566,
      51,
      -230,
      -127,
      3
    ],
    "SliceThickness": 2,
    "SliceTiming": [
      0,
      0.7825,
      0.0975,
      0.88,
      0.195,
      0.98,
      0.2925,
      1.0775,
      0.39,
      1.175,
      0.49,
      1.2725,
      0.5875,
      1.37,
      0.685,
      0,
      0.7825,
      0.0975,
      0.88,
      0.195,
      0.98,
      0.2925,
      1.0775,
      0.39,
      1.175,
      0.49,
      1.2725,
      0.5875,
      1.37,
      0.685,
      0,
      0.7825,
      0.0975,
      0.88,
      0.195,
      0.98,
      0.2925,
      1.0775,
      0.39,
      1.175,
      0.49,
      1.2725,
      0.5875,
      1.37,
      0.685,
      0,
      0.7825,
      0.0975,
      0.88,
      0.195,
      0.98,
      0.2925,
      1.0775,
      0.39,
      1.175,
      0.49,
      1.2725,
      0.5875,
      1.37,
      0.685
    ],
    "SoftwareVersions": "syngo_MR_E11",
    "SpacingBetweenSlices": 2,
    "StationName": "MRC35049",
    "TaskName": "figures07",
    "TotalReadoutTime": 0.0576811,
    "TxRefAmp": 219.483,
    "dataset": "<unset>",
    "dcmmeta_affine": [
      [
        -1.9986988306045532,
        -0.04465882480144501,
        -0.05664287880063057,
        107.83293914794922
      ],
      [
        -0.0245154220610857,
        1.8976550102233887,
        -0.6311136484146118,
        -69.91526794433594
      ],
      [
        -0.0678367167711258,
        0.6300087571144104,
        1.896967887878418,
        -66.38111877441406
      ],
      [
        0.0,
        0.0,
        0.0,
        1.0
      ]
    ],
    "dcmmeta_reorient_transform": [
      [
        0.0,
        -1.0,
        0.0,
        103.0
      ],
      [
        1.0,
        0.0,
        0.0,
        0.0
      ],
      [
        0.0,
        0.0,
        1.0,
        0.0
      ],
      [
        0.0,
        0.0,
        0.0,
        1.0
      ]
    ],
    "dcmmeta_shape": [
      104,
      104,
      60,
      410
    ],
    "dcmmeta_slice_dim": 2,
    "dcmmeta_version": 0.6,
    "global": {
      "const": {
        "AcquisitionMatrix": [
          104,
          0,
          0,
          104
        ],
        "AngioFlag": "N",
        "BitsAllocated": 16,
        "BitsStored": 16,
        "BodyPartExamined": "BRAIN",
        "Columns": 832,
        "EchoNumbers": 1,
        "EchoTime": 37.0,
        "EchoTrainLength": 104,
        "FlipAngle": 52.0,
        "HighBit": 15,
        "ImageOrientationPatient": [
          0.99934943511071,
          0.01225771077135,
          -0.0339183589012,
          -0.0223294116547,
          0.94882750523132,
          -0.3150043851943
        ],
        "ImagePositionPatient": [
          -814.50366109086,
          -825.21323365282,
          252.52554010406
        ],
        "ImageType": [
          "ORIGINAL",
          "PRIMARY",
          "M",
          "MB",
          "ND",
          "MOSAIC"
        ],
        "ImagedNucleus": "1H",
        "ImagingFrequency": 123.259378,
        "InPlanePhaseEncodingDirection": "COL",
        "MRAcquisitionType": "2D",
        "MagneticFieldStrength": 3.0,
        "Manufacturer": "SIEMENS",
        "ManufacturerModelName": "Prisma_fit",
        "Modality": "MR",
        "NumberOfAverages": 1.0,
        "NumberOfPhaseEncodingSteps": 104,
        "PercentPhaseFieldOfView": 100.0,
        "PercentSampling": 100.0,
        "PerformedProcedureStepStartTime": "150633.219000",
        "PhotometricInterpretation": "MONOCHROME2",
        "PixelBandwidth": 2290.0,
        "PixelRepresentation": 0,
        "PixelSpacing": [
          2.0,
          2.0
        ],
        "ProtocolName": "func_task-figures7",
        "RepetitionTime": 1490.0,
        "Rows": 832,
        "SAR": 0.0293569401304,
        "SamplesPerPixel": 1,
        "ScanOptions": "FS",
        "ScanningSequence": "EP",
        "SequenceName": "epfid2d1_104",
        "SequenceVariant": [
          "SK",
          "SS"
        ],
        "SeriesDescription": "func_task-figures7",
        "SeriesNumber": 7,
        "SeriesTime": "152634.893000",
        "SliceLocation": -43.95317023091,
        "SliceThickness": 2.0,
        "SmallestImagePixelValue": 0,
        "SoftwareVersions": "syngo MR E11",
        "SpacingBetweenSlices": 1.9999999849795,
        "SpecificCharacterSet": "ISO_IR 100",
        "StudyID": "1",
        "StudyTime": "150633.161000",
        "TransmitCoilName": "Body",
        "VariableFlipAngleFlag": "N",
        "WindowCenterWidthExplanation": "Algo1",
        "dBdt": 0.0
      },
      "slices": {}
    },
    "modality": "bold",
    "run_id": 1,
    "session_id": "003",
    "subject_id": "06",
    "task_id": "figures07",
    "time": {
      "samples": {
        "AcquisitionNumber": [
          1,
          2,
          3,
          4,
          5,
          6,
          7,
          8,
          9,
          10,
          11,
          12,
          13,
          14,
          15,
          16,
          17,
          18,
          19,
          20,
          21,
          22,
          23,
          24,
          25,
          26,
          27,
          28,
          29,
          30,
          31,
          32,
          33,
          34,
          35,
          36,
          37,
          38,
          39,
          40,
          41,
          42,
          43,
          44,
          45,
          46,
          47,
          48,
          49,
          50,
          51,
          52,
          53,
          54,
          55,
          56,
          57,
          58,
          59,
          60,
          61,
          62,
          63,
          64,
          65,
          66,
          67,
          68,
          69,
          70,
          71,
          72,
          73,
          74,
          75,
          76,
          77,
          78,
          79,
          80,
          81,
          82,
          83,
          84,
          85,
          86,
          87,
          88,
          89,
          90,
          91,
          92,
          93,
          94,
          95,
          96,
          97,
          98,
          99,
          100,
          101,
          102,
          103,
          104,
          105,
          106,
          107,
          108,
          109,
          110,
          111,
          112,
          113,
          114,
          115,
          116,
          117,
          118,
          119,
          120,
          121,
          122,
          123,
          124,
          125,
          126,
          127,
          128,
          129,
          130,
          131,
          132,
          133,
          134,
          135,
          136,
          137,
          138,
          139,
          140,
          141,
          142,
          143,
          144,
          145,
          146,
          147,
          148,
          149,
          150,
          151,
          152,
          153,
          154,
          155,
          156,
          157,
          158,
          159,
          160,
          161,
          162,
          163,
          164,
          165,
          166,
          167,
          168,
          169,
          170,
          171,
          172,
          173,
          174,
          175,
          176,
          177,
          178,
          179,
          180,
          181,
          182,
          183,
          184,
          185,
          186,
          187,
          188,
          189,
          190,
          191,
          192,
          193,
          194,
          195,
          196,
          197,
          198,
          199,
          200,
          201,
          202,
          203,
          204,
          205,
          206,
          207,
          208,
          209,
          210,
          211,
          212,
          213,
          214,
          215,
          216,
          217,
          218,
          219,
          220,
          221,
          222,
          223,
          224,
          225,
          226,
          227,
          228,
          229,
          230,
          231,
          232,
          233,
          234,
          235,
          236,
          237,
          238,
          239,
          240,
          241,
          242,
          243,
          244,
          245,
          246,
          247,
          248,
          249,
          250,
          251,
          252,
          253,
          254,
          255,
          256,
          257,
          258,
          259,
          260,
          261,
          262,
          263,
          264,
          265,
          266,
          267,
          268,
          269,
          270,
          271,
          272,
          273,
          274,
          275,
          276,
          277,
          278,
          279,
          280,
          281,
          282,
          283,
          284,
          285,
          286,
          287,
          288,
          289,
          290,
          291,
          292,
          293,
          294,
          295,
          296,
          297,
          298,
          299,
          300,
          301,
          302,
          303,
          304,
          305,
          306,
          307,
          308,
          309,
          310,
          311,
          312,
          313,
          314,
          315,
          316,
          317,
          318,
          319,
          320,
          321,
          322,
          323,
          324,
          325,
          326,
          327,
          328,
          329,
          330,
          331,
          332,
          333,
          334,
          335,
          336,
          337,
          338,
          339,
          340,
          341,
          342,
          343,
          344,
          345,
          346,
          347,
          348,
          349,
          350,
          351,
          352,
          353,
          354,
          355,
          356,
          357,
          358,
          359,
          360,
          361,
          362,
          363,
          364,
          365,
          366,
          367,
          368,
          369,
          370,
          371,
          372,
          373,
          374,
          375,
          376,
          377,
          378,
          379,
          380,
          381,
          382,
          383,
          384,
          385,
          386,
          387,
          388,
          389,
          390,
          391,
          392,
          393,
          394,
          395,
          396,
          397,
          398,
          399,
          400,
          401,
          402,
          403,
          404,
          405,
          406,
          407,
          408,
          409,
          410
        ],
        "AcquisitionTime": [
          "152509.295000",
          "152510.785000",
          "152512.275000",
          "152513.765000",
          "152515.255000",
          "152516.745000",
          "152518.235000",
          "152519.725000",
          "152521.215000",
          "152522.705000",
          "152524.195000",
          "152525.685000",
          "152527.175000",
          "152528.665000",
          "152530.155000",
          "152531.645000",
          "152533.135000",
          "152534.625000",
          "152536.115000",
          "152537.605000",
          "152539.095000",
          "152540.585000",
          "152542.075000",
          "152543.565000",
          "152545.055000",
          "152546.545000",
          "152548.035000",
          "152549.525000",
          "152551.015000",
          "152552.505000",
          "152553.995000",
          "152555.485000",
          "152556.975000",
          "152558.465000",
          "152559.955000",
          "152601.445000",
          "152602.935000",
          "152604.425000",
          "152605.915000",
          "152607.405000",
          "152608.895000",
          "152610.385000",
          "152611.875000",
          "152613.365000",
          "152614.855000",
          "152616.345000",
          "152617.835000",
          "152619.325000",
          "152620.815000",
          "152622.305000",
          "152623.795000",
          "152625.285000",
          "152626.775000",
          "152628.265000",
          "152629.755000",
          "152631.245000",
          "152632.735000",
          "152634.225000",
          "152635.715000",
          "152637.205000",
          "152638.695000",
          "152640.185000",
          "152641.675000",
          "152643.165000",
          "152644.655000",
          "152646.145000",
          "152647.635000",
          "152649.125000",
          "152650.615000",
          "152652.105000",
          "152653.595000",
          "152655.085000",
          "152656.575000",
          "152658.065000",
          "152659.555000",
          "152701.045000",
          "152702.535000",
          "152704.025000",
          "152705.515000",
          "152707.005000",
          "152708.495000",
          "152709.985000",
          "152711.475000",
          "152712.965000",
          "152714.455000",
          "152715.945000",
          "152717.435000",
          "152718.925000",
          "152720.415000",
          "152721.905000",
          "152723.395000",
          "152724.885000",
          "152726.375000",
          "152727.865000",
          "152729.355000",
          "152730.845000",
          "152732.335000",
          "152733.825000",
          "152735.315000",
          "152736.805000",
          "152738.295000",
          "152739.785000",
          "152741.275000",
          "152742.765000",
          "152744.255000",
          "152745.745000",
          "152747.235000",
          "152748.725000",
          "152750.215000",
          "152751.705000",
          "152753.195000",
          "152754.685000",
          "152756.175000",
          "152757.665000",
          "152759.155000",
          "152800.645000",
          "152802.135000",
          "152803.625000",
          "152805.115000",
          "152806.605000",
          "152808.095000",
          "152809.585000",
          "152811.075000",
          "152812.565000",
          "152814.055000",
          "152815.545000",
          "152817.035000",
          "152818.525000",
          "152820.015000",
          "152821.505000",
          "152822.995000",
          "152824.485000",
          "152825.975000",
          "152827.465000",
          "152828.955000",
          "152830.445000",
          "152831.935000",
          "152833.425000",
          "152834.915000",
          "152836.405000",
          "152837.895000",
          "152839.385000",
          "152840.875000",
          "152842.365000",
          "152843.855000",
          "152845.345000",
          "152846.835000",
          "152848.325000",
          "152849.815000",
          "152851.305000",
          "152852.795000",
          "152854.285000",
          "152855.775000",
          "152857.265000",
          "152858.755000",
          "152900.245000",
          "152901.735000",
          "152903.225000",
          "152904.715000",
          "152906.205000",
          "152907.695000",
          "152909.185000",
          "152910.675000",
          "152912.165000",
          "152913.655000",
          "152915.145000",
          "152916.635000",
          "152918.125000",
          "152919.615000",
          "152921.105000",
          "152922.595000",
          "152924.085000",
          "152925.575000",
          "152927.065000",
          "152928.555000",
          "152930.045000",
          "152931.535000",
          "152933.025000",
          "152934.515000",
          "152936.005000",
          "152937.495000",
          "152938.985000",
          "152940.475000",
          "152941.965000",
          "152943.455000",
          "152944.945000",
          "152946.435000",
          "152947.925000",
          "152949.415000",
          "152950.905000",
          "152952.395000",
          "152953.885000",
          "152955.375000",
          "152956.865000",
          "152958.355000",
          "152959.845000",
          "153001.335000",
          "153002.825000",
          "153004.315000",
          "153005.805000",
          "153007.295000",
          "153008.785000",
          "153010.275000",
          "153011.765000",
          "153013.255000",
          "153014.745000",
          "153016.235000",
          "153017.725000",
          "153019.215000",
          "153020.705000",
          "153022.195000",
          "153023.685000",
          "153025.175000",
          "153026.665000",
          "153028.155000",
          "153029.645000",
          "153031.135000",
          "153032.625000",
          "153034.115000",
          "153035.605000",
          "153037.095000",
          "153038.585000",
          "153040.075000",
          "153041.565000",
          "153043.055000",
          "153044.545000",
          "153046.035000",
          "153047.525000",
          "153049.015000",
          "153050.505000",
          "153051.995000",
          "153053.485000",
          "153054.975000",
          "153056.465000",
          "153057.955000",
          "153059.445000",
          "153100.935000",
          "153102.425000",
          "153103.915000",
          "153105.405000",
          "153106.895000",
          "153108.385000",
          "153109.875000",
          "153111.365000",
          "153112.855000",
          "153114.345000",
          "153115.835000",
          "153117.325000",
          "153118.815000",
          "153120.305000",
          "153121.795000",
          "153123.285000",
          "153124.775000",
          "153126.265000",
          "153127.755000",
          "153129.245000",
          "153130.735000",
          "153132.225000",
          "153133.715000",
          "153135.205000",
          "153136.695000",
          "153138.185000",
          "153139.675000",
          "153141.165000",
          "153142.655000",
          "153144.145000",
          "153145.635000",
          "153147.125000",
          "153148.615000",
          "153150.105000",
          "153151.595000",
          "153153.085000",
          "153154.575000",
          "153156.065000",
          "153157.555000",
          "153159.045000",
          "153200.535000",
          "153202.025000",
          "153203.515000",
          "153205.005000",
          "153206.495000",
          "153207.985000",
          "153209.475000",
          "153210.965000",
          "153212.455000",
          "153213.945000",
          "153215.435000",
          "153216.925000",
          "153218.415000",
          "153219.905000",
          "153221.395000",
          "153222.885000",
          "153224.375000",
          "153225.865000",
          "153227.355000",
          "153228.845000",
          "153230.335000",
          "153231.825000",
          "153233.315000",
          "153234.805000",
          "153236.295000",
          "153237.785000",
          "153239.275000",
          "153240.765000",
          "153242.255000",
          "153243.745000",
          "153245.235000",
          "153246.725000",
          "153248.215000",
          "153249.705000",
          "153251.195000",
          "153252.685000",
          "153254.175000",
          "153255.665000",
          "153257.155000",
          "153258.645000",
          "153300.135000",
          "153301.625000",
          "153303.115000",
          "153304.605000",
          "153306.095000",
          "153307.585000",
          "153309.075000",
          "153310.565000",
          "153312.055000",
          "153313.545000",
          "153315.035000",
          "153316.525000",
          "153318.015000",
          "153319.505000",
          "153320.995000",
          "153322.485000",
          "153323.975000",
          "153325.465000",
          "153326.955000",
          "153328.445000",
          "153329.935000",
          "153331.425000",
          "153332.915000",
          "153334.405000",
          "153335.895000",
          "153337.385000",
          "153338.875000",
          "153340.365000",
          "153341.855000",
          "153343.345000",
          "153344.835000",
          "153346.325000",
          "153347.815000",
          "153349.305000",
          "153350.795000",
          "153352.285000",
          "153353.775000",
          "153355.265000",
          "153356.755000",
          "153358.245000",
          "153359.735000",
          "153401.225000",
          "153402.715000",
          "153404.205000",
          "153405.695000",
          "153407.185000",
          "153408.675000",
          "153410.165000",
          "153411.655000",
          "153413.145000",
          "153414.635000",
          "153416.125000",
          "153417.615000",
          "153419.105000",
          "153420.595000",
          "153422.085000",
          "153423.575000",
          "153425.065000",
          "153426.555000",
          "153428.045000",
          "153429.535000",
          "153431.025000",
          "153432.515000",
          "153434.005000",
          "153435.495000",
          "153436.985000",
          "153438.475000",
          "153439.965000",
          "153441.455000",
          "153442.945000",
          "153444.435000",
          "153445.925000",
          "153447.415000",
          "153448.905000",
          "153450.395000",
          "153451.885000",
          "153453.375000",
          "153454.865000",
          "153456.355000",
          "153457.845000",
          "153459.335000",
          "153500.825000",
          "153502.315000",
          "153503.805000",
          "153505.295000",
          "153506.785000",
          "153508.275000",
          "153509.765000",
          "153511.255000",
          "153512.745000",
          "153514.235000",
          "153515.725000",
          "153517.215000",
          "153518.705000"
        ],
        "ContentTime": [
          "152634.895000",
          "152634.898000",
          "152634.902000",
          "152634.905000",
          "152634.908000",
          "152634.911000",
          "152634.914000",
          "152634.917000",
          "152634.920000",
          "152634.923000",
          "152634.926000",
          "152634.928000",
          "152634.931000",
          "152634.934000",
          "152634.937000",
          "152634.940000",
          "152634.943000",
          "152634.946000",
          "152634.949000",
          "152634.952000",
          "152634.954000",
          "152634.957000",
          "152634.960000",
          "152634.963000",
          "152634.966000",
          "152634.969000",
          "152634.972000",
          "152634.975000",
          "152634.978000",
          "152634.981000",
          "152654.868000",
          "152654.871000",
          "152654.874000",
          "152654.877000",
          "152654.880000",
          "152654.883000",
          "152654.886000",
          "152654.889000",
          "152654.906000",
          "152654.909000",
          "152654.912000",
          "152654.915000",
          "152654.918000",
          "152654.921000",
          "152654.924000",
          "152654.927000",
          "152654.929000",
          "152654.932000",
          "152654.935000",
          "152654.938000",
          "152714.868000",
          "152714.871000",
          "152714.874000",
          "152714.877000",
          "152714.880000",
          "152714.883000",
          "152714.886000",
          "152714.889000",
          "152714.892000",
          "152714.895000",
          "152714.897000",
          "152714.900000",
          "152714.903000",
          "152714.906000",
          "152714.909000",
          "152714.912000",
          "152714.916000",
          "152714.919000",
          "152714.922000",
          "152714.925000",
          "152734.868000",
          "152734.871000",
          "152734.874000",
          "152734.877000",
          "152734.879000",
          "152734.882000",
          "152734.885000",
          "152734.888000",
          "152734.891000",
          "152734.894000",
          "152734.897000",
          "152734.900000",
          "152734.903000",
          "152734.919000",
          "152734.922000",
          "152734.925000",
          "152734.927000",
          "152734.930000",
          "152734.933000",
          "152734.936000",
          "152754.869000",
          "152754.872000",
          "152754.875000",
          "152754.878000",
          "152754.881000",
          "152754.884000",
          "152754.887000",
          "152754.890000",
          "152754.893000",
          "152754.907000",
          "152754.910000",
          "152754.913000",
          "152754.916000",
          "152754.919000",
          "152754.922000",
          "152754.925000",
          "152754.927000",
          "152754.930000",
          "152754.933000",
          "152754.936000",
          "152834.869000",
          "152834.872000",
          "152834.875000",
          "152834.878000",
          "152834.881000",
          "152834.884000",
          "152834.887000",
          "152834.890000",
          "152834.893000",
          "152834.896000",
          "152834.899000",
          "152834.901000",
          "152834.904000",
          "152834.907000",
          "152834.910000",
          "152834.913000",
          "152834.916000",
          "152834.919000",
          "152834.922000",
          "152834.925000",
          "152834.928000",
          "152834.931000",
          "152834.934000",
          "152834.937000",
          "152834.942000",
          "152834.946000",
          "152834.949000",
          "152914.868000",
          "152914.871000",
          "152914.874000",
          "152914.877000",
          "152914.880000",
          "152914.883000",
          "152914.886000",
          "152914.888000",
          "152914.891000",
          "152914.894000",
          "152914.897000",
          "152914.900000",
          "152914.903000",
          "152914.906000",
          "152914.909000",
          "152914.912000",
          "152914.915000",
          "152914.918000",
          "152914.921000",
          "152914.923000",
          "152914.926000",
          "152914.929000",
          "152914.932000",
          "152914.935000",
          "152914.938000",
          "152914.941000",
          "152914.944000",
          "152954.868000",
          "152954.871000",
          "152954.874000",
          "152954.877000",
          "152954.880000",
          "152954.883000",
          "152954.886000",
          "152954.888000",
          "152954.891000",
          "152954.894000",
          "152954.897000",
          "152954.900000",
          "152954.903000",
          "152954.906000",
          "152954.911000",
          "152954.914000",
          "152954.917000",
          "152954.920000",
          "152954.923000",
          "152954.926000",
          "152954.930000",
          "152954.933000",
          "152954.937000",
          "152954.940000",
          "152954.943000",
          "152954.946000",
          "152954.949000",
          "153034.869000",
          "153034.872000",
          "153034.875000",
          "153034.878000",
          "153034.881000",
          "153034.884000",
          "153034.887000",
          "153034.889000",
          "153034.892000",
          "153034.895000",
          "153034.898000",
          "153034.901000",
          "153034.904000",
          "153034.907000",
          "153034.910000",
          "153034.913000",
          "153034.916000",
          "153034.919000",
          "153034.922000",
          "153034.924000",
          "153034.927000",
          "153034.930000",
          "153034.933000",
          "153034.936000",
          "153034.939000",
          "153034.942000",
