{
  "aor": 0.0002762347188264059,
  "aqi": 0.006798953056234719,
  "bids_meta": {
    "AcquisitionMatrixPE": 104,
    "AcquisitionNumber": 1,
    "AcquisitionTime": "16:08:37.400000",
    "BandwidthPerPixelPhaseEncode": 17.17,
    "BaseResolution": 104,
    "BodyPartExamined": "BRAIN",
    "CogAtlasID": "trm_4c898da401420",
    "ConsistencyInfo": "N4_VE11C_LATEST_20160120",
    "ConversionSoftware": "dcm2niix",
    "ConversionSoftwareVersion": "v1.0.20171215 (OpenJPEG build) GCC7.3.0",
    "DerivedVendorReportedEchoSpacing": 0.000560011,
    "DeviceSerialNumber": "167006",
    "DwellTime": 2.1e-06,
    "EchoTime": 0.037,
    "EchoTrainLength": 104,
    "EffectiveEchoSpacing": 0.000560011,
    "FlipAngle": 52,
    "ImageComments": "Unaliased_MB4_PE3_LB",
    "ImageOrientationPatientDICOM": [
      0.999349,
      0.0122577,
      -0.0339184,
      -0.0223294,
      0.948828,
      -0.315004
    ],
    "ImageType": [
      "ORIGINAL",
      "PRIMARY",
      "M",
      "MB",
      "ND",
      "MOSAIC"
    ],
    "InPlanePhaseEncodingDirectionDICOM": "COL",
    "InstitutionAddress": "Chemin_Queen-Mary_4565_Montreal_District_CA_H3W_1W5",
    "InstitutionName": "IUGM",
    "InstitutionalDepartmentName": "Department",
    "MRAcquisitionType": "2D",
    "MagneticFieldStrength": 3,
    "Manufacturer": "Siemens",
    "ManufacturersModelName": "Prisma_fit",
    "Modality": "MR",
    "MultibandAccelerationFactor": 4,
    "PartialFourier": 1,
    "PatientPosition": "HFS",
    "PercentPhaseFOV": 100,
    "PhaseEncodingDirection": "j-",
    "PhaseEncodingSteps": 104,
    "PhaseResolution": 1,
    "PixelBandwidth": 2290,
    "ProcedureStepDescription": "video5_generic",
    "ProtocolName": "func_task-figures11",
    "PulseSequenceDetails": "%CustomerSeq%_cmrr_mbep2d_bold",
    "ReceiveCoilActiveElements": "HC1-7;NC1,2",
    "ReceiveCoilName": "HeadNeck_64",
    "ReconMatrixPE": 104,
    "RepetitionTime": 1.49,
    "SAR": 0.0293569,
    "ScanOptions": "FS",
    "ScanningSequence": "EP",
    "SequenceName": "epfid2d1_104",
    "SequenceVariant": "SK_SS",
    "SeriesDescription": "func_task-figures11",
    "SeriesNumber": 15,
    "ShimSetting": [
      639,
      -7257,
      -8841,
      566,
      51,
      -230,
      -127,
      3
    ],
    "SliceThickness": 2,
    "SliceTiming": [
      0,
      0.7825,
      0.0975,
      0.8825,
      0.195,
      0.98,
      0.2925,
      1.0775,
      0.3925,
      1.175,
      0.49,
      1.2725,
      0.5875,
      1.3725,
      0.685,
      0,
      0.7825,
      0.0975,
      0.8825,
      0.195,
      0.98,
      0.2925,
      1.0775,
      0.3925,
      1.175,
      0.49,
      1.2725,
      0.5875,
      1.3725,
      0.685,
      0,
      0.7825,
      0.0975,
      0.8825,
      0.195,
      0.98,
      0.2925,
      1.0775,
      0.3925,
      1.175,
      0.49,
      1.2725,
      0.5875,
      1.3725,
      0.685,
      0,
      0.7825,
      0.0975,
      0.8825,
      0.195,
      0.98,
      0.2925,
      1.0775,
      0.3925,
      1.175,
      0.49,
      1.2725,
      0.5875,
      1.3725,
      0.685
    ],
    "SoftwareVersions": "syngo_MR_E11",
    "SpacingBetweenSlices": 2,
    "StationName": "MRC35049",
    "TaskName": "figures11",
    "TotalReadoutTime": 0.0576811,
    "TxRefAmp": 219.483,
    "dataset": "<unset>",
    "dcmmeta_affine": [
      [
        -1.9986988306045532,
        -0.04465882480144501,
        -0.05664287880063057,
        107.83293914794922
      ],
      [
        -0.0245154220610857,
        1.8976550102233887,
        -0.6311136484146118,
        -69.91526794433594
      ],
      [
        -0.0678367167711258,
        0.6300087571144104,
        1.896967887878418,
        -66.38111877441406
      ],
      [
        0.0,
        0.0,
        0.0,
        1.0
      ]
    ],
    "dcmmeta_reorient_transform": [
      [
        0.0,
        -1.0,
        0.0,
        103.0
      ],
      [
        1.0,
        0.0,
        0.0,
        0.0
      ],
      [
        0.0,
        0.0,
        1.0,
        0.0
      ],
      [
        0.0,
        0.0,
        0.0,
        1.0
      ]
    ],
    "dcmmeta_shape": [
      104,
      104,
      60,
      410
    ],
    "dcmmeta_slice_dim": 2,
    "dcmmeta_version": 0.6,
    "global": {
      "const": {
        "AcquisitionMatrix": [
          104,
          0,
          0,
          104
        ],
        "AngioFlag": "N",
        "BitsAllocated": 16,
        "BitsStored": 16,
        "BodyPartExamined": "BRAIN",
        "Columns": 832,
        "EchoNumbers": 1,
        "EchoTime": 37.0,
        "EchoTrainLength": 104,
        "FlipAngle": 52.0,
        "HighBit": 15,
        "ImageOrientationPatient": [
          0.99934943511071,
          0.01225771077135,
          -0.0339183589012,
          -0.0223294116547,
          0.94882750523132,
          -0.3150043851943
        ],
        "ImagePositionPatient": [
          -814.50366109086,
          -825.21323365282,
          252.52554010406
        ],
        "ImageType": [
          "ORIGINAL",
          "PRIMARY",
          "M",
          "MB",
          "ND",
          "MOSAIC"
        ],
        "ImagedNucleus": "1H",
        "ImagingFrequency": 123.259399,
        "InPlanePhaseEncodingDirection": "COL",
        "MRAcquisitionType": "2D",
        "MagneticFieldStrength": 3.0,
        "Manufacturer": "SIEMENS",
        "ManufacturerModelName": "Prisma_fit",
        "Modality": "MR",
        "NumberOfAverages": 1.0,
        "NumberOfPhaseEncodingSteps": 104,
        "PercentPhaseFieldOfView": 100.0,
        "PercentSampling": 100.0,
        "PerformedProcedureStepStartTime": "150633.219000",
        "PhotometricInterpretation": "MONOCHROME2",
        "PixelBandwidth": 2290.0,
        "PixelRepresentation": 0,
        "PixelSpacing": [
          2.0,
          2.0
        ],
        "ProtocolName": "func_task-figures11",
        "RepetitionTime": 1490.0,
        "Rows": 832,
        "SAR": 0.0293569401304,
        "SamplesPerPixel": 1,
        "ScanOptions": "FS",
        "ScanningSequence": "EP",
        "SequenceName": "epfid2d1_104",
        "SequenceVariant": [
          "SK",
          "SS"
        ],
        "SeriesDescription": "func_task-figures11",
        "SeriesNumber": 15,
        "SeriesTime": "160954.238000",
        "SliceLocation": -43.95317023091,
        "SliceThickness": 2.0,
        "SmallestImagePixelValue": 0,
        "SoftwareVersions": "syngo MR E11",
        "SpacingBetweenSlices": 1.9999999849795,
        "SpecificCharacterSet": "ISO_IR 100",
        "StudyID": "1",
        "StudyTime": "150633.161000",
        "TransmitCoilName": "Body",
        "VariableFlipAngleFlag": "N",
        "WindowCenterWidthExplanation": "Algo1",
        "dBdt": 0.0
      },
      "slices": {}
    },
    "modality": "bold",
    "run_id": 1,
    "session_id": "003",
    "subject_id": "06",
    "task_id": "figures11",
    "time": {
      "samples": {
        "AcquisitionNumber": [
          1,
          2,
          3,
          4,
          5,
          6,
          7,
          8,
          9,
          10,
          11,
          12,
          13,
          14,
          15,
          16,
          17,
          18,
          19,
          20,
          21,
          22,
          23,
          24,
          25,
          26,
          27,
          28,
          29,
          30,
          31,
          32,
          33,
          34,
          35,
          36,
          37,
          38,
          39,
          40,
          41,
          42,
          43,
          44,
          45,
          46,
          47,
          48,
          49,
          50,
          51,
          52,
          53,
          54,
          55,
          56,
          57,
          58,
          59,
          60,
          61,
          62,
          63,
          64,
          65,
          66,
          67,
          68,
          69,
          70,
          71,
          72,
          73,
          74,
          75,
          76,
          77,
          78,
          79,
          80,
          81,
          82,
          83,
          84,
          85,
          86,
          87,
          88,
          89,
          90,
          91,
          92,
          93,
          94,
          95,
          96,
          97,
          98,
          99,
          100,
          101,
          102,
          103,
          104,
          105,
          106,
          107,
          108,
          109,
          110,
          111,
          112,
          113,
          114,
          115,
          116,
          117,
          118,
          119,
          120,
          121,
          122,
          123,
          124,
          125,
          126,
          127,
          128,
          129,
          130,
          131,
          132,
          133,
          134,
          135,
          136,
          137,
          138,
          139,
          140,
          141,
          142,
          143,
          144,
          145,
          146,
          147,
          148,
          149,
          150,
          151,
          152,
          153,
          154,
          155,
          156,
          157,
          158,
          159,
          160,
          161,
          162,
          163,
          164,
          165,
          166,
          167,
          168,
          169,
          170,
          171,
          172,
          173,
          174,
          175,
          176,
          177,
          178,
          179,
          180,
          181,
          182,
          183,
          184,
          185,
          186,
          187,
          188,
          189,
          190,
          191,
          192,
          193,
          194,
          195,
          196,
          197,
          198,
          199,
          200,
          201,
          202,
          203,
          204,
          205,
          206,
          207,
          208,
          209,
          210,
          211,
          212,
          213,
          214,
          215,
          216,
          217,
          218,
          219,
          220,
          221,
          222,
          223,
          224,
          225,
          226,
          227,
          228,
          229,
          230,
          231,
          232,
          233,
          234,
          235,
          236,
          237,
          238,
          239,
          240,
          241,
          242,
          243,
          244,
          245,
          246,
          247,
          248,
          249,
          250,
          251,
          252,
          253,
          254,
          255,
          256,
          257,
          258,
          259,
          260,
          261,
          262,
          263,
          264,
          265,
          266,
          267,
          268,
          269,
          270,
          271,
          272,
          273,
          274,
          275,
          276,
          277,
          278,
          279,
          280,
          281,
          282,
          283,
          284,
          285,
          286,
          287,
          288,
          289,
          290,
          291,
          292,
          293,
          294,
          295,
          296,
          297,
          298,
          299,
          300,
          301,
          302,
          303,
          304,
          305,
          306,
          307,
          308,
          309,
          310,
          311,
          312,
          313,
          314,
          315,
          316,
          317,
          318,
          319,
          320,
          321,
          322,
          323,
          324,
          325,
          326,
          327,
          328,
          329,
          330,
          331,
          332,
          333,
          334,
          335,
          336,
          337,
          338,
          339,
          340,
          341,
          342,
          343,
          344,
          345,
          346,
          347,
          348,
          349,
          350,
          351,
          352,
          353,
          354,
          355,
          356,
          357,
          358,
          359,
          360,
          361,
          362,
          363,
          364,
          365,
          366,
          367,
          368,
          369,
          370,
          371,
          372,
          373,
          374,
          375,
          376,
          377,
          378,
          379,
          380,
          381,
          382,
          383,
          384,
          385,
          386,
          387,
          388,
          389,
          390,
          391,
          392,
          393,
          394,
          395,
          396,
          397,
          398,
          399,
          400,
          401,
          402,
          403,
          404,
          405,
          406,
          407,
          408,
          409,
          410
        ],
        "AcquisitionTime": [
          "160837.400000",
          "160838.890000",
          "160840.380000",
          "160841.870000",
          "160843.360000",
          "160844.850000",
          "160846.340000",
          "160847.830000",
          "160849.320000",
          "160850.810000",
          "160852.300000",
          "160853.790000",
          "160855.280000",
          "160856.770000",
          "160858.260000",
          "160859.750000",
          "160901.240000",
          "160902.730000",
          "160904.220000",
          "160905.710000",
          "160907.200000",
          "160908.690000",
          "160910.180000",
          "160911.670000",
          "160913.160000",
          "160914.650000",
          "160916.140000",
          "160917.630000",
          "160919.120000",
          "160920.610000",
          "160922.100000",
          "160923.590000",
          "160925.080000",
          "160926.570000",
          "160928.060000",
          "160929.550000",
          "160931.040000",
          "160932.530000",
          "160934.020000",
          "160935.510000",
          "160937.000000",
          "160938.490000",
          "160939.980000",
          "160941.470000",
          "160942.960000",
          "160944.450000",
          "160945.940000",
          "160947.430000",
          "160948.920000",
          "160950.410000",
          "160951.900000",
          "160953.390000",
          "160954.880000",
          "160956.370000",
          "160957.860000",
          "160959.350000",
          "161000.840000",
          "161002.330000",
          "161003.820000",
          "161005.310000",
          "161006.800000",
          "161008.290000",
          "161009.780000",
          "161011.270000",
          "161012.760000",
          "161014.250000",
          "161015.740000",
          "161017.230000",
          "161018.720000",
          "161020.210000",
          "161021.700000",
          "161023.190000",
          "161024.680000",
          "161026.170000",
          "161027.660000",
          "161029.150000",
          "161030.640000",
          "161032.130000",
          "161033.620000",
          "161035.110000",
          "161036.600000",
          "161038.090000",
          "161039.580000",
          "161041.070000",
          "161042.560000",
          "161044.050000",
          "161045.540000",
          "161047.030000",
          "161048.520000",
          "161050.010000",
          "161051.500000",
          "161052.990000",
          "161054.480000",
          "161055.970000",
          "161057.460000",
          "161058.950000",
          "161100.440000",
          "161101.930000",
          "161103.420000",
          "161104.910000",
          "161106.400000",
          "161107.890000",
          "161109.380000",
          "161110.870000",
          "161112.360000",
          "161113.850000",
          "161115.340000",
          "161116.830000",
          "161118.320000",
          "161119.810000",
          "161121.300000",
          "161122.790000",
          "161124.280000",
          "161125.770000",
          "161127.260000",
          "161128.750000",
          "161130.240000",
          "161131.730000",
          "161133.220000",
          "161134.710000",
          "161136.200000",
          "161137.690000",
          "161139.180000",
          "161140.670000",
          "161142.160000",
          "161143.650000",
          "161145.140000",
          "161146.630000",
          "161148.120000",
          "161149.610000",
          "161151.100000",
          "161152.590000",
          "161154.080000",
          "161155.570000",
          "161157.060000",
          "161158.550000",
          "161200.040000",
          "161201.530000",
          "161203.020000",
          "161204.510000",
          "161206.000000",
          "161207.490000",
          "161208.980000",
          "161210.470000",
          "161211.960000",
          "161213.450000",
          "161214.940000",
          "161216.430000",
          "161217.920000",
          "161219.410000",
          "161220.900000",
          "161222.390000",
          "161223.880000",
          "161225.370000",
          "161226.860000",
          "161228.350000",
          "161229.840000",
          "161231.330000",
          "161232.820000",
          "161234.310000",
          "161235.800000",
          "161237.290000",
          "161238.780000",
          "161240.270000",
          "161241.760000",
          "161243.250000",
          "161244.740000",
          "161246.230000",
          "161247.720000",
          "161249.210000",
          "161250.700000",
          "161252.190000",
          "161253.680000",
          "161255.170000",
          "161256.660000",
          "161258.150000",
          "161259.640000",
          "161301.130000",
          "161302.620000",
          "161304.110000",
          "161305.600000",
          "161307.090000",
          "161308.580000",
          "161310.070000",
          "161311.560000",
          "161313.050000",
          "161314.540000",
          "161316.030000",
          "161317.520000",
          "161319.010000",
          "161320.500000",
          "161321.990000",
          "161323.480000",
          "161324.970000",
          "161326.460000",
          "161327.950000",
          "161329.440000",
          "161330.930000",
          "161332.420000",
          "161333.910000",
          "161335.400000",
          "161336.890000",
          "161338.380000",
          "161339.870000",
          "161341.360000",
          "161342.850000",
          "161344.340000",
          "161345.830000",
          "161347.320000",
          "161348.810000",
          "161350.300000",
          "161351.790000",
          "161353.280000",
          "161354.770000",
          "161356.260000",
          "161357.750000",
          "161359.240000",
          "161400.730000",
          "161402.220000",
          "161403.710000",
          "161405.200000",
          "161406.690000",
          "161408.180000",
          "161409.670000",
          "161411.160000",
          "161412.650000",
          "161414.140000",
          "161415.630000",
          "161417.120000",
          "161418.610000",
          "161420.100000",
          "161421.590000",
          "161423.080000",
          "161424.570000",
          "161426.060000",
          "161427.550000",
          "161429.040000",
          "161430.530000",
          "161432.020000",
          "161433.510000",
          "161435.000000",
          "161436.490000",
          "161437.980000",
          "161439.470000",
          "161440.960000",
          "161442.450000",
          "161443.940000",
          "161445.430000",
          "161446.920000",
          "161448.410000",
          "161449.900000",
          "161451.390000",
          "161452.880000",
          "161454.370000",
          "161455.860000",
          "161457.350000",
          "161458.840000",
          "161500.330000",
          "161501.820000",
          "161503.310000",
          "161504.800000",
          "161506.290000",
          "161507.780000",
          "161509.270000",
          "161510.760000",
          "161512.250000",
          "161513.740000",
          "161515.230000",
          "161516.720000",
          "161518.210000",
          "161519.700000",
          "161521.190000",
          "161522.680000",
          "161524.170000",
          "161525.660000",
          "161527.150000",
          "161528.640000",
          "161530.130000",
          "161531.620000",
          "161533.110000",
          "161534.600000",
          "161536.090000",
          "161537.580000",
          "161539.070000",
          "161540.560000",
          "161542.050000",
          "161543.540000",
          "161545.030000",
          "161546.520000",
          "161548.010000",
          "161549.500000",
          "161550.990000",
          "161552.480000",
          "161553.970000",
          "161555.460000",
          "161556.950000",
          "161558.440000",
          "161559.930000",
          "161601.420000",
          "161602.910000",
          "161604.400000",
          "161605.890000",
          "161607.380000",
          "161608.870000",
          "161610.360000",
          "161611.850000",
          "161613.340000",
          "161614.830000",
          "161616.320000",
          "161617.810000",
          "161619.300000",
          "161620.790000",
          "161622.280000",
          "161623.770000",
          "161625.260000",
          "161626.750000",
          "161628.240000",
          "161629.730000",
          "161631.220000",
          "161632.710000",
          "161634.200000",
          "161635.690000",
          "161637.180000",
          "161638.670000",
          "161640.160000",
          "161641.650000",
          "161643.140000",
          "161644.630000",
          "161646.120000",
          "161647.610000",
          "161649.100000",
          "161650.590000",
          "161652.080000",
          "161653.570000",
          "161655.060000",
          "161656.550000",
          "161658.040000",
          "161659.530000",
          "161701.020000",
          "161702.510000",
          "161704.000000",
          "161705.490000",
          "161706.980000",
          "161708.470000",
          "161709.960000",
          "161711.450000",
          "161712.940000",
          "161714.430000",
          "161715.920000",
          "161717.410000",
          "161718.900000",
          "161720.390000",
          "161721.880000",
          "161723.370000",
          "161724.860000",
          "161726.350000",
          "161727.840000",
          "161729.330000",
          "161730.820000",
          "161732.310000",
          "161733.800000",
          "161735.290000",
          "161736.780000",
          "161738.270000",
          "161739.760000",
          "161741.250000",
          "161742.740000",
          "161744.230000",
          "161745.720000",
          "161747.210000",
          "161748.700000",
          "161750.190000",
          "161751.680000",
          "161753.170000",
          "161754.660000",
          "161756.150000",
          "161757.640000",
          "161759.130000",
          "161800.620000",
          "161802.110000",
          "161803.600000",
          "161805.090000",
          "161806.580000",
          "161808.070000",
          "161809.560000",
          "161811.050000",
          "161812.540000",
          "161814.030000",
          "161815.520000",
          "161817.010000",
          "161818.500000",
          "161819.990000",
          "161821.480000",
          "161822.970000",
          "161824.460000",
          "161825.950000",
          "161827.440000",
          "161828.930000",
          "161830.420000",
          "161831.910000",
          "161833.400000",
          "161834.890000",
          "161836.380000",
          "161837.870000",
          "161839.360000",
          "161840.850000",
          "161842.340000",
          "161843.830000",
          "161845.320000",
          "161846.810000"
        ],
        "ContentTime": [
          "160954.241000",
          "160954.245000",
          "160954.248000",
          "160954.251000",
          "160954.254000",
          "160954.257000",
          "160954.259000",
          "160954.262000",
          "160954.265000",
          "160954.268000",
          "160954.275000",
          "160954.278000",
          "160954.283000",
          "160954.286000",
          "160954.289000",
          "160954.292000",
          "160954.295000",
          "160954.297000",
          "160954.300000",
          "160954.303000",
          "161014.208000",
          "161014.227000",
          "161014.229000",
          "161014.232000",
          "161014.235000",
          "161014.238000",
          "161014.241000",
          "161014.244000",
          "161014.247000",
          "161014.250000",
          "161014.254000",
          "161014.257000",
          "161014.260000",
          "161014.263000",
          "161014.265000",
          "161014.268000",
          "161014.271000",
          "161014.274000",
          "161014.277000",
          "161014.280000",
          "161034.208000",
          "161034.211000",
          "161034.222000",
          "161034.225000",
          "161034.228000",
          "161034.231000",
          "161034.234000",
          "161034.237000",
          "161034.240000",
          "161034.242000",
          "161034.245000",
          "161034.259000",
          "161034.262000",
          "161034.265000",
          "161034.268000",
          "161034.271000",
          "161034.274000",
          "161034.277000",
          "161034.280000",
          "161034.282000",
          "161054.208000",
          "161054.211000",
          "161054.214000",
          "161054.217000",
          "161054.220000",
          "161054.223000",
          "161054.226000",
          "161054.228000",
          "161054.231000",
          "161054.234000",
          "161054.237000",
          "161054.240000",
          "161054.243000",
          "161054.246000",
          "161054.249000",
          "161054.251000",
          "161054.254000",
          "161054.257000",
          "161054.260000",
          "161054.263000",
          "161054.266000",
          "161114.208000",
          "161114.211000",
          "161114.214000",
          "161114.217000",
          "161114.220000",
          "161114.223000",
          "161114.225000",
          "161114.228000",
          "161114.231000",
          "161114.234000",
          "161114.237000",
          "161114.240000",
          "161114.243000",
          "161114.246000",
          "161114.249000",
          "161114.252000",
          "161114.254000",
          "161114.257000",
          "161114.260000",
          "161114.263000",
          "161154.207000",
          "161154.210000",
          "161154.214000",
          "161154.217000",
          "161154.220000",
          "161154.223000",
          "161154.226000",
          "161154.229000",
          "161154.232000",
          "161154.235000",
          "161154.238000",
          "161154.241000",
          "161154.244000",
          "161154.247000",
          "161154.250000",
          "161154.253000",
          "161154.255000",
          "161154.258000",
          "161154.261000",
          "161154.264000",
          "161154.267000",
          "161154.270000",
          "161154.273000",
          "161154.276000",
          "161154.279000",
          "161154.281000",
          "161154.284000",
          "161154.287000",
          "161154.290000",
          "161154.293000",
          "161234.208000",
          "161234.211000",
          "161234.214000",
          "161234.217000",
          "161234.220000",
          "161234.223000",
          "161234.226000",
          "161234.228000",
          "161234.231000",
          "161234.234000",
          "161234.237000",
          "161234.240000",
          "161234.243000",
          "161234.246000",
          "161234.249000",
          "161234.252000",
          "161234.255000",
          "161234.257000",
          "161234.260000",
          "161234.263000",
          "161234.266000",
          "161234.269000",
          "161234.272000",
          "161234.275000",
          "161234.277000",
          "161234.280000",
          "161234.283000",
          "161314.208000",
          "161314.211000",
          "161314.214000",
          "161314.217000",
          "161314.220000",
          "161314.223000",
          "161314.226000",
          "161314.229000",
          "161314.232000",
          "161314.234000",
          "161314.237000",
          "161314.240000",
          "161314.243000",
          "161314.246000",
          "161314.249000",
          "161314.252000",
          "161314.255000",
          "161314.258000",
          "161314.261000",
          "161314.264000",
          "161314.266000",
          "161314.269000",
          "161314.272000",
          "161314.275000",
          "161314.278000",
          "161314.281000",
          "161314.284000",
          "161354.208000",
          "161354.211000",
          "161354.214000",
          "161354.217000",
          "161354.220000",
          "161354.223000",
          "161354.226000",
          "161354.229000",
          "161354.231000",
          "161354.234000",
          "161354.237000",
          "161354.241000",
          "161354.244000",
          "161354.246000",
          "161354.249000",
          "161354.252000",
          "161354.255000",
          "161354.258000",
          "161354.261000",
          "161354.264000",
          "161354.267000",
          "161354.270000",
          "161354.273000",
          "161354.276000",
          "161354.279000",
          "161354.282000",
          "161354.284000",
          "161434.208000",
          "161434.211000",
          "161434.214000",
          "161434.217000",
