{
  "aor": 0.0003841219512195122,
  "aqi": 0.006244221195121952,
  "bids_meta": {
    "AcquisitionMatrixPE": 104,
    "AcquisitionNumber": 1,
    "AcquisitionTime": "14:56:22.782500",
    "BandwidthPerPixelPhaseEncode": 17.17,
    "BaseResolution": 104,
    "BodyPartExamined": "BRAIN",
    "CogAtlasID": "trm_4c898da401420",
    "ConsistencyInfo": "N4_VE11C_LATEST_20160120",
    "ConversionSoftware": "dcm2niix",
    "ConversionSoftwareVersion": "v1.0.20171215 (OpenJPEG build) GCC7.3.0",
    "DerivedVendorReportedEchoSpacing": 0.000560011,
    "DeviceSerialNumber": "167006",
    "DwellTime": 2.1e-06,
    "EchoTime": 0.037,
    "EchoTrainLength": 104,
    "EffectiveEchoSpacing": 0.000560011,
    "FlipAngle": 52,
    "ImageComments": "Unaliased_MB4_PE3_LB",
    "ImageOrientationPatientDICOM": [
      0.99912,
      0.04137,
      -0.00686084,
      -0.0415262,
      0.953257,
      -0.299294
    ],
    "ImageType": [
      "ORIGINAL",
      "PRIMARY",
      "M",
      "MB",
      "ND",
      "MOSAIC"
    ],
    "InPlanePhaseEncodingDirectionDICOM": "COL",
    "InstitutionAddress": "Chemin_Queen-Mary_4565_Montreal_District_CA_H3W_1W5",
    "InstitutionName": "IUGM",
    "InstitutionalDepartmentName": "Department",
    "MRAcquisitionType": "2D",
    "MagneticFieldStrength": 3,
    "Manufacturer": "Siemens",
    "ManufacturersModelName": "Prisma_fit",
    "Modality": "MR",
    "MultibandAccelerationFactor": 4,
    "PartialFourier": 1,
    "PatientPosition": "HFS",
    "PercentPhaseFOV": 100,
    "PhaseEncodingDirection": "j-",
    "PhaseEncodingSteps": 104,
    "PhaseResolution": 1,
    "PixelBandwidth": 2290,
    "ProcedureStepDescription": "video5_generic",
    "ProtocolName": "func_task-figures11",
    "PulseSequenceDetails": "%CustomerSeq%_cmrr_mbep2d_bold",
    "ReceiveCoilActiveElements": "HC1-7;NC1,2",
    "ReceiveCoilName": "HeadNeck_64",
    "ReconMatrixPE": 104,
    "RepetitionTime": 1.49,
    "SAR": 0.0301155,
    "ScanOptions": "FS",
    "ScanningSequence": "EP",
    "SequenceName": "epfid2d1_104",
    "SequenceVariant": "SK_SS",
    "SeriesDescription": "func_task-figures11",
    "SeriesNumber": 9,
    "ShimSetting": [
      624,
      -7151,
      -8827,
      657,
      40,
      189,
      0,
      3
    ],
    "SliceThickness": 2,
    "SliceTiming": [
      0,
      0.7825,
      0.0975,
      0.88,
      0.195,
      0.98,
      0.2925,
      1.0775,
      0.39,
      1.175,
      0.49,
      1.2725,
      0.5875,
      1.37,
      0.685,
      0,
      0.7825,
      0.0975,
      0.88,
      0.195,
      0.98,
      0.2925,
      1.0775,
      0.39,
      1.175,
      0.49,
      1.2725,
      0.5875,
      1.37,
      0.685,
      0,
      0.7825,
      0.0975,
      0.88,
      0.195,
      0.98,
      0.2925,
      1.0775,
      0.39,
      1.175,
      0.49,
      1.2725,
      0.5875,
      1.37,
      0.685,
      0,
      0.7825,
      0.0975,
      0.88,
      0.195,
      0.98,
      0.2925,
      1.0775,
      0.39,
      1.175,
      0.49,
      1.2725,
      0.5875,
      1.37,
      0.685
    ],
    "SoftwareVersions": "syngo_MR_E11",
    "SpacingBetweenSlices": 2,
    "StationName": "MRC35049",
    "TaskName": "figures11",
    "TotalReadoutTime": 0.0576811,
    "TxRefAmp": 209.629,
    "dataset": "<unset>",
    "dcmmeta_affine": [
      [
        -1.9982407093048096,
        -0.08305232226848602,
        0.01168330479413271,
        111.93883514404297
      ],
      [
        -0.08273997157812119,
        1.9065136909484863,
        -0.5986316800117493,
        -73.27394104003906
      ],
      [
        -0.013721683993935585,
        0.5985884070396423,
        1.908272385597229,
        -70.48446655273438
      ],
      [
        0.0,
        0.0,
        0.0,
        1.0
      ]
    ],
    "dcmmeta_reorient_transform": [
      [
        0.0,
        -1.0,
        0.0,
        103.0
      ],
      [
        1.0,
        0.0,
        0.0,
        0.0
      ],
      [
        0.0,
        0.0,
        1.0,
        0.0
      ],
      [
        0.0,
        0.0,
        0.0,
        1.0
      ]
    ],
    "dcmmeta_shape": [
      104,
      104,
      60,
      410
    ],
    "dcmmeta_slice_dim": 2,
    "dcmmeta_version": 0.6,
    "global": {
      "const": {
        "AcquisitionMatrix": [
          104,
          0,
          0,
          104
        ],
        "AngioFlag": "N",
        "BitsAllocated": 16,
        "BitsStored": 16,
        "BodyPartExamined": "BRAIN",
        "Columns": 832,
        "EchoNumbers": 1,
        "EchoTime": 37.0,
        "EchoTrainLength": 104,
        "FlipAngle": 52.0,
        "HighBit": 15,
        "ImageOrientationPatient": [
          0.99912033966805,
          0.04136998562052,
          -0.0068608418838,
          -0.0415261599076,
          0.95325681642148,
          -0.2992942030667
        ],
        "ImagePositionPatient": [
          -800.51301240689,
          -847.18527818383,
          214.05101448859
        ],
        "ImageType": [
          "ORIGINAL",
          "PRIMARY",
          "M",
          "MB",
          "ND",
          "MOSAIC"
        ],
        "ImagedNucleus": "1H",
        "ImagingFrequency": 123.259297,
        "InPlanePhaseEncodingDirection": "COL",
        "MRAcquisitionType": "2D",
        "MagneticFieldStrength": 3.0,
        "Manufacturer": "SIEMENS",
        "ManufacturerModelName": "Prisma_fit",
        "Modality": "MR",
        "NumberOfAverages": 1.0,
        "NumberOfPhaseEncodingSteps": 104,
        "PercentPhaseFieldOfView": 100.0,
        "PercentSampling": 100.0,
        "PerformedProcedureStepStartTime": "142920.275000",
        "PhotometricInterpretation": "MONOCHROME2",
        "PixelBandwidth": 2290.0,
        "PixelRepresentation": 0,
        "PixelSpacing": [
          2.0,
          2.0
        ],
        "ProtocolName": "func_task-figures11",
        "RepetitionTime": 1490.0,
        "Rows": 832,
        "SAR": 0.03011545356847,
        "SamplesPerPixel": 1,
        "ScanOptions": "FS",
        "ScanningSequence": "EP",
        "SequenceName": "epfid2d1_104",
        "SequenceVariant": [
          "SK",
          "SS"
        ],
        "SeriesDescription": "func_task-figures11",
        "SeriesNumber": 9,
        "SeriesTime": "145727.347000",
        "SliceLocation": -44.665822110085,
        "SliceThickness": 2.0,
        "SmallestImagePixelValue": 0,
        "SoftwareVersions": "syngo MR E11",
        "SpacingBetweenSlices": 2.0000000150826,
        "SpecificCharacterSet": "ISO_IR 100",
        "StudyID": "1",
        "StudyTime": "142920.208000",
        "TransmitCoilName": "Body",
        "VariableFlipAngleFlag": "N",
        "WindowCenterWidthExplanation": "Algo1",
        "dBdt": 0.0
      },
      "slices": {}
    },
    "modality": "bold",
    "run_id": 1,
    "session_id": "010",
    "subject_id": "03",
    "task_id": "figures11",
    "time": {
      "samples": {
        "AcquisitionNumber": [
          1,
          2,
          3,
          4,
          5,
          6,
          7,
          8,
          9,
          10,
          11,
          12,
          13,
          14,
          15,
          16,
          17,
          18,
          19,
          20,
          21,
          22,
          23,
          24,
          25,
          26,
          27,
          28,
          29,
          30,
          31,
          32,
          33,
          34,
          35,
          36,
          37,
          38,
          39,
          40,
          41,
          42,
          43,
          44,
          45,
          46,
          47,
          48,
          49,
          50,
          51,
          52,
          53,
          54,
          55,
          56,
          57,
          58,
          59,
          60,
          61,
          62,
          63,
          64,
          65,
          66,
          67,
          68,
          69,
          70,
          71,
          72,
          73,
          74,
          75,
          76,
          77,
          78,
          79,
          80,
          81,
          82,
          83,
          84,
          85,
          86,
          87,
          88,
          89,
          90,
          91,
          92,
          93,
          94,
          95,
          96,
          97,
          98,
          99,
          100,
          101,
          102,
          103,
          104,
          105,
          106,
          107,
          108,
          109,
          110,
          111,
          112,
          113,
          114,
          115,
          116,
          117,
          118,
          119,
          120,
          121,
          122,
          123,
          124,
          125,
          126,
          127,
          128,
          129,
          130,
          131,
          132,
          133,
          134,
          135,
          136,
          137,
          138,
          139,
          140,
          141,
          142,
          143,
          144,
          145,
          146,
          147,
          148,
          149,
          150,
          151,
          152,
          153,
          154,
          155,
          156,
          157,
          158,
          159,
          160,
          161,
          162,
          163,
          164,
          165,
          166,
          167,
          168,
          169,
          170,
          171,
          172,
          173,
          174,
          175,
          176,
          177,
          178,
          179,
          180,
          181,
          182,
          183,
          184,
          185,
          186,
          187,
          188,
          189,
          190,
          191,
          192,
          193,
          194,
          195,
          196,
          197,
          198,
          199,
          200,
          201,
          202,
          203,
          204,
          205,
          206,
          207,
          208,
          209,
          210,
          211,
          212,
          213,
          214,
          215,
          216,
          217,
          218,
          219,
          220,
          221,
          222,
          223,
          224,
          225,
          226,
          227,
          228,
          229,
          230,
          231,
          232,
          233,
          234,
          235,
          236,
          237,
          238,
          239,
          240,
          241,
          242,
          243,
          244,
          245,
          246,
          247,
          248,
          249,
          250,
          251,
          252,
          253,
          254,
          255,
          256,
          257,
          258,
          259,
          260,
          261,
          262,
          263,
          264,
          265,
          266,
          267,
          268,
          269,
          270,
          271,
          272,
          273,
          274,
          275,
          276,
          277,
          278,
          279,
          280,
          281,
          282,
          283,
          284,
          285,
          286,
          287,
          288,
          289,
          290,
          291,
          292,
          293,
          294,
          295,
          296,
          297,
          298,
          299,
          300,
          301,
          302,
          303,
          304,
          305,
          306,
          307,
          308,
          309,
          310,
          311,
          312,
          313,
          314,
          315,
          316,
          317,
          318,
          319,
          320,
          321,
          322,
          323,
          324,
          325,
          326,
          327,
          328,
          329,
          330,
          331,
          332,
          333,
          334,
          335,
          336,
          337,
          338,
          339,
          340,
          341,
          342,
          343,
          344,
          345,
          346,
          347,
          348,
          349,
          350,
          351,
          352,
          353,
          354,
          355,
          356,
          357,
          358,
          359,
          360,
          361,
          362,
          363,
          364,
          365,
          366,
          367,
          368,
          369,
          370,
          371,
          372,
          373,
          374,
          375,
          376,
          377,
          378,
          379,
          380,
          381,
          382,
          383,
          384,
          385,
          386,
          387,
          388,
          389,
          390,
          391,
          392,
          393,
          394,
          395,
          396,
          397,
          398,
          399,
          400,
          401,
          402,
          403,
          404,
          405,
          406,
          407,
          408,
          409,
          410
        ],
        "AcquisitionTime": [
          "145622.782500",
          "145624.272500",
          "145625.762500",
          "145627.252500",
          "145628.742500",
          "145630.232500",
          "145631.722500",
          "145633.212500",
          "145634.702500",
          "145636.192500",
          "145637.682500",
          "145639.172500",
          "145640.662500",
          "145642.152500",
          "145643.642500",
          "145645.132500",
          "145646.622500",
          "145648.112500",
          "145649.602500",
          "145651.092500",
          "145652.582500",
          "145654.072500",
          "145655.562500",
          "145657.052500",
          "145658.542500",
          "145700.032500",
          "145701.522500",
          "145703.012500",
          "145704.502500",
          "145705.992500",
          "145707.482500",
          "145708.972500",
          "145710.462500",
          "145711.952500",
          "145713.442500",
          "145714.932500",
          "145716.422500",
          "145717.912500",
          "145719.402500",
          "145720.892500",
          "145722.382500",
          "145723.872500",
          "145725.362500",
          "145726.852500",
          "145728.342500",
          "145729.832500",
          "145731.322500",
          "145732.812500",
          "145734.302500",
          "145735.792500",
          "145737.282500",
          "145738.772500",
          "145740.262500",
          "145741.752500",
          "145743.242500",
          "145744.732500",
          "145746.222500",
          "145747.712500",
          "145749.202500",
          "145750.692500",
          "145752.182500",
          "145753.672500",
          "145755.162500",
          "145756.652500",
          "145758.142500",
          "145759.632500",
          "145801.122500",
          "145802.612500",
          "145804.102500",
          "145805.592500",
          "145807.082500",
          "145808.572500",
          "145810.062500",
          "145811.552500",
          "145813.042500",
          "145814.532500",
          "145816.022500",
          "145817.512500",
          "145819.002500",
          "145820.492500",
          "145821.982500",
          "145823.472500",
          "145824.962500",
          "145826.452500",
          "145827.942500",
          "145829.432500",
          "145830.922500",
          "145832.412500",
          "145833.902500",
          "145835.392500",
          "145836.882500",
          "145838.372500",
          "145839.862500",
          "145841.352500",
          "145842.842500",
          "145844.332500",
          "145845.822500",
          "145847.312500",
          "145848.802500",
          "145850.292500",
          "145851.782500",
          "145853.272500",
          "145854.762500",
          "145856.252500",
          "145857.742500",
          "145859.232500",
          "145900.722500",
          "145902.212500",
          "145903.702500",
          "145905.192500",
          "145906.682500",
          "145908.172500",
          "145909.662500",
          "145911.152500",
          "145912.642500",
          "145914.132500",
          "145915.622500",
          "145917.112500",
          "145918.602500",
          "145920.092500",
          "145921.582500",
          "145923.072500",
          "145924.562500",
          "145926.052500",
          "145927.542500",
          "145929.032500",
          "145930.522500",
          "145932.012500",
          "145933.502500",
          "145934.992500",
          "145936.482500",
          "145937.972500",
          "145939.462500",
          "145940.952500",
          "145942.442500",
          "145943.932500",
          "145945.422500",
          "145946.912500",
          "145948.402500",
          "145949.892500",
          "145951.382500",
          "145952.872500",
          "145954.362500",
          "145955.852500",
          "145957.342500",
          "145958.832500",
          "150000.322500",
          "150001.812500",
          "150003.302500",
          "150004.792500",
          "150006.282500",
          "150007.772500",
          "150009.262500",
          "150010.752500",
          "150012.242500",
          "150013.732500",
          "150015.222500",
          "150016.712500",
          "150018.202500",
          "150019.692500",
          "150021.182500",
          "150022.672500",
          "150024.162500",
          "150025.652500",
          "150027.142500",
          "150028.632500",
          "150030.122500",
          "150031.612500",
          "150033.102500",
          "150034.592500",
          "150036.082500",
          "150037.572500",
          "150039.062500",
          "150040.552500",
          "150042.042500",
          "150043.532500",
          "150045.022500",
          "150046.512500",
          "150048.002500",
          "150049.492500",
          "150050.982500",
          "150052.472500",
          "150053.962500",
          "150055.452500",
          "150056.942500",
          "150058.432500",
          "150059.922500",
          "150101.412500",
          "150102.902500",
          "150104.392500",
          "150105.882500",
          "150107.372500",
          "150108.862500",
          "150110.352500",
          "150111.842500",
          "150113.332500",
          "150114.822500",
          "150116.312500",
          "150117.802500",
          "150119.292500",
          "150120.782500",
          "150122.272500",
          "150123.762500",
          "150125.252500",
          "150126.742500",
          "150128.232500",
          "150129.722500",
          "150131.212500",
          "150132.702500",
          "150134.192500",
          "150135.682500",
          "150137.172500",
          "150138.662500",
          "150140.152500",
          "150141.642500",
          "150143.132500",
          "150144.622500",
          "150146.112500",
          "150147.602500",
          "150149.092500",
          "150150.582500",
          "150152.072500",
          "150153.562500",
          "150155.052500",
          "150156.542500",
          "150158.032500",
          "150159.522500",
          "150201.012500",
          "150202.502500",
          "150203.992500",
          "150205.482500",
          "150206.972500",
          "150208.462500",
          "150209.952500",
          "150211.442500",
          "150212.932500",
          "150214.422500",
          "150215.912500",
          "150217.402500",
          "150218.892500",
          "150220.382500",
          "150221.872500",
          "150223.362500",
          "150224.852500",
          "150226.342500",
          "150227.832500",
          "150229.322500",
          "150230.812500",
          "150232.302500",
          "150233.792500",
          "150235.282500",
          "150236.772500",
          "150238.262500",
          "150239.752500",
          "150241.242500",
          "150242.732500",
          "150244.222500",
          "150245.712500",
          "150247.202500",
          "150248.692500",
          "150250.182500",
          "150251.672500",
          "150253.162500",
          "150254.652500",
          "150256.142500",
          "150257.632500",
          "150259.122500",
          "150300.612500",
          "150302.102500",
          "150303.592500",
          "150305.082500",
          "150306.572500",
          "150308.062500",
          "150309.552500",
          "150311.042500",
          "150312.532500",
          "150314.022500",
          "150315.512500",
          "150317.002500",
          "150318.492500",
          "150319.982500",
          "150321.472500",
          "150322.962500",
          "150324.452500",
          "150325.942500",
          "150327.432500",
          "150328.922500",
          "150330.412500",
          "150331.902500",
          "150333.392500",
          "150334.882500",
          "150336.372500",
          "150337.862500",
          "150339.352500",
          "150340.842500",
          "150342.332500",
          "150343.822500",
          "150345.312500",
          "150346.802500",
          "150348.292500",
          "150349.782500",
          "150351.272500",
          "150352.762500",
          "150354.252500",
          "150355.742500",
          "150357.232500",
          "150358.722500",
          "150400.212500",
          "150401.702500",
          "150403.192500",
          "150404.682500",
          "150406.172500",
          "150407.662500",
          "150409.152500",
          "150410.642500",
          "150412.132500",
          "150413.622500",
          "150415.112500",
          "150416.602500",
          "150418.092500",
          "150419.582500",
          "150421.072500",
          "150422.562500",
          "150424.052500",
          "150425.542500",
          "150427.032500",
          "150428.522500",
          "150430.012500",
          "150431.502500",
          "150432.992500",
          "150434.482500",
          "150435.972500",
          "150437.462500",
          "150438.952500",
          "150440.442500",
          "150441.932500",
          "150443.422500",
          "150444.912500",
          "150446.402500",
          "150447.892500",
          "150449.382500",
          "150450.872500",
          "150452.362500",
          "150453.852500",
          "150455.342500",
          "150456.832500",
          "150458.322500",
          "150459.812500",
          "150501.302500",
          "150502.792500",
          "150504.282500",
          "150505.772500",
          "150507.262500",
          "150508.752500",
          "150510.242500",
          "150511.732500",
          "150513.222500",
          "150514.712500",
          "150516.202500",
          "150517.692500",
          "150519.182500",
          "150520.672500",
          "150522.162500",
          "150523.652500",
          "150525.142500",
          "150526.632500",
          "150528.122500",
          "150529.612500",
          "150531.102500",
          "150532.592500",
          "150534.082500",
          "150535.572500",
          "150537.062500",
          "150538.552500",
          "150540.042500",
          "150541.532500",
          "150543.022500",
          "150544.512500",
          "150546.002500",
          "150547.492500",
          "150548.982500",
          "150550.472500",
          "150551.962500",
          "150553.452500",
          "150554.942500",
          "150556.432500",
          "150557.922500",
          "150559.412500",
          "150600.902500",
          "150602.392500",
          "150603.882500",
          "150605.372500",
          "150606.862500",
          "150608.352500",
          "150609.842500",
          "150611.332500",
          "150612.822500",
          "150614.312500",
          "150615.802500",
          "150617.292500",
          "150618.782500",
          "150620.272500",
          "150621.762500",
          "150623.252500",
          "150624.742500",
          "150626.232500",
          "150627.722500",
          "150629.212500",
          "150630.702500",
          "150632.192500"
        ],
        "ContentTime": [
          "145727.349000",
          "145727.362000",
          "145727.365000",
          "145727.368000",
          "145727.371000",
          "145727.374000",
          "145727.383000",
          "145727.385000",
          "145727.388000",
          "145747.324000",
          "145747.327000",
          "145747.330000",
          "145747.332000",
          "145747.335000",
          "145747.338000",
          "145747.341000",
          "145747.344000",
          "145747.347000",
          "145747.350000",
          "145747.352000",
          "145747.355000",
          "145747.358000",
          "145747.361000",
          "145747.364000",
          "145747.372000",
          "145747.375000",
          "145747.378000",
          "145747.381000",
          "145747.384000",
          "145807.323000",
          "145807.326000",
          "145807.329000",
          "145807.332000",
          "145807.334000",
          "145807.337000",
          "145807.340000",
          "145807.343000",
          "145807.346000",
          "145807.349000",
          "145807.351000",
          "145807.354000",
          "145807.357000",
          "145807.370000",
          "145807.373000",
          "145807.376000",
          "145807.379000",
          "145807.382000",
          "145807.384000",
          "145807.387000",
          "145827.323000",
          "145827.326000",
          "145827.329000",
          "145827.332000",
          "145827.335000",
          "145827.337000",
          "145827.340000",
          "145827.343000",
          "145827.346000",
          "145827.349000",
          "145827.352000",
          "145827.355000",
          "145827.372000",
          "145827.375000",
          "145827.378000",
          "145827.381000",
          "145827.384000",
          "145827.386000",
          "145827.389000",
          "145827.392000",
          "145847.323000",
          "145847.326000",
          "145847.329000",
          "145847.332000",
          "145847.335000",
          "145847.338000",
          "145847.340000",
          "145847.343000",
          "145847.346000",
          "145847.349000",
          "145847.352000",
          "145847.355000",
          "145847.357000",
          "145847.360000",
          "145847.363000",
          "145847.366000",
          "145847.369000",
          "145847.371000",
          "145847.374000",
          "145847.377000",
          "145907.324000",
          "145907.336000",
          "145907.339000",
          "145907.342000",
          "145907.345000",
          "145907.347000",
          "145907.350000",
          "145907.353000",
          "145907.356000",
          "145907.359000",
          "145907.362000",
          "145907.364000",
          "145907.367000",
          "145907.370000",
          "145907.373000",
          "145907.376000",
          "145907.383000",
          "145907.386000",
          "145907.389000",
          "145907.392000",
          "145907.400000",
          "145947.324000",
          "145947.327000",
          "145947.330000",
          "145947.333000",
          "145947.336000",
          "145947.338000",
          "145947.341000",
          "145947.344000",
          "145947.347000",
          "145947.350000",
          "145947.353000",
          "145947.356000",
          "145947.358000",
          "145947.362000",
          "145947.365000",
          "145947.368000",
          "145947.371000",
          "145947.374000",
          "145947.377000",
          "145947.380000",
          "145947.383000",
          "145947.385000",
          "145947.388000",
          "145947.391000",
          "145947.394000",
          "145947.397000",
          "150027.323000",
          "150027.326000",
          "150027.329000",
          "150027.332000",
          "150027.335000",
          "150027.338000",
          "150027.341000",
          "150027.344000",
          "150027.346000",
          "150027.349000",
          "150027.352000",
          "150027.355000",
          "150027.358000",
          "150027.361000",
          "150027.363000",
          "150027.366000",
          "150027.369000",
          "150027.372000",
          "150027.375000",
          "150027.378000",
          "150027.381000",
          "150027.384000",
          "150027.386000",
          "150027.389000",
          "150027.392000",
          "150027.395000",
          "150027.398000",
          "150107.323000",
          "150107.326000",
          "150107.329000",
          "150107.332000",
          "150107.334000",
          "150107.337000",
          "150107.340000",
          "150107.343000",
          "150107.346000",
          "150107.349000",
          "150107.361000",
          "150107.364000",
          "150107.367000",
          "150107.369000",
          "150107.372000",
          "150107.375000",
          "150107.378000",
          "150107.381000",
          "150107.384000",
          "150107.387000",
          "150107.390000",
          "150107.393000",
          "150107.396000",
          "150107.399000",
          "150107.402000",
          "150107.404000",
          "150107.407000",
          "150147.324000",
          "150147.327000",
          "150147.330000",
          "150147.333000",
          "150147.336000",
          "150147.344000",
          "150147.347000",
          "150147.350000",
          "150147.353000",
          "150147.356000",
          "150147.359000",
          "150147.362000",
          "150147.365000",
          "150147.368000",
          "150147.370000",
          "150147.373000",
          "150147.376000",
          "150147.379000",
          "150147.382000",
          "150147.385000",
          "150147.388000",
          "150147.391000",
          "150147.394000",
          "150147.396000",
          "150147.399000",
          "150147.410000",
          "150147.413000",
