{
  "aor": 0.00032496143958868893,
  "aqi": 0.00565514910025707,
  "bids_meta": {
    "AcquisitionMatrixPE": 104,
    "AcquisitionNumber": 1,
    "AcquisitionTime": "19:49:51.835000",
    "BandwidthPerPixelPhaseEncode": 17.17,
    "BaseResolution": 104,
    "BodyPartExamined": "BRAIN",
    "CogAtlasID": "trm_4c898da401420",
    "ConsistencyInfo": "N4_VE11C_LATEST_20160120",
    "ConversionSoftware": "dcm2niix",
    "ConversionSoftwareVersion": "v1.0.20171215 (OpenJPEG build) GCC7.3.0",
    "DerivedVendorReportedEchoSpacing": 0.000560011,
    "DeviceSerialNumber": "167006",
    "DwellTime": 2.1e-06,
    "EchoTime": 0.037,
    "EchoTrainLength": 104,
    "EffectiveEchoSpacing": 0.000560011,
    "FlipAngle": 52,
    "ImageComments": "Unaliased_MB4_PE3_LB",
    "ImageOrientationPatientDICOM": [
      0.998646,
      0.0302134,
      -0.0423355,
      -0.0422049,
      0.946434,
      -0.320129
    ],
    "ImageType": [
      "ORIGINAL",
      "PRIMARY",
      "M",
      "MB",
      "ND",
      "MOSAIC"
    ],
    "InPlanePhaseEncodingDirectionDICOM": "COL",
    "InstitutionAddress": "Chemin_Queen-Mary_4565_Montreal_District_CA_H3W_1W5",
    "InstitutionName": "IUGM",
    "InstitutionalDepartmentName": "Department",
    "MRAcquisitionType": "2D",
    "MagneticFieldStrength": 3,
    "Manufacturer": "Siemens",
    "ManufacturersModelName": "Prisma_fit",
    "Modality": "MR",
    "MultibandAccelerationFactor": 4,
    "PartialFourier": 1,
    "PatientPosition": "HFS",
    "PercentPhaseFOV": 100,
    "PhaseEncodingDirection": "j-",
    "PhaseEncodingSteps": 104,
    "PhaseResolution": 1,
    "PixelBandwidth": 2290,
    "ProcedureStepDescription": "video5_generic",
    "ProtocolName": "func_task-life5",
    "PulseSequenceDetails": "%CustomerSeq%_cmrr_mbep2d_bold",
    "ReceiveCoilActiveElements": "HC1-7;NC1,2",
    "ReceiveCoilName": "HeadNeck_64",
    "ReconMatrixPE": 104,
    "RepetitionTime": 1.49,
    "SAR": 0.0361212,
    "ScanOptions": "FS",
    "ScanningSequence": "EP",
    "SequenceName": "epfid2d1_104",
    "SequenceVariant": "SK_SS",
    "SeriesDescription": "func_task-life5",
    "SeriesNumber": 15,
    "ShimSetting": [
      614,
      -7237,
      -8884,
      383,
      50,
      -366,
      24,
      29
    ],
    "SliceThickness": 2,
    "SliceTiming": [
      0,
      0.785,
      0.0975,
      0.8825,
      0.1975,
      0.98,
      0.295,
      1.0775,
      0.3925,
      1.1775,
      0.49,
      1.275,
      0.5875,
      1.3725,
      0.6875,
      0,
      0.785,
      0.0975,
      0.8825,
      0.1975,
      0.98,
      0.295,
      1.0775,
      0.3925,
      1.1775,
      0.49,
      1.275,
      0.5875,
      1.3725,
      0.6875,
      0,
      0.785,
      0.0975,
      0.8825,
      0.1975,
      0.98,
      0.295,
      1.0775,
      0.3925,
      1.1775,
      0.49,
      1.275,
      0.5875,
      1.3725,
      0.6875,
      0,
      0.785,
      0.0975,
      0.8825,
      0.1975,
      0.98,
      0.295,
      1.0775,
      0.3925,
      1.1775,
      0.49,
      1.275,
      0.5875,
      1.3725,
      0.6875
    ],
    "SoftwareVersions": "syngo_MR_E11",
    "SpacingBetweenSlices": 2,
    "StationName": "MRC35049",
    "TaskName": "life05",
    "TotalReadoutTime": 0.0576811,
    "TxRefAmp": 240.696,
    "dataset": "<unset>",
    "dcmmeta_affine": [
      [
        -1.9972929954528809,
        -0.08440977334976196,
        -0.06079108640551567,
        108.05724334716797
      ],
      [
        -0.06042678281664848,
        1.892867088317871,
        -0.6429641246795654,
        -60.038455963134766
      ],
      [
        -0.08467095345258713,
        0.6402571797370911,
        1.8928554058074951,
        -76.07490539550781
      ],
      [
        0.0,
        0.0,
        0.0,
        1.0
      ]
    ],
    "dcmmeta_reorient_transform": [
      [
        0.0,
        -1.0,
        0.0,
        103.0
      ],
      [
        1.0,
        0.0,
        0.0,
        0.0
      ],
      [
        0.0,
        0.0,
        1.0,
        0.0
      ],
      [
        0.0,
        0.0,
        0.0,
        1.0
      ]
    ],
    "dcmmeta_shape": [
      104,
      104,
      60,
      390
    ],
    "dcmmeta_slice_dim": 2,
    "dcmmeta_version": 0.6,
    "global": {
      "const": {
        "AcquisitionMatrix": [
          104,
          0,
          0,
          104
        ],
        "AngioFlag": "N",
        "BitsAllocated": 16,
        "BitsStored": 16,
        "BodyPartExamined": "BRAIN",
        "Columns": 832,
        "EchoNumbers": 1,
        "EchoTime": 37.0,
        "EchoTrainLength": 104,
        "FlipAngle": 52.0,
        "HighBit": 15,
        "ImageOrientationPatient": [
          0.99864651328554,
          0.03021339121514,
          -0.0423354755958,
          -0.0422048865243,
          0.94643353298071,
          -0.3201285916677
        ],
        "ImagePositionPatient": [
          -795.65253979179,
          -845.92581267778,
          253.74542744953
        ],
        "ImageType": [
          "ORIGINAL",
          "PRIMARY",
          "M",
          "MB",
          "ND",
          "MOSAIC"
        ],
        "ImagedNucleus": "1H",
        "ImagingFrequency": 123.259434,
        "InPlanePhaseEncodingDirection": "COL",
        "MRAcquisitionType": "2D",
        "MagneticFieldStrength": 3.0,
        "Manufacturer": "SIEMENS",
        "ManufacturerModelName": "Prisma_fit",
        "Modality": "MR",
        "NumberOfAverages": 1.0,
        "NumberOfPhaseEncodingSteps": 104,
        "PercentPhaseFieldOfView": 100.0,
        "PercentSampling": 100.0,
        "PerformedProcedureStepStartTime": "190311.788000",
        "PhotometricInterpretation": "MONOCHROME2",
        "PixelBandwidth": 2290.0,
        "PixelRepresentation": 0,
        "PixelSpacing": [
          2.0,
          2.0
        ],
        "ProtocolName": "func_task-life5",
        "RepetitionTime": 1490.0,
        "Rows": 832,
        "SAR": 0.03612115421053,
        "SamplesPerPixel": 1,
        "ScanOptions": "FS",
        "ScanningSequence": "EP",
        "SequenceName": "epfid2d1_104",
        "SequenceVariant": [
          "SK",
          "SS"
        ],
        "SeriesDescription": "func_task-life5",
        "SeriesNumber": 15,
        "SeriesTime": "195053.266000",
        "SliceLocation": -55.982567641064,
        "SliceThickness": 2.0,
        "SmallestImagePixelValue": 0,
        "SoftwareVersions": "syngo MR E11",
        "SpacingBetweenSlices": 1.9999999661787,
        "SpecificCharacterSet": "ISO_IR 100",
        "StudyID": "1",
        "StudyTime": "190311.715000",
        "TransmitCoilName": "Body",
        "VariableFlipAngleFlag": "N",
        "WindowCenterWidthExplanation": "Algo1",
        "dBdt": 0.0
      },
      "slices": {}
    },
    "modality": "bold",
    "run_id": 2,
    "session_id": "008",
    "subject_id": "05",
    "task_id": "life05",
    "time": {
      "samples": {
        "AcquisitionNumber": [
          1,
          2,
          3,
          4,
          5,
          6,
          7,
          8,
          9,
          10,
          11,
          12,
          13,
          14,
          15,
          16,
          17,
          18,
          19,
          20,
          21,
          22,
          23,
          24,
          25,
          26,
          27,
          28,
          29,
          30,
          31,
          32,
          33,
          34,
          35,
          36,
          37,
          38,
          39,
          40,
          41,
          42,
          43,
          44,
          45,
          46,
          47,
          48,
          49,
          50,
          51,
          52,
          53,
          54,
          55,
          56,
          57,
          58,
          59,
          60,
          61,
          62,
          63,
          64,
          65,
          66,
          67,
          68,
          69,
          70,
          71,
          72,
          73,
          74,
          75,
          76,
          77,
          78,
          79,
          80,
          81,
          82,
          83,
          84,
          85,
          86,
          87,
          88,
          89,
          90,
          91,
          92,
          93,
          94,
          95,
          96,
          97,
          98,
          99,
          100,
          101,
          102,
          103,
          104,
          105,
          106,
          107,
          108,
          109,
          110,
          111,
          112,
          113,
          114,
          115,
          116,
          117,
          118,
          119,
          120,
          121,
          122,
          123,
          124,
          125,
          126,
          127,
          128,
          129,
          130,
          131,
          132,
          133,
          134,
          135,
          136,
          137,
          138,
          139,
          140,
          141,
          142,
          143,
          144,
          145,
          146,
          147,
          148,
          149,
          150,
          151,
          152,
          153,
          154,
          155,
          156,
          157,
          158,
          159,
          160,
          161,
          162,
          163,
          164,
          165,
          166,
          167,
          168,
          169,
          170,
          171,
          172,
          173,
          174,
          175,
          176,
          177,
          178,
          179,
          180,
          181,
          182,
          183,
          184,
          185,
          186,
          187,
          188,
          189,
          190,
          191,
          192,
          193,
          194,
          195,
          196,
          197,
          198,
          199,
          200,
          201,
          202,
          203,
          204,
          205,
          206,
          207,
          208,
          209,
          210,
          211,
          212,
          213,
          214,
          215,
          216,
          217,
          218,
          219,
          220,
          221,
          222,
          223,
          224,
          225,
          226,
          227,
          228,
          229,
          230,
          231,
          232,
          233,
          234,
          235,
          236,
          237,
          238,
          239,
          240,
          241,
          242,
          243,
          244,
          245,
          246,
          247,
          248,
          249,
          250,
          251,
          252,
          253,
          254,
          255,
          256,
          257,
          258,
          259,
          260,
          261,
          262,
          263,
          264,
          265,
          266,
          267,
          268,
          269,
          270,
          271,
          272,
          273,
          274,
          275,
          276,
          277,
          278,
          279,
          280,
          281,
          282,
          283,
          284,
          285,
          286,
          287,
          288,
          289,
          290,
          291,
          292,
          293,
          294,
          295,
          296,
          297,
          298,
          299,
          300,
          301,
          302,
          303,
          304,
          305,
          306,
          307,
          308,
          309,
          310,
          311,
          312,
          313,
          314,
          315,
          316,
          317,
          318,
          319,
          320,
          321,
          322,
          323,
          324,
          325,
          326,
          327,
          328,
          329,
          330,
          331,
          332,
          333,
          334,
          335,
          336,
          337,
          338,
          339,
          340,
          341,
          342,
          343,
          344,
          345,
          346,
          347,
          348,
          349,
          350,
          351,
          352,
          353,
          354,
          355,
          356,
          357,
          358,
          359,
          360,
          361,
          362,
          363,
          364,
          365,
          366,
          367,
          368,
          369,
          370,
          371,
          372,
          373,
          374,
          375,
          376,
          377,
          378,
          379,
          380,
          381,
          382,
          383,
          384,
          385,
          386,
          387,
          388,
          389,
          390
        ],
        "AcquisitionTime": [
          "194951.835000",
          "194953.325000",
          "194954.815000",
          "194956.305000",
          "194957.795000",
          "194959.285000",
          "195000.775000",
          "195002.265000",
          "195003.755000",
          "195005.245000",
          "195006.735000",
          "195008.225000",
          "195009.715000",
          "195011.205000",
          "195012.695000",
          "195014.185000",
          "195015.675000",
          "195017.165000",
          "195018.655000",
          "195020.145000",
          "195021.635000",
          "195023.125000",
          "195024.615000",
          "195026.105000",
          "195027.595000",
          "195029.085000",
          "195030.575000",
          "195032.065000",
          "195033.555000",
          "195035.045000",
          "195036.535000",
          "195038.025000",
          "195039.515000",
          "195041.005000",
          "195042.495000",
          "195043.985000",
          "195045.475000",
          "195046.965000",
          "195048.455000",
          "195049.945000",
          "195051.435000",
          "195052.925000",
          "195054.415000",
          "195055.905000",
          "195057.395000",
          "195058.885000",
          "195100.375000",
          "195101.865000",
          "195103.355000",
          "195104.845000",
          "195106.335000",
          "195107.825000",
          "195109.315000",
          "195110.805000",
          "195112.295000",
          "195113.785000",
          "195115.275000",
          "195116.765000",
          "195118.255000",
          "195119.745000",
          "195121.235000",
          "195122.725000",
          "195124.215000",
          "195125.705000",
          "195127.195000",
          "195128.685000",
          "195130.175000",
          "195131.665000",
          "195133.155000",
          "195134.645000",
          "195136.135000",
          "195137.625000",
          "195139.115000",
          "195140.605000",
          "195142.095000",
          "195143.585000",
          "195145.075000",
          "195146.565000",
          "195148.055000",
          "195149.545000",
          "195151.035000",
          "195152.525000",
          "195154.015000",
          "195155.505000",
          "195156.995000",
          "195158.485000",
          "195159.975000",
          "195201.465000",
          "195202.955000",
          "195204.445000",
          "195205.935000",
          "195207.425000",
          "195208.915000",
          "195210.405000",
          "195211.895000",
          "195213.385000",
          "195214.875000",
          "195216.365000",
          "195217.855000",
          "195219.345000",
          "195220.835000",
          "195222.325000",
          "195223.815000",
          "195225.305000",
          "195226.795000",
          "195228.285000",
          "195229.775000",
          "195231.265000",
          "195232.755000",
          "195234.245000",
          "195235.735000",
          "195237.225000",
          "195238.715000",
          "195240.205000",
          "195241.695000",
          "195243.185000",
          "195244.675000",
          "195246.165000",
          "195247.655000",
          "195249.145000",
          "195250.635000",
          "195252.125000",
          "195253.615000",
          "195255.105000",
          "195256.595000",
          "195258.085000",
          "195259.575000",
          "195301.065000",
          "195302.555000",
          "195304.045000",
          "195305.535000",
          "195307.025000",
          "195308.515000",
          "195310.005000",
          "195311.495000",
          "195312.985000",
          "195314.475000",
          "195315.965000",
          "195317.455000",
          "195318.945000",
          "195320.435000",
          "195321.925000",
          "195323.415000",
          "195324.905000",
          "195326.395000",
          "195327.885000",
          "195329.375000",
          "195330.865000",
          "195332.355000",
          "195333.845000",
          "195335.335000",
          "195336.825000",
          "195338.315000",
          "195339.805000",
          "195341.295000",
          "195342.785000",
          "195344.275000",
          "195345.765000",
          "195347.255000",
          "195348.745000",
          "195350.235000",
          "195351.725000",
          "195353.215000",
          "195354.705000",
          "195356.195000",
          "195357.685000",
          "195359.175000",
          "195400.665000",
          "195402.155000",
          "195403.645000",
          "195405.135000",
          "195406.625000",
          "195408.115000",
          "195409.605000",
          "195411.095000",
          "195412.585000",
          "195414.075000",
          "195415.565000",
          "195417.055000",
          "195418.545000",
          "195420.035000",
          "195421.525000",
          "195423.015000",
          "195424.505000",
          "195425.995000",
          "195427.485000",
          "195428.975000",
          "195430.465000",
          "195431.955000",
          "195433.445000",
          "195434.935000",
          "195436.425000",
          "195437.915000",
          "195439.405000",
          "195440.895000",
          "195442.385000",
          "195443.875000",
          "195445.365000",
          "195446.855000",
          "195448.345000",
          "195449.835000",
          "195451.325000",
          "195452.815000",
          "195454.305000",
          "195455.795000",
          "195457.285000",
          "195458.775000",
          "195500.265000",
          "195501.755000",
          "195503.245000",
          "195504.735000",
          "195506.225000",
          "195507.715000",
          "195509.205000",
          "195510.695000",
          "195512.185000",
          "195513.675000",
          "195515.165000",
          "195516.655000",
          "195518.145000",
          "195519.635000",
          "195521.125000",
          "195522.615000",
          "195524.105000",
          "195525.595000",
          "195527.085000",
          "195528.575000",
          "195530.065000",
          "195531.555000",
          "195533.045000",
          "195534.535000",
          "195536.025000",
          "195537.515000",
          "195539.005000",
          "195540.495000",
          "195541.985000",
          "195543.475000",
          "195544.965000",
          "195546.455000",
          "195547.945000",
          "195549.435000",
          "195550.925000",
          "195552.415000",
          "195553.905000",
          "195555.395000",
          "195556.885000",
          "195558.375000",
          "195559.865000",
          "195601.355000",
          "195602.845000",
          "195604.335000",
          "195605.825000",
          "195607.315000",
          "195608.805000",
          "195610.295000",
          "195611.785000",
          "195613.275000",
          "195614.765000",
          "195616.255000",
          "195617.745000",
          "195619.235000",
          "195620.725000",
          "195622.215000",
          "195623.705000",
          "195625.195000",
          "195626.685000",
          "195628.175000",
          "195629.665000",
          "195631.155000",
          "195632.645000",
          "195634.135000",
          "195635.625000",
          "195637.115000",
          "195638.605000",
          "195640.095000",
          "195641.585000",
          "195643.075000",
          "195644.565000",
          "195646.055000",
          "195647.545000",
          "195649.035000",
          "195650.525000",
          "195652.015000",
          "195653.505000",
          "195654.995000",
          "195656.485000",
          "195657.975000",
          "195659.465000",
          "195700.955000",
          "195702.445000",
          "195703.935000",
          "195705.425000",
          "195706.915000",
          "195708.405000",
          "195709.895000",
          "195711.385000",
          "195712.875000",
          "195714.365000",
          "195715.855000",
          "195717.345000",
          "195718.835000",
          "195720.325000",
          "195721.815000",
          "195723.305000",
          "195724.795000",
          "195726.285000",
          "195727.775000",
          "195729.265000",
          "195730.755000",
          "195732.245000",
          "195733.735000",
          "195735.225000",
          "195736.715000",
          "195738.205000",
          "195739.695000",
          "195741.185000",
          "195742.675000",
          "195744.165000",
          "195745.655000",
          "195747.145000",
          "195748.635000",
          "195750.125000",
          "195751.615000",
          "195753.105000",
          "195754.595000",
          "195756.085000",
          "195757.575000",
          "195759.065000",
          "195800.555000",
          "195802.045000",
          "195803.535000",
          "195805.025000",
          "195806.515000",
          "195808.005000",
          "195809.495000",
          "195810.985000",
          "195812.475000",
          "195813.965000",
          "195815.455000",
          "195816.945000",
          "195818.435000",
          "195819.925000",
          "195821.415000",
          "195822.905000",
          "195824.395000",
          "195825.885000",
          "195827.375000",
          "195828.865000",
          "195830.355000",
          "195831.845000",
          "195833.335000",
          "195834.825000",
          "195836.315000",
          "195837.805000",
          "195839.295000",
          "195840.785000",
          "195842.275000",
          "195843.765000",
          "195845.255000",
          "195846.745000",
          "195848.235000",
          "195849.725000",
          "195851.215000",
          "195852.705000",
          "195854.195000",
          "195855.685000",
          "195857.175000",
          "195858.665000",
          "195900.155000",
          "195901.645000",
          "195903.135000",
          "195904.625000",
          "195906.115000",
          "195907.605000",
          "195909.095000",
          "195910.585000",
          "195912.075000",
          "195913.565000",
          "195915.055000",
          "195916.545000",
          "195918.035000",
          "195919.525000",
          "195921.015000",
          "195922.505000",
          "195923.995000",
          "195925.485000",
          "195926.975000",
          "195928.465000",
          "195929.955000",
          "195931.445000"
        ],
        "ContentTime": [
          "195053.268000",
          "195053.272000",
          "195053.289000",
          "195053.292000",
          "195053.295000",
          "195053.298000",
          "195053.300000",
          "195113.239000",
          "195113.242000",
          "195113.245000",
          "195113.247000",
          "195113.250000",
          "195113.253000",
          "195113.256000",
          "195113.259000",
          "195113.269000",
          "195113.272000",
          "195113.275000",
          "195113.277000",
          "195113.280000",
          "195113.283000",
          "195113.286000",
          "195113.289000",
          "195113.291000",
          "195113.294000",
          "195113.304000",
          "195113.307000",
          "195133.239000",
          "195133.242000",
          "195133.245000",
          "195133.248000",
          "195133.250000",
          "195133.262000",
          "195133.264000",
          "195133.267000",
          "195133.270000",
          "195133.273000",
          "195133.276000",
          "195133.279000",
          "195133.281000",
          "195133.284000",
          "195133.287000",
          "195133.290000",
          "195133.293000",
          "195133.295000",
          "195133.298000",
          "195133.301000",
          "195133.304000",
          "195153.238000",
          "195153.241000",
          "195153.243000",
          "195153.246000",
          "195153.249000",
          "195153.252000",
          "195153.255000",
          "195153.257000",
          "195153.260000",
          "195153.263000",
          "195153.266000",
          "195153.269000",
          "195153.272000",
          "195153.274000",
          "195153.277000",
          "195153.280000",
          "195153.283000",
          "195153.286000",
          "195153.289000",
          "195153.291000",
          "195213.238000",
          "195213.241000",
          "195213.244000",
          "195213.246000",
          "195213.249000",
          "195213.252000",
          "195213.255000",
          "195213.258000",
          "195213.268000",
          "195213.270000",
          "195213.273000",
          "195213.276000",
          "195213.279000",
          "195213.282000",
          "195213.284000",
          "195213.287000",
          "195213.290000",
          "195213.293000",
          "195213.296000",
          "195213.299000",
          "195233.238000",
          "195233.241000",
          "195233.255000",
          "195233.260000",
          "195233.263000",
          "195233.266000",
          "195233.269000",
          "195233.271000",
          "195233.274000",
          "195233.277000",
          "195233.280000",
          "195233.283000",
          "195233.286000",
          "195233.288000",
          "195233.291000",
          "195233.294000",
          "195233.297000",
          "195233.300000",
          "195233.303000",
          "195233.305000",
          "195313.238000",
          "195313.241000",
          "195313.244000",
          "195313.247000",
          "195313.249000",
          "195313.252000",
          "195313.255000",
          "195313.258000",
          "195313.261000",
          "195313.264000",
          "195313.267000",
          "195313.270000",
          "195313.272000",
          "195313.275000",
          "195313.278000",
          "195313.281000",
          "195313.284000",
          "195313.287000",
          "195313.290000",
          "195313.293000",
          "195313.295000",
          "195313.298000",
          "195313.301000",
          "195313.304000",
          "195313.307000",
          "195313.310000",
          "195313.313000",
          "195353.239000",
          "195353.242000",
          "195353.245000",
          "195353.248000",
          "195353.251000",
          "195353.254000",
          "195353.257000",
          "195353.260000",
          "195353.263000",
          "195353.265000",
          "195353.268000",
          "195353.271000",
          "195353.274000",
          "195353.277000",
          "195353.280000",
          "195353.283000",
          "195353.286000",
          "195353.288000",
          "195353.291000",
          "195353.294000",
          "195353.297000",
          "195353.300000",
          "195353.303000",
          "195353.306000",
          "195353.309000",
          "195353.312000",
          "195433.238000",
          "195433.241000",
          "195433.244000",
          "195433.247000",
          "195433.250000",
          "195433.253000",
          "195433.255000",
          "195433.258000",
          "195433.261000",
          "195433.264000",
          "195433.267000",
          "195433.270000",
          "195433.273000",
          "195433.276000",
          "195433.279000",
          "195433.282000",
          "195433.284000",
          "195433.287000",
          "195433.290000",
          "195433.293000",
          "195433.296000",
          "195433.299000",
          "195433.302000",
          "195433.305000",
          "195433.308000",
          "195433.311000",
          "195433.313000",
          "195513.238000",
          "195513.241000",
          "195513.244000",
          "195513.247000",
          "195513.250000",
          "195513.252000",
          "195513.255000",
          "195513.258000",
          "195513.261000",
          "195513.264000",
          "195513.267000",
          "195513.270000",
          "195513.273000",
          "195513.276000",
          "195513.279000",
          "195513.281000",
          "195513.284000",
          "195513.287000",
          "195513.290000",
          "195513.293000",
          "195513.296000",
          "195513.299000",
          "195513.302000",
          "195513.304000",
          "195513.307000",
          "195513.310000",
          "195513.313000",
          "195553.239000",
          "195553.303000",
          "195553.306000",
          "195553.308000",
          "195553.311000",
          "195553.314000",
          "195553.317000",
          "195553.320000",
          "195553.323000",
          "195553.326000",
          "195553.329000",
          "195553.332000",
          "195553.335000",
          "195553.338000",
          "195553.341000",
          "195553.344000",
          "195553.347000",
          "195553.350000",
          "195553.352000",
          "195553.355000",
          "195553.358000",
          "195553.361000",
          "195553.364000",
          "195553.367000",
          "195553.370000",
          "195553.373000",
          "195553.376000",
          "195633.238000",
          "195633.241000",
          "195633.244000",
          "195633.246000",
          "195633.249000",
          "195633.252000",
