{
  "aor": 0.001975721271393643,
  "aqi": 0.008608095525672372,
  "bids_meta": {
    "AcquisitionMatrixPE": 104,
    "AcquisitionNumber": 1,
    "AcquisitionTime": "19:07:19.217500",
    "BandwidthPerPixelPhaseEncode": 17.17,
    "BaseResolution": 104,
    "BodyPartExamined": "BRAIN",
    "CogAtlasID": "trm_4c898da401420",
    "ConsistencyInfo": "N4_VE11C_LATEST_20160120",
    "ConversionSoftware": "dcm2niix",
    "ConversionSoftwareVersion": "v1.0.20171215 (OpenJPEG build) GCC7.3.0",
    "DerivedVendorReportedEchoSpacing": 0.000560011,
    "DeviceSerialNumber": "167006",
    "DwellTime": 2.1e-06,
    "EchoTime": 0.037,
    "EchoTrainLength": 104,
    "EffectiveEchoSpacing": 0.000560011,
    "FlipAngle": 52,
    "ImageComments": "Unaliased_MB4_PE3_LB",
    "ImageOrientationPatientDICOM": [
      0.998646,
      0.0302134,
      -0.0423355,
      -0.0422049,
      0.946434,
      -0.320129
    ],
    "ImageType": [
      "ORIGINAL",
      "PRIMARY",
      "M",
      "MB",
      "ND",
      "MOSAIC"
    ],
    "InPlanePhaseEncodingDirectionDICOM": "COL",
    "InstitutionAddress": "Chemin_Queen-Mary_4565_Montreal_District_CA_H3W_1W5",
    "InstitutionName": "IUGM",
    "InstitutionalDepartmentName": "Department",
    "MRAcquisitionType": "2D",
    "MagneticFieldStrength": 3,
    "Manufacturer": "Siemens",
    "ManufacturersModelName": "Prisma_fit",
    "Modality": "MR",
    "MultibandAccelerationFactor": 4,
    "PartialFourier": 1,
    "PatientPosition": "HFS",
    "PercentPhaseFOV": 100,
    "PhaseEncodingDirection": "j-",
    "PhaseEncodingSteps": 104,
    "PhaseResolution": 1,
    "PixelBandwidth": 2290,
    "ProcedureStepDescription": "video5_generic",
    "ProtocolName": "func_task-life1",
    "PulseSequenceDetails": "%CustomerSeq%_cmrr_mbep2d_bold",
    "ReceiveCoilActiveElements": "HC1-7;NC1,2",
    "ReceiveCoilName": "HeadNeck_64",
    "ReconMatrixPE": 104,
    "RepetitionTime": 1.49,
    "SAR": 0.03613,
    "ScanOptions": "FS",
    "ScanningSequence": "EP",
    "SequenceName": "epfid2d1_104",
    "SequenceVariant": "SK_SS",
    "SeriesDescription": "func_task-life1",
    "SeriesNumber": 7,
    "ShimSetting": [
      614,
      -7237,
      -8884,
      383,
      50,
      -366,
      24,
      29
    ],
    "SliceThickness": 2,
    "SliceTiming": [
      0,
      0.785,
      0.1,
      0.8825,
      0.1975,
      0.98,
      0.295,
      1.0775,
      0.3925,
      1.1775,
      0.49,
      1.275,
      0.59,
      1.3725,
      0.6875,
      0,
      0.785,
      0.1,
      0.8825,
      0.1975,
      0.98,
      0.295,
      1.0775,
      0.3925,
      1.1775,
      0.49,
      1.275,
      0.59,
      1.3725,
      0.6875,
      0,
      0.785,
      0.1,
      0.8825,
      0.1975,
      0.98,
      0.295,
      1.0775,
      0.3925,
      1.1775,
      0.49,
      1.275,
      0.59,
      1.3725,
      0.6875,
      0,
      0.785,
      0.1,
      0.8825,
      0.1975,
      0.98,
      0.295,
      1.0775,
      0.3925,
      1.1775,
      0.49,
      1.275,
      0.59,
      1.3725,
      0.6875
    ],
    "SoftwareVersions": "syngo_MR_E11",
    "SpacingBetweenSlices": 2,
    "StationName": "MRC35049",
    "TaskName": "life01",
    "TotalReadoutTime": 0.0576811,
    "TxRefAmp": 240.696,
    "dataset": "<unset>",
    "dcmmeta_affine": [
      [
        -1.9972929954528809,
        -0.08440977334976196,
        -0.06079108640551567,
        108.05724334716797
      ],
      [
        -0.06042678281664848,
        1.892867088317871,
        -0.6429641246795654,
        -60.038455963134766
      ],
      [
        -0.08467095345258713,
        0.6402571797370911,
        1.8928554058074951,
        -76.07490539550781
      ],
      [
        0.0,
        0.0,
        0.0,
        1.0
      ]
    ],
    "dcmmeta_reorient_transform": [
      [
        0.0,
        -1.0,
        0.0,
        103.0
      ],
      [
        1.0,
        0.0,
        0.0,
        0.0
      ],
      [
        0.0,
        0.0,
        1.0,
        0.0
      ],
      [
        0.0,
        0.0,
        0.0,
        1.0
      ]
    ],
    "dcmmeta_shape": [
      104,
      104,
      60,
      410
    ],
    "dcmmeta_slice_dim": 2,
    "dcmmeta_version": 0.6,
    "global": {
      "const": {
        "AcquisitionMatrix": [
          104,
          0,
          0,
          104
        ],
        "AngioFlag": "N",
        "BitsAllocated": 16,
        "BitsStored": 16,
        "BodyPartExamined": "BRAIN",
        "Columns": 832,
        "EchoNumbers": 1,
        "EchoTime": 37.0,
        "EchoTrainLength": 104,
        "FlipAngle": 52.0,
        "HighBit": 15,
        "ImageOrientationPatient": [
          0.99864651328554,
          0.03021339121514,
          -0.0423354755958,
          -0.0422048865243,
          0.94643353298071,
          -0.3201285916677
        ],
        "ImagePositionPatient": [
          -795.65253979179,
          -845.92581267778,
          253.74542744953
        ],
        "ImageType": [
          "ORIGINAL",
          "PRIMARY",
          "M",
          "MB",
          "ND",
          "MOSAIC"
        ],
        "ImagedNucleus": "1H",
        "ImagingFrequency": 123.259423,
        "InPlanePhaseEncodingDirection": "COL",
        "MRAcquisitionType": "2D",
        "MagneticFieldStrength": 3.0,
        "Manufacturer": "SIEMENS",
        "ManufacturerModelName": "Prisma_fit",
        "Modality": "MR",
        "NumberOfAverages": 1.0,
        "NumberOfPhaseEncodingSteps": 104,
        "PercentPhaseFieldOfView": 100.0,
        "PercentSampling": 100.0,
        "PerformedProcedureStepStartTime": "190311.788000",
        "PhotometricInterpretation": "MONOCHROME2",
        "PixelBandwidth": 2290.0,
        "PixelRepresentation": 0,
        "PixelSpacing": [
          2.0,
          2.0
        ],
        "ProtocolName": "func_task-life1",
        "RepetitionTime": 1490.0,
        "Rows": 832,
        "SAR": 0.03613004363906,
        "SamplesPerPixel": 1,
        "ScanOptions": "FS",
        "ScanningSequence": "EP",
        "SequenceName": "epfid2d1_104",
        "SequenceVariant": [
          "SK",
          "SS"
        ],
        "SeriesDescription": "func_task-life1",
        "SeriesNumber": 7,
        "SeriesTime": "190841.903000",
        "SliceLocation": -55.982567641064,
        "SliceThickness": 2.0,
        "SmallestImagePixelValue": 0,
        "SoftwareVersions": "syngo MR E11",
        "SpacingBetweenSlices": 1.9999999661787,
        "SpecificCharacterSet": "ISO_IR 100",
        "StudyID": "1",
        "StudyTime": "190311.715000",
        "TransmitCoilName": "Body",
        "VariableFlipAngleFlag": "N",
        "WindowCenterWidthExplanation": "Algo1",
        "dBdt": 0.0
      },
      "slices": {}
    },
    "modality": "bold",
    "run_id": 2,
    "session_id": "008",
    "subject_id": "05",
    "task_id": "life01",
    "time": {
      "samples": {
        "AcquisitionNumber": [
          1,
          2,
          3,
          4,
          5,
          6,
          7,
          8,
          9,
          10,
          11,
          12,
          13,
          14,
          15,
          16,
          17,
          18,
          19,
          20,
          21,
          22,
          23,
          24,
          25,
          26,
          27,
          28,
          29,
          30,
          31,
          32,
          33,
          34,
          35,
          36,
          37,
          38,
          39,
          40,
          41,
          42,
          43,
          44,
          45,
          46,
          47,
          48,
          49,
          50,
          51,
          52,
          53,
          54,
          55,
          56,
          57,
          58,
          59,
          60,
          61,
          62,
          63,
          64,
          65,
          66,
          67,
          68,
          69,
          70,
          71,
          72,
          73,
          74,
          75,
          76,
          77,
          78,
          79,
          80,
          81,
          82,
          83,
          84,
          85,
          86,
          87,
          88,
          89,
          90,
          91,
          92,
          93,
          94,
          95,
          96,
          97,
          98,
          99,
          100,
          101,
          102,
          103,
          104,
          105,
          106,
          107,
          108,
          109,
          110,
          111,
          112,
          113,
          114,
          115,
          116,
          117,
          118,
          119,
          120,
          121,
          122,
          123,
          124,
          125,
          126,
          127,
          128,
          129,
          130,
          131,
          132,
          133,
          134,
          135,
          136,
          137,
          138,
          139,
          140,
          141,
          142,
          143,
          144,
          145,
          146,
          147,
          148,
          149,
          150,
          151,
          152,
          153,
          154,
          155,
          156,
          157,
          158,
          159,
          160,
          161,
          162,
          163,
          164,
          165,
          166,
          167,
          168,
          169,
          170,
          171,
          172,
          173,
          174,
          175,
          176,
          177,
          178,
          179,
          180,
          181,
          182,
          183,
          184,
          185,
          186,
          187,
          188,
          189,
          190,
          191,
          192,
          193,
          194,
          195,
          196,
          197,
          198,
          199,
          200,
          201,
          202,
          203,
          204,
          205,
          206,
          207,
          208,
          209,
          210,
          211,
          212,
          213,
          214,
          215,
          216,
          217,
          218,
          219,
          220,
          221,
          222,
          223,
          224,
          225,
          226,
          227,
          228,
          229,
          230,
          231,
          232,
          233,
          234,
          235,
          236,
          237,
          238,
          239,
          240,
          241,
          242,
          243,
          244,
          245,
          246,
          247,
          248,
          249,
          250,
          251,
          252,
          253,
          254,
          255,
          256,
          257,
          258,
          259,
          260,
          261,
          262,
          263,
          264,
          265,
          266,
          267,
          268,
          269,
          270,
          271,
          272,
          273,
          274,
          275,
          276,
          277,
          278,
          279,
          280,
          281,
          282,
          283,
          284,
          285,
          286,
          287,
          288,
          289,
          290,
          291,
          292,
          293,
          294,
          295,
          296,
          297,
          298,
          299,
          300,
          301,
          302,
          303,
          304,
          305,
          306,
          307,
          308,
          309,
          310,
          311,
          312,
          313,
          314,
          315,
          316,
          317,
          318,
          319,
          320,
          321,
          322,
          323,
          324,
          325,
          326,
          327,
          328,
          329,
          330,
          331,
          332,
          333,
          334,
          335,
          336,
          337,
          338,
          339,
          340,
          341,
          342,
          343,
          344,
          345,
          346,
          347,
          348,
          349,
          350,
          351,
          352,
          353,
          354,
          355,
          356,
          357,
          358,
          359,
          360,
          361,
          362,
          363,
          364,
          365,
          366,
          367,
          368,
          369,
          370,
          371,
          372,
          373,
          374,
          375,
          376,
          377,
          378,
          379,
          380,
          381,
          382,
          383,
          384,
          385,
          386,
          387,
          388,
          389,
          390,
          391,
          392,
          393,
          394,
          395,
          396,
          397,
          398,
          399,
          400,
          401,
          402,
          403,
          404,
          405,
          406,
          407,
          408,
          409,
          410
        ],
        "AcquisitionTime": [
          "190719.217500",
          "190720.707500",
          "190722.197500",
          "190723.687500",
          "190725.177500",
          "190726.667500",
          "190728.157500",
          "190729.647500",
          "190731.137500",
          "190732.627500",
          "190734.117500",
          "190735.607500",
          "190737.097500",
          "190738.587500",
          "190740.077500",
          "190741.567500",
          "190743.057500",
          "190744.547500",
          "190746.037500",
          "190747.527500",
          "190749.017500",
          "190750.507500",
          "190751.997500",
          "190753.487500",
          "190754.977500",
          "190756.467500",
          "190757.957500",
          "190759.447500",
          "190800.937500",
          "190802.427500",
          "190803.917500",
          "190805.407500",
          "190806.897500",
          "190808.387500",
          "190809.877500",
          "190811.367500",
          "190812.857500",
          "190814.347500",
          "190815.837500",
          "190817.327500",
          "190818.817500",
          "190820.307500",
          "190821.797500",
          "190823.287500",
          "190824.777500",
          "190826.267500",
          "190827.757500",
          "190829.247500",
          "190830.737500",
          "190832.227500",
          "190833.717500",
          "190835.207500",
          "190836.697500",
          "190838.187500",
          "190839.677500",
          "190841.167500",
          "190842.657500",
          "190844.147500",
          "190845.637500",
          "190847.127500",
          "190848.617500",
          "190850.107500",
          "190851.597500",
          "190853.087500",
          "190854.577500",
          "190856.067500",
          "190857.557500",
          "190859.047500",
          "190900.537500",
          "190902.027500",
          "190903.517500",
          "190905.007500",
          "190906.497500",
          "190907.987500",
          "190909.477500",
          "190910.967500",
          "190912.457500",
          "190913.947500",
          "190915.437500",
          "190916.927500",
          "190918.417500",
          "190919.907500",
          "190921.397500",
          "190922.887500",
          "190924.377500",
          "190925.867500",
          "190927.357500",
          "190928.847500",
          "190930.337500",
          "190931.827500",
          "190933.317500",
          "190934.807500",
          "190936.297500",
          "190937.787500",
          "190939.277500",
          "190940.767500",
          "190942.257500",
          "190943.747500",
          "190945.237500",
          "190946.727500",
          "190948.217500",
          "190949.707500",
          "190951.197500",
          "190952.687500",
          "190954.177500",
          "190955.667500",
          "190957.157500",
          "190958.647500",
          "191000.137500",
          "191001.627500",
          "191003.117500",
          "191004.607500",
          "191006.097500",
          "191007.587500",
          "191009.077500",
          "191010.567500",
          "191012.057500",
          "191013.547500",
          "191015.037500",
          "191016.527500",
          "191018.017500",
          "191019.507500",
          "191020.997500",
          "191022.487500",
          "191023.977500",
          "191025.467500",
          "191026.957500",
          "191028.447500",
          "191029.937500",
          "191031.427500",
          "191032.917500",
          "191034.407500",
          "191035.897500",
          "191037.387500",
          "191038.877500",
          "191040.367500",
          "191041.857500",
          "191043.347500",
          "191044.837500",
          "191046.327500",
          "191047.817500",
          "191049.307500",
          "191050.797500",
          "191052.287500",
          "191053.777500",
          "191055.267500",
          "191056.757500",
          "191058.247500",
          "191059.737500",
          "191101.227500",
          "191102.717500",
          "191104.207500",
          "191105.697500",
          "191107.187500",
          "191108.677500",
          "191110.167500",
          "191111.657500",
          "191113.147500",
          "191114.637500",
          "191116.127500",
          "191117.617500",
          "191119.107500",
          "191120.597500",
          "191122.087500",
          "191123.577500",
          "191125.067500",
          "191126.557500",
          "191128.047500",
          "191129.537500",
          "191131.027500",
          "191132.517500",
          "191134.007500",
          "191135.497500",
          "191136.987500",
          "191138.477500",
          "191139.967500",
          "191141.457500",
          "191142.947500",
          "191144.437500",
          "191145.927500",
          "191147.417500",
          "191148.907500",
          "191150.397500",
          "191151.887500",
          "191153.377500",
          "191154.867500",
          "191156.357500",
          "191157.847500",
          "191159.337500",
          "191200.827500",
          "191202.317500",
          "191203.807500",
          "191205.297500",
          "191206.787500",
          "191208.277500",
          "191209.767500",
          "191211.257500",
          "191212.747500",
          "191214.237500",
          "191215.727500",
          "191217.217500",
          "191218.707500",
          "191220.197500",
          "191221.687500",
          "191223.177500",
          "191224.667500",
          "191226.157500",
          "191227.647500",
          "191229.137500",
          "191230.627500",
          "191232.117500",
          "191233.607500",
          "191235.097500",
          "191236.587500",
          "191238.077500",
          "191239.567500",
          "191241.057500",
          "191242.547500",
          "191244.037500",
          "191245.527500",
          "191247.017500",
          "191248.507500",
          "191249.997500",
          "191251.487500",
          "191252.977500",
          "191254.467500",
          "191255.957500",
          "191257.447500",
          "191258.937500",
          "191300.427500",
          "191301.917500",
          "191303.407500",
          "191304.897500",
          "191306.387500",
          "191307.877500",
          "191309.367500",
          "191310.857500",
          "191312.347500",
          "191313.837500",
          "191315.327500",
          "191316.817500",
          "191318.307500",
          "191319.797500",
          "191321.287500",
          "191322.777500",
          "191324.267500",
          "191325.757500",
          "191327.247500",
          "191328.737500",
          "191330.227500",
          "191331.717500",
          "191333.207500",
          "191334.697500",
          "191336.187500",
          "191337.677500",
          "191339.167500",
          "191340.657500",
          "191342.147500",
          "191343.637500",
          "191345.127500",
          "191346.617500",
          "191348.107500",
          "191349.597500",
          "191351.087500",
          "191352.577500",
          "191354.067500",
          "191355.557500",
          "191357.047500",
          "191358.537500",
          "191400.027500",
          "191401.517500",
          "191403.007500",
          "191404.497500",
          "191405.987500",
          "191407.477500",
          "191408.967500",
          "191410.457500",
          "191411.947500",
          "191413.437500",
          "191414.927500",
          "191416.417500",
          "191417.907500",
          "191419.397500",
          "191420.887500",
          "191422.377500",
          "191423.867500",
          "191425.357500",
          "191426.847500",
          "191428.337500",
          "191429.827500",
          "191431.317500",
          "191432.807500",
          "191434.297500",
          "191435.787500",
          "191437.277500",
          "191438.767500",
          "191440.257500",
          "191441.747500",
          "191443.237500",
          "191444.727500",
          "191446.217500",
          "191447.707500",
          "191449.197500",
          "191450.687500",
          "191452.177500",
          "191453.667500",
          "191455.157500",
          "191456.647500",
          "191458.137500",
          "191459.627500",
          "191501.117500",
          "191502.607500",
          "191504.097500",
          "191505.587500",
          "191507.077500",
          "191508.567500",
          "191510.057500",
          "191511.547500",
          "191513.037500",
          "191514.527500",
          "191516.017500",
          "191517.507500",
          "191518.997500",
          "191520.487500",
          "191521.977500",
          "191523.467500",
          "191524.957500",
          "191526.447500",
          "191527.937500",
          "191529.427500",
          "191530.917500",
          "191532.407500",
          "191533.897500",
          "191535.387500",
          "191536.877500",
          "191538.367500",
          "191539.857500",
          "191541.347500",
          "191542.837500",
          "191544.327500",
          "191545.817500",
          "191547.307500",
          "191548.797500",
          "191550.287500",
          "191551.777500",
          "191553.267500",
          "191554.757500",
          "191556.247500",
          "191557.737500",
          "191559.227500",
          "191600.717500",
          "191602.207500",
          "191603.697500",
          "191605.187500",
          "191606.677500",
          "191608.167500",
          "191609.657500",
          "191611.147500",
          "191612.637500",
          "191614.127500",
          "191615.617500",
          "191617.107500",
          "191618.597500",
          "191620.087500",
          "191621.577500",
          "191623.067500",
          "191624.557500",
          "191626.047500",
          "191627.537500",
          "191629.027500",
          "191630.517500",
          "191632.007500",
          "191633.497500",
          "191634.987500",
          "191636.477500",
          "191637.967500",
          "191639.457500",
          "191640.947500",
          "191642.437500",
          "191643.927500",
          "191645.417500",
          "191646.907500",
          "191648.397500",
          "191649.887500",
          "191651.377500",
          "191652.867500",
          "191654.357500",
          "191655.847500",
          "191657.337500",
          "191658.827500",
          "191700.317500",
          "191701.807500",
          "191703.297500",
          "191704.787500",
          "191706.277500",
          "191707.767500",
          "191709.257500",
          "191710.747500",
          "191712.237500",
          "191713.727500",
          "191715.217500",
          "191716.707500",
          "191718.197500",
          "191719.687500",
          "191721.177500",
          "191722.667500",
          "191724.157500",
          "191725.647500",
          "191727.137500",
          "191728.627500"
        ],
        "ContentTime": [
          "190841.905000",
          "190841.909000",
          "190841.912000",
          "190841.915000",
          "190841.928000",
          "190841.931000",
          "190841.934000",
          "190841.937000",
          "190841.940000",
          "190841.942000",
          "190841.945000",
          "190841.948000",
          "190841.951000",
          "190841.954000",
          "190841.957000",
          "190841.960000",
          "190841.962000",
          "190841.973000",
          "190841.975000",
          "190841.978000",
          "190841.981000",
          "190841.984000",
          "190841.987000",
          "190841.990000",
          "190841.993000",
          "190841.996000",
          "190842.000000",
          "190901.866000",
          "190901.869000",
          "190901.872000",
          "190901.875000",
          "190901.883000",
          "190901.885000",
          "190901.888000",
          "190901.891000",
          "190901.894000",
          "190901.897000",
          "190901.900000",
          "190901.904000",
          "190901.906000",
          "190901.909000",
          "190901.912000",
          "190901.915000",
          "190901.918000",
          "190901.921000",
          "190901.924000",
          "190901.927000",
          "190921.866000",
          "190921.869000",
          "190921.872000",
          "190921.875000",
          "190921.877000",
          "190921.880000",
          "190921.883000",
          "190921.886000",
          "190921.889000",
          "190921.892000",
          "190921.894000",
          "190921.897000",
          "190921.900000",
          "190921.903000",
          "190921.906000",
          "190921.909000",
          "190921.912000",
          "190921.915000",
          "190921.917000",
          "190921.920000",
          "190941.865000",
          "190941.868000",
          "190941.872000",
          "190941.875000",
          "190941.878000",
          "190941.881000",
          "190941.883000",
          "190941.886000",
          "190941.889000",
          "190941.892000",
          "190941.895000",
          "190941.898000",
          "190941.901000",
          "190941.904000",
          "190941.907000",
          "190941.909000",
          "190941.912000",
          "190941.915000",
          "190941.918000",
          "190941.921000",
          "191001.865000",
          "191001.868000",
          "191001.871000",
          "191001.873000",
          "191001.876000",
          "191001.886000",
          "191001.889000",
          "191001.892000",
          "191001.895000",
          "191001.898000",
          "191001.900000",
          "191001.903000",
          "191001.906000",
          "191001.909000",
          "191001.912000",
          "191001.915000",
          "191001.930000",
          "191001.933000",
          "191001.936000",
          "191001.938000",
          "191001.941000",
          "191041.865000",
          "191041.868000",
          "191041.871000",
          "191041.874000",
          "191041.876000",
          "191041.879000",
          "191041.882000",
          "191041.896000",
          "191041.899000",
          "191041.902000",
          "191041.908000",
          "191041.910000",
          "191041.913000",
          "191041.916000",
          "191041.919000",
          "191041.922000",
          "191041.925000",
          "191041.928000",
          "191041.931000",
          "191041.933000",
          "191041.936000",
          "191041.939000",
          "191041.942000",
          "191041.945000",
          "191041.948000",
          "191041.951000",
          "191041.954000",
          "191121.866000",
          "191121.869000",
          "191121.872000",
          "191121.875000",
          "191121.878000",
          "191121.881000",
          "191121.884000",
          "191121.887000",
          "191121.890000",
          "191121.893000",
          "191121.896000",
          "191121.899000",
          "191121.902000",
          "191121.905000",
          "191121.908000",
          "191121.910000",
          "191121.913000",
          "191121.916000",
          "191121.919000",
          "191121.922000",
          "191121.925000",
          "191121.928000",
          "191121.931000",
          "191121.934000",
          "191121.937000",
          "191121.940000",
          "191121.943000",
          "191201.865000",
          "191201.868000",
          "191201.871000",
          "191201.874000",
          "191201.877000",
          "191201.880000",
          "191201.882000",
          "191201.885000",
          "191201.888000",
          "191201.891000",
          "191201.894000",
          "191201.897000",
          "191201.900000",
          "191201.903000",
          "191201.905000",
          "191201.908000",
          "191201.911000",
          "191201.914000",
          "191201.917000",
          "191201.920000",
          "191201.923000",
          "191201.926000",
          "191201.929000",
          "191201.932000",
          "191201.935000",
          "191201.937000",
          "191201.940000",
          "191241.865000",
          "191241.868000",
          "191241.871000",
          "191241.875000",
          "191241.878000",
          "191241.882000",
          "191241.885000",
          "191241.888000",
          "191241.892000",
          "191241.895000",
          "191241.898000",
          "191241.901000",
          "191241.904000",
          "191241.908000",
          "191241.912000",
          "191241.915000",
          "191241.919000",
          "191241.923000",
          "191241.926000",
          "191241.929000",
          "191241.932000",
          "191241.935000",
          "191241.938000",
          "191241.942000",
          "191241.945000",
          "191241.948000",
          "191321.866000",
          "191321.869000",
