{
  "aor": 0.00041337408312958437,
  "aqi": 0.012172418288508556,
  "bids_meta": {
    "AcquisitionMatrixPE": 104,
    "AcquisitionNumber": 1,
    "AcquisitionTime": "19:28:33.527500",
    "BandwidthPerPixelPhaseEncode": 17.17,
    "BaseResolution": 104,
    "BodyPartExamined": "BRAIN",
    "CogAtlasID": "trm_4c898da401420",
    "ConsistencyInfo": "N4_VE11C_LATEST_20160120",
    "ConversionSoftware": "dcm2niix",
    "ConversionSoftwareVersion": "v1.0.20171215 (OpenJPEG build) GCC7.3.0",
    "DerivedVendorReportedEchoSpacing": 0.000560011,
    "DeviceSerialNumber": "167006",
    "DwellTime": 2.1e-06,
    "EchoTime": 0.037,
    "EchoTrainLength": 104,
    "EffectiveEchoSpacing": 0.000560011,
    "FlipAngle": 52,
    "ImageComments": "Unaliased_MB4_PE3_LB",
    "ImageOrientationPatientDICOM": [
      0.998646,
      0.0302134,
      -0.0423355,
      -0.0422049,
      0.946434,
      -0.320129
    ],
    "ImageType": [
      "ORIGINAL",
      "PRIMARY",
      "M",
      "MB",
      "ND",
      "MOSAIC"
    ],
    "InPlanePhaseEncodingDirectionDICOM": "COL",
    "InstitutionAddress": "Chemin_Queen-Mary_4565_Montreal_District_CA_H3W_1W5",
    "InstitutionName": "IUGM",
    "InstitutionalDepartmentName": "Department",
    "MRAcquisitionType": "2D",
    "MagneticFieldStrength": 3,
    "Manufacturer": "Siemens",
    "ManufacturersModelName": "Prisma_fit",
    "Modality": "MR",
    "MultibandAccelerationFactor": 4,
    "PartialFourier": 1,
    "PatientPosition": "HFS",
    "PercentPhaseFOV": 100,
    "PhaseEncodingDirection": "j-",
    "PhaseEncodingSteps": 104,
    "PhaseResolution": 1,
    "PixelBandwidth": 2290,
    "ProcedureStepDescription": "video5_generic",
    "ProtocolName": "func_task-life3",
    "PulseSequenceDetails": "%CustomerSeq%_cmrr_mbep2d_bold",
    "ReceiveCoilActiveElements": "HC1-7;NC1,2",
    "ReceiveCoilName": "HeadNeck_64",
    "ReconMatrixPE": 104,
    "RepetitionTime": 1.49,
    "SAR": 0.03613,
    "ScanOptions": "FS",
    "ScanningSequence": "EP",
    "SequenceName": "epfid2d1_104",
    "SequenceVariant": "SK_SS",
    "SeriesDescription": "func_task-life3",
    "SeriesNumber": 11,
    "ShimSetting": [
      614,
      -7237,
      -8884,
      383,
      50,
      -366,
      24,
      29
    ],
    "SliceThickness": 2,
    "SliceTiming": [
      0,
      0.785,
      0.1,
      0.8825,
      0.1975,
      0.98,
      0.295,
      1.08,
      0.3925,
      1.1775,
      0.49,
      1.275,
      0.59,
      1.3725,
      0.6875,
      0,
      0.785,
      0.1,
      0.8825,
      0.1975,
      0.98,
      0.295,
      1.08,
      0.3925,
      1.1775,
      0.49,
      1.275,
      0.59,
      1.3725,
      0.6875,
      0,
      0.785,
      0.1,
      0.8825,
      0.1975,
      0.98,
      0.295,
      1.08,
      0.3925,
      1.1775,
      0.49,
      1.275,
      0.59,
      1.3725,
      0.6875,
      0,
      0.785,
      0.1,
      0.8825,
      0.1975,
      0.98,
      0.295,
      1.08,
      0.3925,
      1.1775,
      0.49,
      1.275,
      0.59,
      1.3725,
      0.6875
    ],
    "SoftwareVersions": "syngo_MR_E11",
    "SpacingBetweenSlices": 2,
    "StationName": "MRC35049",
    "TaskName": "life03",
    "TotalReadoutTime": 0.0576811,
    "TxRefAmp": 240.696,
    "dataset": "<unset>",
    "dcmmeta_affine": [
      [
        -1.9972929954528809,
        -0.08440977334976196,
        -0.06079108640551567,
        108.05724334716797
      ],
      [
        -0.06042678281664848,
        1.892867088317871,
        -0.6429641246795654,
        -60.038455963134766
      ],
      [
        -0.08467095345258713,
        0.6402571797370911,
        1.8928554058074951,
        -76.07490539550781
      ],
      [
        0.0,
        0.0,
        0.0,
        1.0
      ]
    ],
    "dcmmeta_reorient_transform": [
      [
        0.0,
        -1.0,
        0.0,
        103.0
      ],
      [
        1.0,
        0.0,
        0.0,
        0.0
      ],
      [
        0.0,
        0.0,
        1.0,
        0.0
      ],
      [
        0.0,
        0.0,
        0.0,
        1.0
      ]
    ],
    "dcmmeta_shape": [
      104,
      104,
      60,
      410
    ],
    "dcmmeta_slice_dim": 2,
    "dcmmeta_version": 0.6,
    "global": {
      "const": {
        "AcquisitionMatrix": [
          104,
          0,
          0,
          104
        ],
        "AngioFlag": "N",
        "BitsAllocated": 16,
        "BitsStored": 16,
        "BodyPartExamined": "BRAIN",
        "Columns": 832,
        "EchoNumbers": 1,
        "EchoTime": 37.0,
        "EchoTrainLength": 104,
        "FlipAngle": 52.0,
        "HighBit": 15,
        "ImageOrientationPatient": [
          0.99864651328554,
          0.03021339121514,
          -0.0423354755958,
          -0.0422048865243,
          0.94643353298071,
          -0.3201285916677
        ],
        "ImagePositionPatient": [
          -795.65253979179,
          -845.92581267778,
          253.74542744953
        ],
        "ImageType": [
          "ORIGINAL",
          "PRIMARY",
          "M",
          "MB",
          "ND",
          "MOSAIC"
        ],
        "ImagedNucleus": "1H",
        "ImagingFrequency": 123.25943,
        "InPlanePhaseEncodingDirection": "COL",
        "MRAcquisitionType": "2D",
        "MagneticFieldStrength": 3.0,
        "Manufacturer": "SIEMENS",
        "ManufacturerModelName": "Prisma_fit",
        "Modality": "MR",
        "NumberOfAverages": 1.0,
        "NumberOfPhaseEncodingSteps": 104,
        "PercentPhaseFieldOfView": 100.0,
        "PercentSampling": 100.0,
        "PerformedProcedureStepStartTime": "190311.788000",
        "PhotometricInterpretation": "MONOCHROME2",
        "PixelBandwidth": 2290.0,
        "PixelRepresentation": 0,
        "PixelSpacing": [
          2.0,
          2.0
        ],
        "ProtocolName": "func_task-life3",
        "RepetitionTime": 1490.0,
        "Rows": 832,
        "SAR": 0.03613004363906,
        "SamplesPerPixel": 1,
        "ScanOptions": "FS",
        "ScanningSequence": "EP",
        "SequenceName": "epfid2d1_104",
        "SequenceVariant": [
          "SK",
          "SS"
        ],
        "SeriesDescription": "func_task-life3",
        "SeriesNumber": 11,
        "SeriesTime": "192936.730000",
        "SliceLocation": -55.982567641064,
        "SliceThickness": 2.0,
        "SmallestImagePixelValue": 0,
        "SoftwareVersions": "syngo MR E11",
        "SpacingBetweenSlices": 1.9999999661787,
        "SpecificCharacterSet": "ISO_IR 100",
        "StudyID": "1",
        "StudyTime": "190311.715000",
        "TransmitCoilName": "Body",
        "VariableFlipAngleFlag": "N",
        "WindowCenterWidthExplanation": "Algo1",
        "dBdt": 0.0
      },
      "slices": {}
    },
    "modality": "bold",
    "run_id": 2,
    "session_id": "008",
    "subject_id": "05",
    "task_id": "life03",
    "time": {
      "samples": {
        "AcquisitionNumber": [
          1,
          2,
          3,
          4,
          5,
          6,
          7,
          8,
          9,
          10,
          11,
          12,
          13,
          14,
          15,
          16,
          17,
          18,
          19,
          20,
          21,
          22,
          23,
          24,
          25,
          26,
          27,
          28,
          29,
          30,
          31,
          32,
          33,
          34,
          35,
          36,
          37,
          38,
          39,
          40,
          41,
          42,
          43,
          44,
          45,
          46,
          47,
          48,
          49,
          50,
          51,
          52,
          53,
          54,
          55,
          56,
          57,
          58,
          59,
          60,
          61,
          62,
          63,
          64,
          65,
          66,
          67,
          68,
          69,
          70,
          71,
          72,
          73,
          74,
          75,
          76,
          77,
          78,
          79,
          80,
          81,
          82,
          83,
          84,
          85,
          86,
          87,
          88,
          89,
          90,
          91,
          92,
          93,
          94,
          95,
          96,
          97,
          98,
          99,
          100,
          101,
          102,
          103,
          104,
          105,
          106,
          107,
          108,
          109,
          110,
          111,
          112,
          113,
          114,
          115,
          116,
          117,
          118,
          119,
          120,
          121,
          122,
          123,
          124,
          125,
          126,
          127,
          128,
          129,
          130,
          131,
          132,
          133,
          134,
          135,
          136,
          137,
          138,
          139,
          140,
          141,
          142,
          143,
          144,
          145,
          146,
          147,
          148,
          149,
          150,
          151,
          152,
          153,
          154,
          155,
          156,
          157,
          158,
          159,
          160,
          161,
          162,
          163,
          164,
          165,
          166,
          167,
          168,
          169,
          170,
          171,
          172,
          173,
          174,
          175,
          176,
          177,
          178,
          179,
          180,
          181,
          182,
          183,
          184,
          185,
          186,
          187,
          188,
          189,
          190,
          191,
          192,
          193,
          194,
          195,
          196,
          197,
          198,
          199,
          200,
          201,
          202,
          203,
          204,
          205,
          206,
          207,
          208,
          209,
          210,
          211,
          212,
          213,
          214,
          215,
          216,
          217,
          218,
          219,
          220,
          221,
          222,
          223,
          224,
          225,
          226,
          227,
          228,
          229,
          230,
          231,
          232,
          233,
          234,
          235,
          236,
          237,
          238,
          239,
          240,
          241,
          242,
          243,
          244,
          245,
          246,
          247,
          248,
          249,
          250,
          251,
          252,
          253,
          254,
          255,
          256,
          257,
          258,
          259,
          260,
          261,
          262,
          263,
          264,
          265,
          266,
          267,
          268,
          269,
          270,
          271,
          272,
          273,
          274,
          275,
          276,
          277,
          278,
          279,
          280,
          281,
          282,
          283,
          284,
          285,
          286,
          287,
          288,
          289,
          290,
          291,
          292,
          293,
          294,
          295,
          296,
          297,
          298,
          299,
          300,
          301,
          302,
          303,
          304,
          305,
          306,
          307,
          308,
          309,
          310,
          311,
          312,
          313,
          314,
          315,
          316,
          317,
          318,
          319,
          320,
          321,
          322,
          323,
          324,
          325,
          326,
          327,
          328,
          329,
          330,
          331,
          332,
          333,
          334,
          335,
          336,
          337,
          338,
          339,
          340,
          341,
          342,
          343,
          344,
          345,
          346,
          347,
          348,
          349,
          350,
          351,
          352,
          353,
          354,
          355,
          356,
          357,
          358,
          359,
          360,
          361,
          362,
          363,
          364,
          365,
          366,
          367,
          368,
          369,
          370,
          371,
          372,
          373,
          374,
          375,
          376,
          377,
          378,
          379,
          380,
          381,
          382,
          383,
          384,
          385,
          386,
          387,
          388,
          389,
          390,
          391,
          392,
          393,
          394,
          395,
          396,
          397,
          398,
          399,
          400,
          401,
          402,
          403,
          404,
          405,
          406,
          407,
          408,
          409,
          410
        ],
        "AcquisitionTime": [
          "192833.527500",
          "192835.017500",
          "192836.507500",
          "192837.997500",
          "192839.487500",
          "192840.977500",
          "192842.467500",
          "192843.957500",
          "192845.447500",
          "192846.937500",
          "192848.427500",
          "192849.917500",
          "192851.407500",
          "192852.897500",
          "192854.387500",
          "192855.877500",
          "192857.367500",
          "192858.857500",
          "192900.347500",
          "192901.837500",
          "192903.327500",
          "192904.817500",
          "192906.307500",
          "192907.797500",
          "192909.287500",
          "192910.777500",
          "192912.267500",
          "192913.757500",
          "192915.247500",
          "192916.737500",
          "192918.227500",
          "192919.717500",
          "192921.207500",
          "192922.697500",
          "192924.187500",
          "192925.677500",
          "192927.167500",
          "192928.657500",
          "192930.147500",
          "192931.637500",
          "192933.127500",
          "192934.617500",
          "192936.107500",
          "192937.597500",
          "192939.087500",
          "192940.577500",
          "192942.067500",
          "192943.557500",
          "192945.047500",
          "192946.537500",
          "192948.027500",
          "192949.517500",
          "192951.007500",
          "192952.497500",
          "192953.987500",
          "192955.477500",
          "192956.967500",
          "192958.457500",
          "192959.947500",
          "193001.437500",
          "193002.927500",
          "193004.417500",
          "193005.907500",
          "193007.397500",
          "193008.887500",
          "193010.377500",
          "193011.867500",
          "193013.357500",
          "193014.847500",
          "193016.337500",
          "193017.827500",
          "193019.317500",
          "193020.807500",
          "193022.297500",
          "193023.787500",
          "193025.277500",
          "193026.767500",
          "193028.257500",
          "193029.747500",
          "193031.237500",
          "193032.727500",
          "193034.217500",
          "193035.707500",
          "193037.197500",
          "193038.687500",
          "193040.177500",
          "193041.667500",
          "193043.157500",
          "193044.647500",
          "193046.137500",
          "193047.627500",
          "193049.117500",
          "193050.607500",
          "193052.097500",
          "193053.587500",
          "193055.077500",
          "193056.567500",
          "193058.057500",
          "193059.547500",
          "193101.037500",
          "193102.527500",
          "193104.017500",
          "193105.507500",
          "193106.997500",
          "193108.487500",
          "193109.977500",
          "193111.467500",
          "193112.957500",
          "193114.447500",
          "193115.937500",
          "193117.427500",
          "193118.917500",
          "193120.407500",
          "193121.897500",
          "193123.387500",
          "193124.877500",
          "193126.367500",
          "193127.857500",
          "193129.347500",
          "193130.837500",
          "193132.327500",
          "193133.817500",
          "193135.307500",
          "193136.797500",
          "193138.287500",
          "193139.777500",
          "193141.267500",
          "193142.757500",
          "193144.247500",
          "193145.737500",
          "193147.227500",
          "193148.717500",
          "193150.207500",
          "193151.697500",
          "193153.187500",
          "193154.677500",
          "193156.167500",
          "193157.657500",
          "193159.147500",
          "193200.637500",
          "193202.127500",
          "193203.617500",
          "193205.107500",
          "193206.597500",
          "193208.087500",
          "193209.577500",
          "193211.067500",
          "193212.557500",
          "193214.047500",
          "193215.537500",
          "193217.027500",
          "193218.517500",
          "193220.007500",
          "193221.497500",
          "193222.987500",
          "193224.477500",
          "193225.967500",
          "193227.457500",
          "193228.947500",
          "193230.437500",
          "193231.927500",
          "193233.417500",
          "193234.907500",
          "193236.397500",
          "193237.887500",
          "193239.377500",
          "193240.867500",
          "193242.357500",
          "193243.847500",
          "193245.337500",
          "193246.827500",
          "193248.317500",
          "193249.807500",
          "193251.297500",
          "193252.787500",
          "193254.277500",
          "193255.767500",
          "193257.257500",
          "193258.747500",
          "193300.237500",
          "193301.727500",
          "193303.217500",
          "193304.707500",
          "193306.197500",
          "193307.687500",
          "193309.177500",
          "193310.667500",
          "193312.157500",
          "193313.647500",
          "193315.137500",
          "193316.627500",
          "193318.117500",
          "193319.607500",
          "193321.097500",
          "193322.587500",
          "193324.077500",
          "193325.567500",
          "193327.057500",
          "193328.547500",
          "193330.037500",
          "193331.527500",
          "193333.017500",
          "193334.507500",
          "193335.997500",
          "193337.487500",
          "193338.977500",
          "193340.467500",
          "193341.957500",
          "193343.447500",
          "193344.937500",
          "193346.427500",
          "193347.917500",
          "193349.407500",
          "193350.897500",
          "193352.387500",
          "193353.877500",
          "193355.367500",
          "193356.857500",
          "193358.347500",
          "193359.837500",
          "193401.327500",
          "193402.817500",
          "193404.307500",
          "193405.797500",
          "193407.287500",
          "193408.777500",
          "193410.267500",
          "193411.757500",
          "193413.247500",
          "193414.737500",
          "193416.227500",
          "193417.717500",
          "193419.207500",
          "193420.697500",
          "193422.187500",
          "193423.677500",
          "193425.167500",
          "193426.657500",
          "193428.147500",
          "193429.637500",
          "193431.127500",
          "193432.617500",
          "193434.107500",
          "193435.597500",
          "193437.087500",
          "193438.577500",
          "193440.067500",
          "193441.557500",
          "193443.047500",
          "193444.537500",
          "193446.027500",
          "193447.517500",
          "193449.007500",
          "193450.497500",
          "193451.987500",
          "193453.477500",
          "193454.967500",
          "193456.457500",
          "193457.947500",
          "193459.437500",
          "193500.927500",
          "193502.417500",
          "193503.907500",
          "193505.397500",
          "193506.887500",
          "193508.377500",
          "193509.867500",
          "193511.357500",
          "193512.847500",
          "193514.337500",
          "193515.827500",
          "193517.317500",
          "193518.807500",
          "193520.297500",
          "193521.787500",
          "193523.277500",
          "193524.767500",
          "193526.257500",
          "193527.747500",
          "193529.237500",
          "193530.727500",
          "193532.217500",
          "193533.707500",
          "193535.197500",
          "193536.687500",
          "193538.177500",
          "193539.667500",
          "193541.157500",
          "193542.647500",
          "193544.137500",
          "193545.627500",
          "193547.117500",
          "193548.607500",
          "193550.097500",
          "193551.587500",
          "193553.077500",
          "193554.567500",
          "193556.057500",
          "193557.547500",
          "193559.037500",
          "193600.527500",
          "193602.017500",
          "193603.507500",
          "193604.997500",
          "193606.487500",
          "193607.977500",
          "193609.467500",
          "193610.957500",
          "193612.447500",
          "193613.937500",
          "193615.427500",
          "193616.917500",
          "193618.407500",
          "193619.897500",
          "193621.387500",
          "193622.877500",
          "193624.367500",
          "193625.857500",
          "193627.347500",
          "193628.837500",
          "193630.327500",
          "193631.817500",
          "193633.307500",
          "193634.797500",
          "193636.287500",
          "193637.777500",
          "193639.267500",
          "193640.757500",
          "193642.247500",
          "193643.737500",
          "193645.227500",
          "193646.717500",
          "193648.207500",
          "193649.697500",
          "193651.187500",
          "193652.677500",
          "193654.167500",
          "193655.657500",
          "193657.147500",
          "193658.637500",
          "193700.127500",
          "193701.617500",
          "193703.107500",
          "193704.597500",
          "193706.087500",
          "193707.577500",
          "193709.067500",
          "193710.557500",
          "193712.047500",
          "193713.537500",
          "193715.027500",
          "193716.517500",
          "193718.007500",
          "193719.497500",
          "193720.987500",
          "193722.477500",
          "193723.967500",
          "193725.457500",
          "193726.947500",
          "193728.437500",
          "193729.927500",
          "193731.417500",
          "193732.907500",
          "193734.397500",
          "193735.887500",
          "193737.377500",
          "193738.867500",
          "193740.357500",
          "193741.847500",
          "193743.337500",
          "193744.827500",
          "193746.317500",
          "193747.807500",
          "193749.297500",
          "193750.787500",
          "193752.277500",
          "193753.767500",
          "193755.257500",
          "193756.747500",
          "193758.237500",
          "193759.727500",
          "193801.217500",
          "193802.707500",
          "193804.197500",
          "193805.687500",
          "193807.177500",
          "193808.667500",
          "193810.157500",
          "193811.647500",
          "193813.137500",
          "193814.627500",
          "193816.117500",
          "193817.607500",
          "193819.097500",
          "193820.587500",
          "193822.077500",
          "193823.567500",
          "193825.057500",
          "193826.547500",
          "193828.037500",
          "193829.527500",
          "193831.017500",
          "193832.507500",
          "193833.997500",
          "193835.487500",
          "193836.977500",
          "193838.467500",
          "193839.957500",
          "193841.447500",
          "193842.937500"
        ],
        "ContentTime": [
          "192936.733000",
          "192936.736000",
          "192936.747000",
          "192936.750000",
          "192936.765000",
          "192936.768000",
          "192936.771000",
          "192936.773000",
          "192936.776000",
          "192936.779000",
          "192956.697000",
          "192956.700000",
          "192956.703000",
          "192956.706000",
          "192956.708000",
          "192956.711000",
          "192956.714000",
          "192956.717000",
          "192956.720000",
          "192956.723000",
          "192956.726000",
          "192956.729000",
          "192956.731000",
          "192956.734000",
          "192956.742000",
          "192956.745000",
          "192956.747000",
          "192956.750000",
          "192956.753000",
          "192956.756000",
          "193016.697000",
          "193016.700000",
          "193016.703000",
          "193016.705000",
          "193016.708000",
          "193016.711000",
          "193016.714000",
          "193016.717000",
          "193016.720000",
          "193016.723000",
          "193016.725000",
          "193016.728000",
          "193016.731000",
          "193016.734000",
          "193016.737000",
          "193016.740000",
          "193016.742000",
          "193016.745000",
          "193016.749000",
          "193016.751000",
          "193016.754000",
          "193036.696000",
          "193036.699000",
          "193036.702000",
          "193036.705000",
          "193036.707000",
          "193036.710000",
          "193036.713000",
          "193036.716000",
          "193036.719000",
          "193036.722000",
          "193036.725000",
          "193036.728000",
          "193036.730000",
          "193036.733000",
          "193036.736000",
          "193036.739000",
          "193036.742000",
          "193036.745000",
          "193036.748000",
          "193036.751000",
          "193056.696000",
          "193056.699000",
          "193056.702000",
          "193056.722000",
          "193056.725000",
          "193056.728000",
          "193056.731000",
          "193056.734000",
          "193056.737000",
          "193056.739000",
          "193056.742000",
          "193056.748000",
          "193056.751000",
          "193056.753000",
          "193056.756000",
          "193056.759000",
          "193056.762000",
          "193056.765000",
          "193056.768000",
          "193056.771000",
          "193136.696000",
          "193136.699000",
          "193136.702000",
          "193136.705000",
          "193136.708000",
          "193136.711000",
          "193136.713000",
          "193136.716000",
          "193136.733000",
          "193136.736000",
          "193136.739000",
          "193136.742000",
          "193136.745000",
          "193136.748000",
          "193136.751000",
          "193136.753000",
          "193136.756000",
          "193136.759000",
          "193136.762000",
          "193136.765000",
          "193136.768000",
          "193136.771000",
          "193136.773000",
          "193136.776000",
          "193136.779000",
          "193136.782000",
          "193136.785000",
          "193136.788000",
          "193136.791000",
          "193136.793000",
          "193136.796000",
          "193216.697000",
          "193216.700000",
          "193216.703000",
          "193216.706000",
          "193216.708000",
          "193216.711000",
          "193216.714000",
          "193216.717000",
          "193216.720000",
          "193216.723000",
          "193216.726000",
          "193216.728000",
          "193216.732000",
          "193216.734000",
          "193216.737000",
          "193216.740000",
          "193216.743000",
          "193216.746000",
          "193216.749000",
          "193216.751000",
          "193216.754000",
          "193216.757000",
          "193216.760000",
          "193216.763000",
          "193216.766000",
          "193216.769000",
          "193216.771000",
          "193256.696000",
          "193256.699000",
          "193256.702000",
          "193256.705000",
          "193256.708000",
          "193256.710000",
          "193256.713000",
          "193256.716000",
          "193256.719000",
          "193256.722000",
          "193256.725000",
          "193256.728000",
          "193256.731000",
          "193256.734000",
          "193256.736000",
          "193256.739000",
          "193256.742000",
          "193256.745000",
          "193256.748000",
          "193256.751000",
          "193256.754000",
          "193256.756000",
          "193256.759000",
          "193256.762000",
          "193256.779000",
          "193256.781000",
          "193256.784000",
          "193336.696000",
          "193336.699000",
          "193336.702000",
          "193336.705000",
          "193336.708000",
          "193336.710000",
          "193336.713000",
          "193336.716000",
          "193336.719000",
          "193336.722000",
          "193336.725000",
          "193336.728000",
          "193336.731000",
          "193336.733000",
          "193336.736000",
          "193336.739000",
          "193336.742000",
          "193336.745000",
          "193336.748000",
          "193336.751000",
          "193336.754000",
          "193336.756000",
          "193336.759000",
          "193336.762000",
          "193336.765000",
          "193336.768000",
          "193336.771000",
          "193416.696000",
          "193416.699000",
          "193416.702000",
          "193416.705000",
          "193416.709000",
          "193416.713000",
          "193416.716000",
          "193416.719000",
          "193416.722000",
          "193416.725000",
          "193416.728000",
          "193416.731000",
          "193416.734000",
          "193416.737000",
          "193416.739000",
