{
  "aor": 0.001231559405940594,
  "aqi": 0.008597934777227723,
  "bids_meta": {
    "AcquisitionMatrixPE": 104,
    "AcquisitionNumber": 1,
    "AcquisitionTime": "10:14:35.102500",
    "BandwidthPerPixelPhaseEncode": 17.17,
    "BaseResolution": 104,
    "BodyPartExamined": "BRAIN",
    "CogAtlasID": "trm_4c898da401420",
    "ConsistencyInfo": "N4_VE11C_LATEST_20160120",
    "ConversionSoftware": "dcm2niix",
    "ConversionSoftwareVersion": "v1.0.20171215 (OpenJPEG build) GCC7.3.0",
    "DerivedVendorReportedEchoSpacing": 0.000560011,
    "DeviceSerialNumber": "167006",
    "DwellTime": 2.1e-06,
    "EchoTime": 0.037,
    "EchoTrainLength": 104,
    "EffectiveEchoSpacing": 0.000560011,
    "FlipAngle": 52,
    "ImageComments": "Unaliased_MB4_PE3_LB",
    "ImageOrientationPatientDICOM": [
      0.999722,
      0.0208021,
      -0.0110606,
      -0.0235598,
      0.882703,
      -0.469341
    ],
    "ImageType": [
      "ORIGINAL",
      "PRIMARY",
      "M",
      "MB",
      "ND",
      "MOSAIC"
    ],
    "InPlanePhaseEncodingDirectionDICOM": "COL",
    "InstitutionAddress": "Chemin_Queen-Mary_4565_Montreal_District_CA_H3W_1W5",
    "InstitutionName": "IUGM",
    "InstitutionalDepartmentName": "Department",
    "MRAcquisitionType": "2D",
    "MagneticFieldStrength": 3,
    "Manufacturer": "Siemens",
    "ManufacturersModelName": "Prisma_fit",
    "Modality": "MR",
    "MultibandAccelerationFactor": 4,
    "PartialFourier": 1,
    "PatientPosition": "HFS",
    "PercentPhaseFOV": 100,
    "PhaseEncodingDirection": "j-",
    "PhaseEncodingSteps": 104,
    "PhaseResolution": 1,
    "PixelBandwidth": 2290,
    "ProcedureStepDescription": "video5_generic",
    "ProtocolName": "func_task-life2",
    "PulseSequenceDetails": "%CustomerSeq%_cmrr_mbep2d_bold",
    "ReceiveCoilActiveElements": "HC1-7;NC1,2",
    "ReceiveCoilName": "HeadNeck_64",
    "ReconMatrixPE": 104,
    "RepetitionTime": 1.49,
    "SAR": 0.0344559,
    "ScanOptions": "FS",
    "ScanningSequence": "EP",
    "SequenceName": "epfid2d1_104",
    "SequenceVariant": "SK_SS",
    "SeriesDescription": "func_task-life2",
    "SeriesNumber": 9,
    "ShimSetting": [
      622,
      -7186,
      -8880,
      419,
      -41,
      -212,
      7,
      -19
    ],
    "SliceThickness": 2,
    "SliceTiming": [
      0,
      0.785,
      0.0975,
      0.8825,
      0.195,
      0.98,
      0.295,
      1.0775,
      0.3925,
      1.175,
      0.49,
      1.2725,
      0.5875,
      1.3725,
      0.685,
      0,
      0.785,
      0.0975,
      0.8825,
      0.195,
      0.98,
      0.295,
      1.0775,
      0.3925,
      1.175,
      0.49,
      1.2725,
      0.5875,
      1.3725,
      0.685,
      0,
      0.785,
      0.0975,
      0.8825,
      0.195,
      0.98,
      0.295,
      1.0775,
      0.3925,
      1.175,
      0.49,
      1.2725,
      0.5875,
      1.3725,
      0.685,
      0,
      0.785,
      0.0975,
      0.8825,
      0.195,
      0.98,
      0.295,
      1.0775,
      0.3925,
      1.175,
      0.49,
      1.2725,
      0.5875,
      1.3725,
      0.685
    ],
    "SoftwareVersions": "syngo_MR_E11",
    "SpacingBetweenSlices": 2,
    "StationName": "MRC35049",
    "TaskName": "life02",
    "TotalReadoutTime": 0.0576811,
    "TxRefAmp": 246.726,
    "dataset": "<unset>",
    "dcmmeta_affine": [
      [
        -1.999444842338562,
        -0.04711957275867462,
        -1.1927516752052725e-09,
        107.67564392089844
      ],
      [
        -0.04160411283373833,
        1.7654050588607788,
        -0.938943088054657,
        -59.68569564819336
      ],
      [
        -0.02212129905819893,
        0.938682496547699,
        1.7658952474594116,
        -102.82328796386719
      ],
      [
        0.0,
        0.0,
        0.0,
        1.0
      ]
    ],
    "dcmmeta_reorient_transform": [
      [
        0.0,
        -1.0,
        0.0,
        103.0
      ],
      [
        1.0,
        0.0,
        0.0,
        0.0
      ],
      [
        0.0,
        0.0,
        1.0,
        0.0
      ],
      [
        0.0,
        0.0,
        0.0,
        1.0
      ]
    ],
    "dcmmeta_shape": [
      104,
      104,
      60,
      406
    ],
    "dcmmeta_slice_dim": 2,
    "dcmmeta_version": 0.6,
    "global": {
      "const": {
        "AcquisitionMatrix": [
          104,
          0,
          0,
          104
        ],
        "AngioFlag": "N",
        "BitsAllocated": 16,
        "BitsStored": 16,
        "BodyPartExamined": "BRAIN",
        "Columns": 832,
        "EchoNumbers": 1,
        "EchoTime": 37.0,
        "EchoTrainLength": 104,
        "FlipAngle": 52.0,
        "HighBit": 15,
        "ImageOrientationPatient": [
          0.99972242972304,
          0.02080205613739,
          -0.0110606495794,
          -0.0235597858365,
          0.88270252239204,
          -0.4693412334902
        ],
        "ImagePositionPatient": [
          -813.46873313048,
          -779.90235566217,
          343.59357859741
        ],
        "ImageType": [
          "ORIGINAL",
          "PRIMARY",
          "M",
          "MB",
          "ND",
          "MOSAIC"
        ],
        "ImagedNucleus": "1H",
        "ImagingFrequency": 123.259462,
        "InPlanePhaseEncodingDirection": "COL",
        "MRAcquisitionType": "2D",
        "MagneticFieldStrength": 3.0,
        "Manufacturer": "SIEMENS",
        "ManufacturerModelName": "Prisma_fit",
        "Modality": "MR",
        "NumberOfAverages": 1.0,
        "NumberOfPhaseEncodingSteps": 104,
        "PercentPhaseFieldOfView": 100.0,
        "PercentSampling": 100.0,
        "PerformedProcedureStepStartTime": "093016.736000",
        "PhotometricInterpretation": "MONOCHROME2",
        "PixelBandwidth": 2290.0,
        "PixelRepresentation": 0,
        "PixelSpacing": [
          2.0,
          2.0
        ],
        "ProtocolName": "func_task-life2",
        "RepetitionTime": 1490.0,
        "Rows": 832,
        "SAR": 0.034455919301,
        "SamplesPerPixel": 1,
        "ScanOptions": "FS",
        "ScanningSequence": "EP",
        "SequenceName": "epfid2d1_104",
        "SequenceVariant": [
          "SK",
          "SS"
        ],
        "SeriesDescription": "func_task-life2",
        "SeriesNumber": 9,
        "SeriesTime": "101553.593000",
        "SliceLocation": -62.76683780821,
        "SliceThickness": 2.0,
        "SmallestImagePixelValue": 0,
        "SoftwareVersions": "syngo MR E11",
        "SpacingBetweenSlices": 2.0000000070043,
        "SpecificCharacterSet": "ISO_IR 100",
        "StudyID": "2",
        "StudyTime": "093016.688000",
        "TransmitCoilName": "Body",
        "VariableFlipAngleFlag": "N",
        "WindowCenterWidthExplanation": "Algo1",
        "dBdt": 0.0
      },
      "slices": {}
    },
    "modality": "bold",
    "run_id": 1,
    "session_id": "001",
    "subject_id": "02",
    "task_id": "life02",
    "time": {
      "samples": {
        "AcquisitionNumber": [
          1,
          2,
          3,
          4,
          5,
          6,
          7,
          8,
          9,
          10,
          11,
          12,
          13,
          14,
          15,
          16,
          17,
          18,
          19,
          20,
          21,
          22,
          23,
          24,
          25,
          26,
          27,
          28,
          29,
          30,
          31,
          32,
          33,
          34,
          35,
          36,
          37,
          38,
          39,
          40,
          41,
          42,
          43,
          44,
          45,
          46,
          47,
          48,
          49,
          50,
          51,
          52,
          53,
          54,
          55,
          56,
          57,
          58,
          59,
          60,
          61,
          62,
          63,
          64,
          65,
          66,
          67,
          68,
          69,
          70,
          71,
          72,
          73,
          74,
          75,
          76,
          77,
          78,
          79,
          80,
          81,
          82,
          83,
          84,
          85,
          86,
          87,
          88,
          89,
          90,
          91,
          92,
          93,
          94,
          95,
          96,
          97,
          98,
          99,
          100,
          101,
          102,
          103,
          104,
          105,
          106,
          107,
          108,
          109,
          110,
          111,
          112,
          113,
          114,
          115,
          116,
          117,
          118,
          119,
          120,
          121,
          122,
          123,
          124,
          125,
          126,
          127,
          128,
          129,
          130,
          131,
          132,
          133,
          134,
          135,
          136,
          137,
          138,
          139,
          140,
          141,
          142,
          143,
          144,
          145,
          146,
          147,
          148,
          149,
          150,
          151,
          152,
          153,
          154,
          155,
          156,
          157,
          158,
          159,
          160,
          161,
          162,
          163,
          164,
          165,
          166,
          167,
          168,
          169,
          170,
          171,
          172,
          173,
          174,
          175,
          176,
          177,
          178,
          179,
          180,
          181,
          182,
          183,
          184,
          185,
          186,
          187,
          188,
          189,
          190,
          191,
          192,
          193,
          194,
          195,
          196,
          197,
          198,
          199,
          200,
          201,
          202,
          203,
          204,
          205,
          206,
          207,
          208,
          209,
          210,
          211,
          212,
          213,
          214,
          215,
          216,
          217,
          218,
          219,
          220,
          221,
          222,
          223,
          224,
          225,
          226,
          227,
          228,
          229,
          230,
          231,
          232,
          233,
          234,
          235,
          236,
          237,
          238,
          239,
          240,
          241,
          242,
          243,
          244,
          245,
          246,
          247,
          248,
          249,
          250,
          251,
          252,
          253,
          254,
          255,
          256,
          257,
          258,
          259,
          260,
          261,
          262,
          263,
          264,
          265,
          266,
          267,
          268,
          269,
          270,
          271,
          272,
          273,
          274,
          275,
          276,
          277,
          278,
          279,
          280,
          281,
          282,
          283,
          284,
          285,
          286,
          287,
          288,
          289,
          290,
          291,
          292,
          293,
          294,
          295,
          296,
          297,
          298,
          299,
          300,
          301,
          302,
          303,
          304,
          305,
          306,
          307,
          308,
          309,
          310,
          311,
          312,
          313,
          314,
          315,
          316,
          317,
          318,
          319,
          320,
          321,
          322,
          323,
          324,
          325,
          326,
          327,
          328,
          329,
          330,
          331,
          332,
          333,
          334,
          335,
          336,
          337,
          338,
          339,
          340,
          341,
          342,
          343,
          344,
          345,
          346,
          347,
          348,
          349,
          350,
          351,
          352,
          353,
          354,
          355,
          356,
          357,
          358,
          359,
          360,
          361,
          362,
          363,
          364,
          365,
          366,
          367,
          368,
          369,
          370,
          371,
          372,
          373,
          374,
          375,
          376,
          377,
          378,
          379,
          380,
          381,
          382,
          383,
          384,
          385,
          386,
          387,
          388,
          389,
          390,
          391,
          392,
          393,
          394,
          395,
          396,
          397,
          398,
          399,
          400,
          401,
          402,
          403,
          404,
          405,
          406
        ],
        "AcquisitionTime": [
          "101435.102500",
          "101436.592500",
          "101438.082500",
          "101439.572500",
          "101441.062500",
          "101442.552500",
          "101444.042500",
          "101445.532500",
          "101447.022500",
          "101448.512500",
          "101450.002500",
          "101451.492500",
          "101452.982500",
          "101454.472500",
          "101455.962500",
          "101457.452500",
          "101458.942500",
          "101500.432500",
          "101501.922500",
          "101503.412500",
          "101504.902500",
          "101506.392500",
          "101507.882500",
          "101509.372500",
          "101510.862500",
          "101512.352500",
          "101513.842500",
          "101515.332500",
          "101516.822500",
          "101518.312500",
          "101519.802500",
          "101521.292500",
          "101522.782500",
          "101524.272500",
          "101525.762500",
          "101527.252500",
          "101528.742500",
          "101530.232500",
          "101531.722500",
          "101533.212500",
          "101534.702500",
          "101536.192500",
          "101537.682500",
          "101539.172500",
          "101540.662500",
          "101542.152500",
          "101543.642500",
          "101545.132500",
          "101546.622500",
          "101548.112500",
          "101549.602500",
          "101551.092500",
          "101552.582500",
          "101554.072500",
          "101555.562500",
          "101557.052500",
          "101558.542500",
          "101600.032500",
          "101601.522500",
          "101603.012500",
          "101604.502500",
          "101605.992500",
          "101607.482500",
          "101608.972500",
          "101610.462500",
          "101611.952500",
          "101613.442500",
          "101614.932500",
          "101616.422500",
          "101617.912500",
          "101619.402500",
          "101620.892500",
          "101622.382500",
          "101623.872500",
          "101625.362500",
          "101626.852500",
          "101628.342500",
          "101629.832500",
          "101631.322500",
          "101632.812500",
          "101634.302500",
          "101635.792500",
          "101637.282500",
          "101638.772500",
          "101640.262500",
          "101641.752500",
          "101643.242500",
          "101644.732500",
          "101646.222500",
          "101647.712500",
          "101649.202500",
          "101650.692500",
          "101652.182500",
          "101653.672500",
          "101655.162500",
          "101656.652500",
          "101658.142500",
          "101659.632500",
          "101701.122500",
          "101702.612500",
          "101704.102500",
          "101705.592500",
          "101707.082500",
          "101708.572500",
          "101710.062500",
          "101711.552500",
          "101713.042500",
          "101714.532500",
          "101716.022500",
          "101717.512500",
          "101719.002500",
          "101720.492500",
          "101721.982500",
          "101723.472500",
          "101724.962500",
          "101726.452500",
          "101727.942500",
          "101729.432500",
          "101730.922500",
          "101732.412500",
          "101733.902500",
          "101735.392500",
          "101736.882500",
          "101738.372500",
          "101739.862500",
          "101741.352500",
          "101742.842500",
          "101744.332500",
          "101745.822500",
          "101747.312500",
          "101748.802500",
          "101750.292500",
          "101751.782500",
          "101753.272500",
          "101754.762500",
          "101756.252500",
          "101757.742500",
          "101759.232500",
          "101800.722500",
          "101802.212500",
          "101803.702500",
          "101805.192500",
          "101806.682500",
          "101808.172500",
          "101809.662500",
          "101811.152500",
          "101812.642500",
          "101814.132500",
          "101815.622500",
          "101817.112500",
          "101818.602500",
          "101820.092500",
          "101821.582500",
          "101823.072500",
          "101824.562500",
          "101826.052500",
          "101827.542500",
          "101829.032500",
          "101830.522500",
          "101832.012500",
          "101833.502500",
          "101834.992500",
          "101836.482500",
          "101837.972500",
          "101839.462500",
          "101840.952500",
          "101842.442500",
          "101843.932500",
          "101845.422500",
          "101846.912500",
          "101848.402500",
          "101849.892500",
          "101851.382500",
          "101852.872500",
          "101854.362500",
          "101855.852500",
          "101857.342500",
          "101858.832500",
          "101900.322500",
          "101901.812500",
          "101903.302500",
          "101904.792500",
          "101906.282500",
          "101907.772500",
          "101909.262500",
          "101910.752500",
          "101912.242500",
          "101913.732500",
          "101915.222500",
          "101916.712500",
          "101918.202500",
          "101919.692500",
          "101921.182500",
          "101922.672500",
          "101924.162500",
          "101925.652500",
          "101927.142500",
          "101928.632500",
          "101930.122500",
          "101931.612500",
          "101933.102500",
          "101934.592500",
          "101936.082500",
          "101937.572500",
          "101939.062500",
          "101940.552500",
          "101942.042500",
          "101943.532500",
          "101945.022500",
          "101946.512500",
          "101948.002500",
          "101949.492500",
          "101950.982500",
          "101952.472500",
          "101953.962500",
          "101955.452500",
          "101956.942500",
          "101958.432500",
          "101959.922500",
          "102001.412500",
          "102002.902500",
          "102004.392500",
          "102005.882500",
          "102007.372500",
          "102008.862500",
          "102010.352500",
          "102011.842500",
          "102013.332500",
          "102014.822500",
          "102016.312500",
          "102017.802500",
          "102019.292500",
          "102020.782500",
          "102022.272500",
          "102023.762500",
          "102025.252500",
          "102026.742500",
          "102028.232500",
          "102029.722500",
          "102031.212500",
          "102032.702500",
          "102034.192500",
          "102035.682500",
          "102037.172500",
          "102038.662500",
          "102040.152500",
          "102041.642500",
          "102043.132500",
          "102044.622500",
          "102046.112500",
          "102047.602500",
          "102049.092500",
          "102050.582500",
          "102052.072500",
          "102053.562500",
          "102055.052500",
          "102056.542500",
          "102058.032500",
          "102059.522500",
          "102101.012500",
          "102102.502500",
          "102103.992500",
          "102105.482500",
          "102106.972500",
          "102108.462500",
          "102109.952500",
          "102111.442500",
          "102112.932500",
          "102114.422500",
          "102115.912500",
          "102117.402500",
          "102118.892500",
          "102120.382500",
          "102121.872500",
          "102123.362500",
          "102124.852500",
          "102126.342500",
          "102127.832500",
          "102129.322500",
          "102130.812500",
          "102132.302500",
          "102133.792500",
          "102135.282500",
          "102136.772500",
          "102138.262500",
          "102139.752500",
          "102141.242500",
          "102142.732500",
          "102144.222500",
          "102145.712500",
          "102147.202500",
          "102148.692500",
          "102150.182500",
          "102151.672500",
          "102153.162500",
          "102154.652500",
          "102156.142500",
          "102157.632500",
          "102159.122500",
          "102200.612500",
          "102202.102500",
          "102203.592500",
          "102205.082500",
          "102206.572500",
          "102208.062500",
          "102209.552500",
          "102211.042500",
          "102212.532500",
          "102214.022500",
          "102215.512500",
          "102217.002500",
          "102218.492500",
          "102219.982500",
          "102221.472500",
          "102222.962500",
          "102224.452500",
          "102225.942500",
          "102227.432500",
          "102228.922500",
          "102230.412500",
          "102231.902500",
          "102233.392500",
          "102234.882500",
          "102236.372500",
          "102237.862500",
          "102239.352500",
          "102240.842500",
          "102242.332500",
          "102243.822500",
          "102245.312500",
          "102246.802500",
          "102248.292500",
          "102249.782500",
          "102251.272500",
          "102252.762500",
          "102254.252500",
          "102255.742500",
          "102257.232500",
          "102258.722500",
          "102300.212500",
          "102301.702500",
          "102303.192500",
          "102304.682500",
          "102306.172500",
          "102307.662500",
          "102309.152500",
          "102310.642500",
          "102312.132500",
          "102313.622500",
          "102315.112500",
          "102316.602500",
          "102318.092500",
          "102319.582500",
          "102321.072500",
          "102322.562500",
          "102324.052500",
          "102325.542500",
          "102327.032500",
          "102328.522500",
          "102330.012500",
          "102331.502500",
          "102332.992500",
          "102334.482500",
          "102335.972500",
          "102337.462500",
          "102338.952500",
          "102340.442500",
          "102341.932500",
          "102343.422500",
          "102344.912500",
          "102346.402500",
          "102347.892500",
          "102349.382500",
          "102350.872500",
          "102352.362500",
          "102353.852500",
          "102355.342500",
          "102356.832500",
          "102358.322500",
          "102359.812500",
          "102401.302500",
          "102402.792500",
          "102404.282500",
          "102405.772500",
          "102407.262500",
          "102408.752500",
          "102410.242500",
          "102411.732500",
          "102413.222500",
          "102414.712500",
          "102416.202500",
          "102417.692500",
          "102419.182500",
          "102420.672500",
          "102422.162500",
          "102423.652500",
          "102425.142500",
          "102426.632500",
          "102428.122500",
          "102429.612500",
          "102431.102500",
          "102432.592500",
          "102434.082500",
          "102435.572500",
          "102437.062500",
          "102438.552500"
        ],
        "ContentTime": [
          "101553.595000",
          "101553.599000",
          "101553.602000",
          "101553.605000",
          "101553.608000",
          "101553.613000",
          "101553.616000",
          "101553.619000",
          "101553.624000",
          "101553.628000",
          "101553.631000",
          "101553.634000",
          "101553.637000",
          "101553.640000",
          "101553.642000",
          "101553.645000",
          "101553.648000",
          "101553.651000",
          "101553.654000",
          "101553.657000",
          "101553.660000",
          "101553.663000",
          "101553.666000",
          "101553.668000",
          "101553.671000",
          "101613.565000",
          "101613.568000",
          "101613.571000",
          "101613.574000",
          "101613.577000",
          "101613.580000",
          "101613.583000",
          "101613.586000",
          "101613.596000",
          "101613.599000",
          "101613.602000",
          "101613.604000",
          "101613.607000",
          "101613.610000",
          "101613.613000",
          "101613.616000",
          "101613.619000",
          "101613.622000",
          "101613.625000",
          "101613.627000",
          "101633.565000",
          "101633.568000",
          "101633.571000",
          "101633.574000",
          "101633.577000",
          "101633.580000",
          "101633.583000",
          "101633.619000",
          "101633.622000",
          "101633.625000",
          "101633.628000",
          "101633.630000",
          "101633.633000",
          "101633.636000",
          "101633.639000",
          "101633.642000",
          "101633.645000",
          "101633.648000",
          "101633.650000",
          "101633.653000",
          "101653.564000",
          "101653.567000",
          "101653.570000",
          "101653.573000",
          "101653.576000",
          "101653.578000",
          "101653.581000",
          "101653.584000",
          "101653.587000",
          "101653.590000",
          "101653.593000",
          "101653.596000",
          "101653.599000",
          "101653.602000",
          "101653.604000",
          "101653.607000",
          "101653.610000",
          "101653.613000",
          "101653.618000",
          "101653.621000",
          "101653.623000",
          "101733.564000",
          "101733.567000",
          "101733.570000",
          "101733.573000",
          "101733.576000",
          "101733.579000",
          "101733.581000",
          "101733.584000",
          "101733.587000",
          "101733.590000",
          "101733.593000",
          "101733.596000",
          "101733.598000",
          "101733.601000",
          "101733.604000",
          "101733.607000",
          "101733.610000",
          "101733.613000",
          "101733.621000",
          "101733.624000",
          "101733.627000",
          "101733.629000",
          "101733.632000",
          "101733.635000",
          "101733.638000",
          "101733.641000",
          "101733.644000",
          "101733.647000",
          "101733.649000",
          "101733.652000",
          "101733.655000",
          "101733.658000",
          "101733.661000",
          "101813.565000",
          "101813.568000",
          "101813.571000",
          "101813.574000",
          "101813.577000",
          "101813.580000",
          "101813.583000",
          "101813.585000",
          "101813.588000",
          "101813.591000",
          "101813.594000",
          "101813.597000",
          "101813.600000",
          "101813.603000",
          "101813.605000",
          "101813.608000",
          "101813.611000",
          "101813.614000",
          "101813.617000",
          "101813.620000",
          "101813.623000",
          "101813.625000",
          "101813.628000",
          "101813.631000",
          "101813.634000",
          "101813.637000",
          "101813.640000",
          "101853.565000",
          "101853.569000",
          "101853.572000",
          "101853.575000",
          "101853.577000",
          "101853.580000",
          "101853.583000",
          "101853.586000",
          "101853.589000",
          "101853.592000",
          "101853.595000",
          "101853.598000",
          "101853.601000",
          "101853.603000",
          "101853.606000",
          "101853.609000",
          "101853.612000",
          "101853.615000",
          "101853.618000",
          "101853.621000",
          "101853.624000",
          "101853.627000",
          "101853.630000",
          "101853.643000",
          "101853.646000",
          "101853.649000",
          "101933.564000",
          "101933.567000",
          "101933.570000",
          "101933.573000",
          "101933.576000",
          "101933.579000",
          "101933.581000",
          "101933.584000",
          "101933.587000",
          "101933.590000",
          "101933.593000",
          "101933.596000",
          "101933.599000",
          "101933.602000",
          "101933.604000",
          "101933.607000",
          "101933.610000",
          "101933.613000",
          "101933.616000",
          "101933.619000",
          "101933.622000",
          "101933.625000",
          "101933.627000",
          "101933.630000",
          "101933.633000",
          "101933.636000",
          "101933.639000",
          "102013.564000",
          "102013.567000",
          "102013.570000",
          "102013.573000",
          "102013.576000",
          "102013.579000",
          "102013.582000",
          "102013.585000",
          "102013.588000",
          "102013.591000",
          "102013.594000",
          "102013.597000",
          "102013.600000",
          "102013.603000",
          "102013.606000",
          "102013.609000",
          "102013.612000",
          "102013.615000",
          "102013.618000",
          "102013.621000",
          "102013.624000",
          "102013.627000",
          "102013.630000",
          "102013.633000",
