{
  "aor": 0.0015214320987654323,
  "aqi": 0.01402478864197531,
  "bids_meta": {
    "AcquisitionMatrixPE": 104,
    "AcquisitionNumber": 1,
    "AcquisitionTime": "10:25:24.562500",
    "BandwidthPerPixelPhaseEncode": 17.17,
    "BaseResolution": 104,
    "BodyPartExamined": "BRAIN",
    "CogAtlasID": "trm_4c898da401420",
    "ConsistencyInfo": "N4_VE11C_LATEST_20160120",
    "ConversionSoftware": "dcm2niix",
    "ConversionSoftwareVersion": "v1.0.20171215 (OpenJPEG build) GCC7.3.0",
    "DerivedVendorReportedEchoSpacing": 0.000560011,
    "DeviceSerialNumber": "167006",
    "DwellTime": 2.1e-06,
    "EchoTime": 0.037,
    "EchoTrainLength": 104,
    "EffectiveEchoSpacing": 0.000560011,
    "FlipAngle": 52,
    "ImageComments": "Unaliased_MB4_PE3_LB",
    "ImageOrientationPatientDICOM": [
      0.999722,
      0.0208021,
      -0.0110606,
      -0.0235598,
      0.882703,
      -0.469341
    ],
    "ImageType": [
      "ORIGINAL",
      "PRIMARY",
      "M",
      "MB",
      "ND",
      "MOSAIC"
    ],
    "InPlanePhaseEncodingDirectionDICOM": "COL",
    "InstitutionAddress": "Chemin_Queen-Mary_4565_Montreal_District_CA_H3W_1W5",
    "InstitutionName": "IUGM",
    "InstitutionalDepartmentName": "Department",
    "MRAcquisitionType": "2D",
    "MagneticFieldStrength": 3,
    "Manufacturer": "Siemens",
    "ManufacturersModelName": "Prisma_fit",
    "Modality": "MR",
    "MultibandAccelerationFactor": 4,
    "PartialFourier": 1,
    "PatientPosition": "HFS",
    "PercentPhaseFOV": 100,
    "PhaseEncodingDirection": "j-",
    "PhaseEncodingSteps": 104,
    "PhaseResolution": 1,
    "PixelBandwidth": 2290,
    "ProcedureStepDescription": "video5_generic",
    "ProtocolName": "func_task-life3",
    "PulseSequenceDetails": "%CustomerSeq%_cmrr_mbep2d_bold",
    "ReceiveCoilActiveElements": "HC1-7;NC1,2",
    "ReceiveCoilName": "HeadNeck_64",
    "ReconMatrixPE": 104,
    "RepetitionTime": 1.49,
    "SAR": 0.0344559,
    "ScanOptions": "FS",
    "ScanningSequence": "EP",
    "SequenceName": "epfid2d1_104",
    "SequenceVariant": "SK_SS",
    "SeriesDescription": "func_task-life3",
    "SeriesNumber": 11,
    "ShimSetting": [
      622,
      -7186,
      -8880,
      419,
      -41,
      -212,
      7,
      -19
    ],
    "SliceThickness": 2,
    "SliceTiming": [
      0,
      0.785,
      0.0975,
      0.8825,
      0.195,
      0.98,
      0.295,
      1.0775,
      0.3925,
      1.175,
      0.49,
      1.275,
      0.5875,
      1.3725,
      0.685,
      0,
      0.785,
      0.0975,
      0.8825,
      0.195,
      0.98,
      0.295,
      1.0775,
      0.3925,
      1.175,
      0.49,
      1.275,
      0.5875,
      1.3725,
      0.685,
      0,
      0.785,
      0.0975,
      0.8825,
      0.195,
      0.98,
      0.295,
      1.0775,
      0.3925,
      1.175,
      0.49,
      1.275,
      0.5875,
      1.3725,
      0.685,
      0,
      0.785,
      0.0975,
      0.8825,
      0.195,
      0.98,
      0.295,
      1.0775,
      0.3925,
      1.175,
      0.49,
      1.275,
      0.5875,
      1.3725,
      0.685
    ],
    "SoftwareVersions": "syngo_MR_E11",
    "SpacingBetweenSlices": 2,
    "StationName": "MRC35049",
    "TaskName": "life03",
    "TotalReadoutTime": 0.0576811,
    "TxRefAmp": 246.726,
    "dataset": "<unset>",
    "dcmmeta_affine": [
      [
        -1.999444842338562,
        -0.04711957275867462,
        -1.1927516752052725e-09,
        107.67564392089844
      ],
      [
        -0.04160411283373833,
        1.7654050588607788,
        -0.938943088054657,
        -59.68569564819336
      ],
      [
        -0.02212129905819893,
        0.938682496547699,
        1.7658952474594116,
        -102.82328796386719
      ],
      [
        0.0,
        0.0,
        0.0,
        1.0
      ]
    ],
    "dcmmeta_reorient_transform": [
      [
        0.0,
        -1.0,
        0.0,
        103.0
      ],
      [
        1.0,
        0.0,
        0.0,
        0.0
      ],
      [
        0.0,
        0.0,
        1.0,
        0.0
      ],
      [
        0.0,
        0.0,
        0.0,
        1.0
      ]
    ],
    "dcmmeta_shape": [
      104,
      104,
      60,
      406
    ],
    "dcmmeta_slice_dim": 2,
    "dcmmeta_version": 0.6,
    "global": {
      "const": {
        "AcquisitionMatrix": [
          104,
          0,
          0,
          104
        ],
        "AngioFlag": "N",
        "BitsAllocated": 16,
        "BitsStored": 16,
        "BodyPartExamined": "BRAIN",
        "Columns": 832,
        "EchoNumbers": 1,
        "EchoTime": 37.0,
        "EchoTrainLength": 104,
        "FlipAngle": 52.0,
        "HighBit": 15,
        "ImageOrientationPatient": [
          0.99972242972304,
          0.02080205613739,
          -0.0110606495794,
          -0.0235597858365,
          0.88270252239204,
          -0.4693412334902
        ],
        "ImagePositionPatient": [
          -813.46873313048,
          -779.90235566217,
          343.59357859741
        ],
        "ImageType": [
          "ORIGINAL",
          "PRIMARY",
          "M",
          "MB",
          "ND",
          "MOSAIC"
        ],
        "ImagedNucleus": "1H",
        "ImagingFrequency": 123.25947,
        "InPlanePhaseEncodingDirection": "COL",
        "MRAcquisitionType": "2D",
        "MagneticFieldStrength": 3.0,
        "Manufacturer": "SIEMENS",
        "ManufacturerModelName": "Prisma_fit",
        "Modality": "MR",
        "NumberOfAverages": 1.0,
        "NumberOfPhaseEncodingSteps": 104,
        "PercentPhaseFieldOfView": 100.0,
        "PercentSampling": 100.0,
        "PerformedProcedureStepStartTime": "093016.736000",
        "PhotometricInterpretation": "MONOCHROME2",
        "PixelBandwidth": 2290.0,
        "PixelRepresentation": 0,
        "PixelSpacing": [
          2.0,
          2.0
        ],
        "ProtocolName": "func_task-life3",
        "RepetitionTime": 1490.0,
        "Rows": 832,
        "SAR": 0.034455919301,
        "SamplesPerPixel": 1,
        "ScanOptions": "FS",
        "ScanningSequence": "EP",
        "SequenceName": "epfid2d1_104",
        "SequenceVariant": [
          "SK",
          "SS"
        ],
        "SeriesDescription": "func_task-life3",
        "SeriesNumber": 11,
        "SeriesTime": "102653.759000",
        "SliceLocation": -62.76683780821,
        "SliceThickness": 2.0,
        "SmallestImagePixelValue": 0,
        "SoftwareVersions": "syngo MR E11",
        "SpacingBetweenSlices": 2.0000000070043,
        "SpecificCharacterSet": "ISO_IR 100",
        "StudyID": "2",
        "StudyTime": "093016.688000",
        "TransmitCoilName": "Body",
        "VariableFlipAngleFlag": "N",
        "WindowCenterWidthExplanation": "Algo1",
        "dBdt": 0.0
      },
      "slices": {}
    },
    "modality": "bold",
    "run_id": 1,
    "session_id": "001",
    "subject_id": "02",
    "task_id": "life03",
    "time": {
      "samples": {
        "AcquisitionNumber": [
          1,
          2,
          3,
          4,
          5,
          6,
          7,
          8,
          9,
          10,
          11,
          12,
          13,
          14,
          15,
          16,
          17,
          18,
          19,
          20,
          21,
          22,
          23,
          24,
          25,
          26,
          27,
          28,
          29,
          30,
          31,
          32,
          33,
          34,
          35,
          36,
          37,
          38,
          39,
          40,
          41,
          42,
          43,
          44,
          45,
          46,
          47,
          48,
          49,
          50,
          51,
          52,
          53,
          54,
          55,
          56,
          57,
          58,
          59,
          60,
          61,
          62,
          63,
          64,
          65,
          66,
          67,
          68,
          69,
          70,
          71,
          72,
          73,
          74,
          75,
          76,
          77,
          78,
          79,
          80,
          81,
          82,
          83,
          84,
          85,
          86,
          87,
          88,
          89,
          90,
          91,
          92,
          93,
          94,
          95,
          96,
          97,
          98,
          99,
          100,
          101,
          102,
          103,
          104,
          105,
          106,
          107,
          108,
          109,
          110,
          111,
          112,
          113,
          114,
          115,
          116,
          117,
          118,
          119,
          120,
          121,
          122,
          123,
          124,
          125,
          126,
          127,
          128,
          129,
          130,
          131,
          132,
          133,
          134,
          135,
          136,
          137,
          138,
          139,
          140,
          141,
          142,
          143,
          144,
          145,
          146,
          147,
          148,
          149,
          150,
          151,
          152,
          153,
          154,
          155,
          156,
          157,
          158,
          159,
          160,
          161,
          162,
          163,
          164,
          165,
          166,
          167,
          168,
          169,
          170,
          171,
          172,
          173,
          174,
          175,
          176,
          177,
          178,
          179,
          180,
          181,
          182,
          183,
          184,
          185,
          186,
          187,
          188,
          189,
          190,
          191,
          192,
          193,
          194,
          195,
          196,
          197,
          198,
          199,
          200,
          201,
          202,
          203,
          204,
          205,
          206,
          207,
          208,
          209,
          210,
          211,
          212,
          213,
          214,
          215,
          216,
          217,
          218,
          219,
          220,
          221,
          222,
          223,
          224,
          225,
          226,
          227,
          228,
          229,
          230,
          231,
          232,
          233,
          234,
          235,
          236,
          237,
          238,
          239,
          240,
          241,
          242,
          243,
          244,
          245,
          246,
          247,
          248,
          249,
          250,
          251,
          252,
          253,
          254,
          255,
          256,
          257,
          258,
          259,
          260,
          261,
          262,
          263,
          264,
          265,
          266,
          267,
          268,
          269,
          270,
          271,
          272,
          273,
          274,
          275,
          276,
          277,
          278,
          279,
          280,
          281,
          282,
          283,
          284,
          285,
          286,
          287,
          288,
          289,
          290,
          291,
          292,
          293,
          294,
          295,
          296,
          297,
          298,
          299,
          300,
          301,
          302,
          303,
          304,
          305,
          306,
          307,
          308,
          309,
          310,
          311,
          312,
          313,
          314,
          315,
          316,
          317,
          318,
          319,
          320,
          321,
          322,
          323,
          324,
          325,
          326,
          327,
          328,
          329,
          330,
          331,
          332,
          333,
          334,
          335,
          336,
          337,
          338,
          339,
          340,
          341,
          342,
          343,
          344,
          345,
          346,
          347,
          348,
          349,
          350,
          351,
          352,
          353,
          354,
          355,
          356,
          357,
          358,
          359,
          360,
          361,
          362,
          363,
          364,
          365,
          366,
          367,
          368,
          369,
          370,
          371,
          372,
          373,
          374,
          375,
          376,
          377,
          378,
          379,
          380,
          381,
          382,
          383,
          384,
          385,
          386,
          387,
          388,
          389,
          390,
          391,
          392,
          393,
          394,
          395,
          396,
          397,
          398,
          399,
          400,
          401,
          402,
          403,
          404,
          405,
          406
        ],
        "AcquisitionTime": [
          "102524.562500",
          "102526.052500",
          "102527.542500",
          "102529.032500",
          "102530.522500",
          "102532.012500",
          "102533.502500",
          "102534.992500",
          "102536.482500",
          "102537.972500",
          "102539.462500",
          "102540.952500",
          "102542.442500",
          "102543.932500",
          "102545.422500",
          "102546.912500",
          "102548.402500",
          "102549.892500",
          "102551.382500",
          "102552.872500",
          "102554.362500",
          "102555.852500",
          "102557.342500",
          "102558.832500",
          "102600.322500",
          "102601.812500",
          "102603.302500",
          "102604.792500",
          "102606.282500",
          "102607.772500",
          "102609.262500",
          "102610.752500",
          "102612.242500",
          "102613.732500",
          "102615.222500",
          "102616.712500",
          "102618.202500",
          "102619.692500",
          "102621.182500",
          "102622.672500",
          "102624.162500",
          "102625.652500",
          "102627.142500",
          "102628.632500",
          "102630.122500",
          "102631.612500",
          "102633.102500",
          "102634.592500",
          "102636.082500",
          "102637.572500",
          "102639.062500",
          "102640.552500",
          "102642.042500",
          "102643.532500",
          "102645.022500",
          "102646.512500",
          "102648.002500",
          "102649.492500",
          "102650.982500",
          "102652.472500",
          "102653.962500",
          "102655.452500",
          "102656.942500",
          "102658.432500",
          "102659.922500",
          "102701.412500",
          "102702.902500",
          "102704.392500",
          "102705.882500",
          "102707.372500",
          "102708.862500",
          "102710.352500",
          "102711.842500",
          "102713.332500",
          "102714.822500",
          "102716.312500",
          "102717.802500",
          "102719.292500",
          "102720.782500",
          "102722.272500",
          "102723.762500",
          "102725.252500",
          "102726.742500",
          "102728.232500",
          "102729.722500",
          "102731.212500",
          "102732.702500",
          "102734.192500",
          "102735.682500",
          "102737.172500",
          "102738.662500",
          "102740.152500",
          "102741.642500",
          "102743.132500",
          "102744.622500",
          "102746.112500",
          "102747.602500",
          "102749.092500",
          "102750.582500",
          "102752.072500",
          "102753.562500",
          "102755.052500",
          "102756.542500",
          "102758.032500",
          "102759.522500",
          "102801.012500",
          "102802.502500",
          "102803.992500",
          "102805.482500",
          "102806.972500",
          "102808.462500",
          "102809.952500",
          "102811.442500",
          "102812.932500",
          "102814.422500",
          "102815.912500",
          "102817.402500",
          "102818.892500",
          "102820.382500",
          "102821.872500",
          "102823.362500",
          "102824.852500",
          "102826.342500",
          "102827.832500",
          "102829.322500",
          "102830.812500",
          "102832.302500",
          "102833.792500",
          "102835.282500",
          "102836.772500",
          "102838.262500",
          "102839.752500",
          "102841.242500",
          "102842.732500",
          "102844.222500",
          "102845.712500",
          "102847.202500",
          "102848.692500",
          "102850.182500",
          "102851.672500",
          "102853.162500",
          "102854.652500",
          "102856.142500",
          "102857.632500",
          "102859.122500",
          "102900.612500",
          "102902.102500",
          "102903.592500",
          "102905.082500",
          "102906.572500",
          "102908.062500",
          "102909.552500",
          "102911.042500",
          "102912.532500",
          "102914.022500",
          "102915.512500",
          "102917.002500",
          "102918.492500",
          "102919.982500",
          "102921.472500",
          "102922.962500",
          "102924.452500",
          "102925.942500",
          "102927.432500",
          "102928.922500",
          "102930.412500",
          "102931.902500",
          "102933.392500",
          "102934.882500",
          "102936.372500",
          "102937.862500",
          "102939.352500",
          "102940.842500",
          "102942.332500",
          "102943.822500",
          "102945.312500",
          "102946.802500",
          "102948.292500",
          "102949.782500",
          "102951.272500",
          "102952.762500",
          "102954.252500",
          "102955.742500",
          "102957.232500",
          "102958.722500",
          "103000.212500",
          "103001.702500",
          "103003.192500",
          "103004.682500",
          "103006.172500",
          "103007.662500",
          "103009.152500",
          "103010.642500",
          "103012.132500",
          "103013.622500",
          "103015.112500",
          "103016.602500",
          "103018.092500",
          "103019.582500",
          "103021.072500",
          "103022.562500",
          "103024.052500",
          "103025.542500",
          "103027.032500",
          "103028.522500",
          "103030.012500",
          "103031.502500",
          "103032.992500",
          "103034.482500",
          "103035.972500",
          "103037.462500",
          "103038.952500",
          "103040.442500",
          "103041.932500",
          "103043.422500",
          "103044.912500",
          "103046.402500",
          "103047.892500",
          "103049.382500",
          "103050.872500",
          "103052.362500",
          "103053.852500",
          "103055.342500",
          "103056.832500",
          "103058.322500",
          "103059.812500",
          "103101.302500",
          "103102.792500",
          "103104.282500",
          "103105.772500",
          "103107.262500",
          "103108.752500",
          "103110.242500",
          "103111.732500",
          "103113.222500",
          "103114.712500",
          "103116.202500",
          "103117.692500",
          "103119.182500",
          "103120.672500",
          "103122.162500",
          "103123.652500",
          "103125.142500",
          "103126.632500",
          "103128.122500",
          "103129.612500",
          "103131.102500",
          "103132.592500",
          "103134.082500",
          "103135.572500",
          "103137.062500",
          "103138.552500",
          "103140.042500",
          "103141.532500",
          "103143.022500",
          "103144.512500",
          "103146.002500",
          "103147.492500",
          "103148.982500",
          "103150.472500",
          "103151.962500",
          "103153.452500",
          "103154.942500",
          "103156.432500",
          "103157.922500",
          "103159.412500",
          "103200.902500",
          "103202.392500",
          "103203.882500",
          "103205.372500",
          "103206.862500",
          "103208.352500",
          "103209.842500",
          "103211.332500",
          "103212.822500",
          "103214.312500",
          "103215.802500",
          "103217.292500",
          "103218.782500",
          "103220.272500",
          "103221.762500",
          "103223.252500",
          "103224.742500",
          "103226.232500",
          "103227.722500",
          "103229.212500",
          "103230.702500",
          "103232.192500",
          "103233.682500",
          "103235.172500",
          "103236.662500",
          "103238.152500",
          "103239.642500",
          "103241.132500",
          "103242.622500",
          "103244.112500",
          "103245.602500",
          "103247.092500",
          "103248.582500",
          "103250.072500",
          "103251.562500",
          "103253.052500",
          "103254.542500",
          "103256.032500",
          "103257.522500",
          "103259.012500",
          "103300.502500",
          "103301.992500",
          "103303.482500",
          "103304.972500",
          "103306.462500",
          "103307.952500",
          "103309.442500",
          "103310.932500",
          "103312.422500",
          "103313.912500",
          "103315.402500",
          "103316.892500",
          "103318.382500",
          "103319.872500",
          "103321.362500",
          "103322.852500",
          "103324.342500",
          "103325.832500",
          "103327.322500",
          "103328.812500",
          "103330.302500",
          "103331.792500",
          "103333.282500",
          "103334.772500",
          "103336.262500",
          "103337.752500",
          "103339.242500",
          "103340.732500",
          "103342.222500",
          "103343.712500",
          "103345.202500",
          "103346.692500",
          "103348.182500",
          "103349.672500",
          "103351.162500",
          "103352.652500",
          "103354.142500",
          "103355.632500",
          "103357.122500",
          "103358.612500",
          "103400.102500",
          "103401.592500",
          "103403.082500",
          "103404.572500",
          "103406.062500",
          "103407.552500",
          "103409.042500",
          "103410.532500",
          "103412.022500",
          "103413.512500",
          "103415.002500",
          "103416.492500",
          "103417.982500",
          "103419.472500",
          "103420.962500",
          "103422.452500",
          "103423.942500",
          "103425.432500",
          "103426.922500",
          "103428.412500",
          "103429.902500",
          "103431.392500",
          "103432.882500",
          "103434.372500",
          "103435.862500",
          "103437.352500",
          "103438.842500",
          "103440.332500",
          "103441.822500",
          "103443.312500",
          "103444.802500",
          "103446.292500",
          "103447.782500",
          "103449.272500",
          "103450.762500",
          "103452.252500",
          "103453.742500",
          "103455.232500",
          "103456.722500",
          "103458.212500",
          "103459.702500",
          "103501.192500",
          "103502.682500",
          "103504.172500",
          "103505.662500",
          "103507.152500",
          "103508.642500",
          "103510.132500",
          "103511.622500",
          "103513.112500",
          "103514.602500",
          "103516.092500",
          "103517.582500",
          "103519.072500",
          "103520.562500",
          "103522.052500",
          "103523.542500",
          "103525.032500",
          "103526.522500",
          "103528.012500"
        ],
        "ContentTime": [
          "102653.762000",
          "102653.766000",
          "102653.776000",
          "102653.779000",
          "102653.782000",
          "102653.785000",
          "102653.788000",
          "102653.790000",
          "102653.793000",
          "102653.796000",
          "102653.799000",
          "102653.802000",
          "102653.805000",
          "102653.808000",
          "102653.811000",
          "102653.813000",
          "102653.816000",
          "102653.819000",
          "102653.822000",
          "102653.825000",
          "102653.828000",
          "102653.831000",
          "102653.833000",
          "102653.836000",
          "102653.839000",
          "102653.842000",
          "102653.845000",
          "102653.848000",
          "102653.855000",
          "102653.858000",
          "102653.860000",
          "102653.863000",
          "102653.866000",
          "102653.869000",
          "102653.872000",
          "102653.882000",
          "102713.733000",
          "102713.736000",
          "102713.739000",
          "102713.742000",
          "102713.744000",
          "102713.747000",
          "102713.750000",
          "102713.759000",
          "102713.762000",
          "102713.765000",
          "102713.768000",
          "102713.771000",
          "102713.774000",
          "102713.777000",
          "102713.780000",
          "102713.783000",
          "102713.786000",
          "102713.789000",
          "102713.791000",
          "102713.794000",
          "102713.797000",
          "102733.734000",
          "102733.737000",
          "102733.740000",
          "102733.743000",
          "102733.746000",
          "102733.749000",
          "102733.752000",
          "102733.755000",
          "102733.758000",
          "102733.761000",
          "102733.763000",
          "102733.766000",
          "102733.770000",
          "102733.772000",
          "102733.775000",
          "102733.778000",
          "102733.781000",
          "102733.784000",
          "102733.786000",
          "102733.789000",
          "102753.734000",
          "102753.737000",
          "102753.740000",
          "102753.743000",
          "102753.746000",
          "102753.749000",
          "102753.751000",
          "102753.754000",
          "102753.757000",
          "102753.760000",
          "102753.763000",
          "102753.766000",
          "102753.769000",
          "102753.772000",
          "102753.775000",
          "102753.777000",
          "102753.780000",
          "102753.783000",
          "102753.786000",
          "102753.789000",
          "102833.734000",
          "102833.737000",
          "102833.740000",
          "102833.743000",
          "102833.746000",
          "102833.755000",
          "102833.758000",
          "102833.761000",
          "102833.764000",
          "102833.768000",
          "102833.771000",
          "102833.774000",
          "102833.777000",
          "102833.780000",
          "102833.783000",
          "102833.785000",
          "102833.788000",
          "102833.791000",
          "102833.794000",
          "102833.797000",
          "102833.800000",
          "102833.803000",
          "102833.806000",
          "102833.809000",
          "102833.812000",
          "102833.815000",
          "102833.818000",
          "102833.821000",
          "102833.824000",
          "102853.733000",
          "102853.736000",
          "102853.739000",
          "102853.753000",
          "102853.756000",
          "102853.759000",
          "102853.762000",
          "102853.765000",
          "102853.768000",
          "102853.771000",
          "102853.774000",
          "102853.777000",
          "102853.780000",
          "102933.733000",
          "102933.736000",
          "102933.739000",
          "102933.742000",
          "102933.745000",
          "102933.748000",
          "102933.750000",
          "102933.753000",
          "102933.756000",
          "102933.759000",
          "102933.762000",
          "102933.765000",
          "102933.768000",
          "102933.771000",
          "102933.774000",
          "102933.777000",
          "102933.779000",
          "102933.782000",
          "102933.785000",
          "102933.788000",
          "102933.791000",
          "102933.794000",
          "102933.797000",
          "102933.800000",
          "102933.803000",
          "102933.805000",
          "102933.808000",
          "103013.734000",
          "103013.737000",
          "103013.740000",
          "103013.743000",
          "103013.746000",
          "103013.748000",
          "103013.751000",
          "103013.754000",
          "103013.757000",
          "103013.760000",
          "103013.763000",
          "103013.766000",
          "103013.769000",
          "103013.772000",
          "103013.775000",
          "103013.777000",
          "103013.780000",
          "103013.783000",
          "103013.786000",
          "103013.789000",
          "103013.792000",
          "103013.795000",
          "103013.797000",
          "103013.800000",
          "103013.803000",
          "103013.806000",
          "103013.809000",
          "103053.734000",
          "103053.737000",
          "103053.740000",
          "103053.743000",
          "103053.746000",
          "103053.749000",
          "103053.755000",
          "103053.758000",
          "103053.761000",
          "103053.764000",
          "103053.767000",
          "103053.770000",
          "103053.773000",
          "103053.775000",
          "103053.778000",
          "103053.781000",
          "103053.784000",
          "103053.788000",
          "103053.790000",
          "103053.793000",
          "103053.796000",
          "103053.799000",
          "103053.804000",
          "103053.807000",
          "103053.811000",
          "103053.814000",
          "103053.817000",
          "103133.733000",
          "103133.736000",
          "103133.739000",
