{
  "aor": 0.0007721234567901233,
  "aqi": 0.012568651111111108,
  "bids_meta": {
    "AcquisitionMatrixPE": 104,
    "AcquisitionNumber": 1,
    "AcquisitionTime": "10:03:51.145000",
    "BandwidthPerPixelPhaseEncode": 17.17,
    "BaseResolution": 104,
    "BodyPartExamined": "BRAIN",
    "CogAtlasID": "trm_4c898da401420",
    "ConsistencyInfo": "N4_VE11C_LATEST_20160120",
    "ConversionSoftware": "dcm2niix",
    "ConversionSoftwareVersion": "v1.0.20171215 (OpenJPEG build) GCC7.3.0",
    "DerivedVendorReportedEchoSpacing": 0.000560011,
    "DeviceSerialNumber": "167006",
    "DwellTime": 2.1e-06,
    "EchoTime": 0.037,
    "EchoTrainLength": 104,
    "EffectiveEchoSpacing": 0.000560011,
    "FlipAngle": 52,
    "ImageComments": "Unaliased_MB4_PE3_LB",
    "ImageOrientationPatientDICOM": [
      0.999722,
      0.0208021,
      -0.0110606,
      -0.0235598,
      0.882703,
      -0.469341
    ],
    "ImageType": [
      "ORIGINAL",
      "PRIMARY",
      "M",
      "MB",
      "ND",
      "MOSAIC"
    ],
    "InPlanePhaseEncodingDirectionDICOM": "COL",
    "InstitutionAddress": "Chemin_Queen-Mary_4565_Montreal_District_CA_H3W_1W5",
    "InstitutionName": "IUGM",
    "InstitutionalDepartmentName": "Department",
    "MRAcquisitionType": "2D",
    "MagneticFieldStrength": 3,
    "Manufacturer": "Siemens",
    "ManufacturersModelName": "Prisma_fit",
    "Modality": "MR",
    "MultibandAccelerationFactor": 4,
    "PartialFourier": 1,
    "PatientPosition": "HFS",
    "PercentPhaseFOV": 100,
    "PhaseEncodingDirection": "j-",
    "PhaseEncodingSteps": 104,
    "PhaseResolution": 1,
    "PixelBandwidth": 2290,
    "ProcedureStepDescription": "video5_generic",
    "ProtocolName": "func_task-life1",
    "PulseSequenceDetails": "%CustomerSeq%_cmrr_mbep2d_bold",
    "ReceiveCoilActiveElements": "HC1-7;NC1,2",
    "ReceiveCoilName": "HeadNeck_64",
    "ReconMatrixPE": 104,
    "RepetitionTime": 1.49,
    "SAR": 0.0344559,
    "ScanOptions": "FS",
    "ScanningSequence": "EP",
    "SequenceName": "epfid2d1_104",
    "SequenceVariant": "SK_SS",
    "SeriesDescription": "func_task-life1",
    "SeriesNumber": 7,
    "ShimSetting": [
      622,
      -7186,
      -8880,
      419,
      -41,
      -212,
      7,
      -19
    ],
    "SliceThickness": 2,
    "SliceTiming": [
      0,
      0.785,
      0.0975,
      0.8825,
      0.195,
      0.98,
      0.295,
      1.0775,
      0.3925,
      1.175,
      0.49,
      1.275,
      0.5875,
      1.3725,
      0.685,
      0,
      0.785,
      0.0975,
      0.8825,
      0.195,
      0.98,
      0.295,
      1.0775,
      0.3925,
      1.175,
      0.49,
      1.275,
      0.5875,
      1.3725,
      0.685,
      0,
      0.785,
      0.0975,
      0.8825,
      0.195,
      0.98,
      0.295,
      1.0775,
      0.3925,
      1.175,
      0.49,
      1.275,
      0.5875,
      1.3725,
      0.685,
      0,
      0.785,
      0.0975,
      0.8825,
      0.195,
      0.98,
      0.295,
      1.0775,
      0.3925,
      1.175,
      0.49,
      1.275,
      0.5875,
      1.3725,
      0.685
    ],
    "SoftwareVersions": "syngo_MR_E11",
    "SpacingBetweenSlices": 2,
    "StationName": "MRC35049",
    "TaskName": "life01",
    "TotalReadoutTime": 0.0576811,
    "TxRefAmp": 246.726,
    "dataset": "<unset>",
    "dcmmeta_affine": [
      [
        -1.999444842338562,
        -0.04711957275867462,
        -1.1927516752052725e-09,
        107.67564392089844
      ],
      [
        -0.04160411283373833,
        1.7654050588607788,
        -0.938943088054657,
        -59.68569564819336
      ],
      [
        -0.02212129905819893,
        0.938682496547699,
        1.7658952474594116,
        -102.82328796386719
      ],
      [
        0.0,
        0.0,
        0.0,
        1.0
      ]
    ],
    "dcmmeta_reorient_transform": [
      [
        0.0,
        -1.0,
        0.0,
        103.0
      ],
      [
        1.0,
        0.0,
        0.0,
        0.0
      ],
      [
        0.0,
        0.0,
        1.0,
        0.0
      ],
      [
        0.0,
        0.0,
        0.0,
        1.0
      ]
    ],
    "dcmmeta_shape": [
      104,
      104,
      60,
      406
    ],
    "dcmmeta_slice_dim": 2,
    "dcmmeta_version": 0.6,
    "global": {
      "const": {
        "AcquisitionMatrix": [
          104,
          0,
          0,
          104
        ],
        "AngioFlag": "N",
        "BitsAllocated": 16,
        "BitsStored": 16,
        "BodyPartExamined": "BRAIN",
        "Columns": 832,
        "EchoNumbers": 1,
        "EchoTime": 37.0,
        "EchoTrainLength": 104,
        "FlipAngle": 52.0,
        "HighBit": 15,
        "ImageOrientationPatient": [
          0.99972242972304,
          0.02080205613739,
          -0.0110606495794,
          -0.0235597858365,
          0.88270252239204,
          -0.4693412334902
        ],
        "ImagePositionPatient": [
          -813.46873313048,
          -779.90235566217,
          343.59357859741
        ],
        "ImageType": [
          "ORIGINAL",
          "PRIMARY",
          "M",
          "MB",
          "ND",
          "MOSAIC"
        ],
        "ImagedNucleus": "1H",
        "ImagingFrequency": 123.259454,
        "InPlanePhaseEncodingDirection": "COL",
        "MRAcquisitionType": "2D",
        "MagneticFieldStrength": 3.0,
        "Manufacturer": "SIEMENS",
        "ManufacturerModelName": "Prisma_fit",
        "Modality": "MR",
        "NumberOfAverages": 1.0,
        "NumberOfPhaseEncodingSteps": 104,
        "PercentPhaseFieldOfView": 100.0,
        "PercentSampling": 100.0,
        "PerformedProcedureStepStartTime": "093016.736000",
        "PhotometricInterpretation": "MONOCHROME2",
        "PixelBandwidth": 2290.0,
        "PixelRepresentation": 0,
        "PixelSpacing": [
          2.0,
          2.0
        ],
        "ProtocolName": "func_task-life1",
        "RepetitionTime": 1490.0,
        "Rows": 832,
        "SAR": 0.034455919301,
        "SamplesPerPixel": 1,
        "ScanOptions": "FS",
        "ScanningSequence": "EP",
        "SequenceName": "epfid2d1_104",
        "SequenceVariant": [
          "SK",
          "SS"
        ],
        "SeriesDescription": "func_task-life1",
        "SeriesNumber": 7,
        "SeriesTime": "100508.206000",
        "SliceLocation": -62.76683780821,
        "SliceThickness": 2.0,
        "SmallestImagePixelValue": 0,
        "SoftwareVersions": "syngo MR E11",
        "SpacingBetweenSlices": 2.0000000070043,
        "SpecificCharacterSet": "ISO_IR 100",
        "StudyID": "2",
        "StudyTime": "093016.688000",
        "TransmitCoilName": "Body",
        "VariableFlipAngleFlag": "N",
        "WindowCenterWidthExplanation": "Algo1",
        "dBdt": 0.0
      },
      "slices": {}
    },
    "modality": "bold",
    "run_id": 1,
    "session_id": "001",
    "subject_id": "02",
    "task_id": "life01",
    "time": {
      "samples": {
        "AcquisitionNumber": [
          1,
          2,
          3,
          4,
          5,
          6,
          7,
          8,
          9,
          10,
          11,
          12,
          13,
          14,
          15,
          16,
          17,
          18,
          19,
          20,
          21,
          22,
          23,
          24,
          25,
          26,
          27,
          28,
          29,
          30,
          31,
          32,
          33,
          34,
          35,
          36,
          37,
          38,
          39,
          40,
          41,
          42,
          43,
          44,
          45,
          46,
          47,
          48,
          49,
          50,
          51,
          52,
          53,
          54,
          55,
          56,
          57,
          58,
          59,
          60,
          61,
          62,
          63,
          64,
          65,
          66,
          67,
          68,
          69,
          70,
          71,
          72,
          73,
          74,
          75,
          76,
          77,
          78,
          79,
          80,
          81,
          82,
          83,
          84,
          85,
          86,
          87,
          88,
          89,
          90,
          91,
          92,
          93,
          94,
          95,
          96,
          97,
          98,
          99,
          100,
          101,
          102,
          103,
          104,
          105,
          106,
          107,
          108,
          109,
          110,
          111,
          112,
          113,
          114,
          115,
          116,
          117,
          118,
          119,
          120,
          121,
          122,
          123,
          124,
          125,
          126,
          127,
          128,
          129,
          130,
          131,
          132,
          133,
          134,
          135,
          136,
          137,
          138,
          139,
          140,
          141,
          142,
          143,
          144,
          145,
          146,
          147,
          148,
          149,
          150,
          151,
          152,
          153,
          154,
          155,
          156,
          157,
          158,
          159,
          160,
          161,
          162,
          163,
          164,
          165,
          166,
          167,
          168,
          169,
          170,
          171,
          172,
          173,
          174,
          175,
          176,
          177,
          178,
          179,
          180,
          181,
          182,
          183,
          184,
          185,
          186,
          187,
          188,
          189,
          190,
          191,
          192,
          193,
          194,
          195,
          196,
          197,
          198,
          199,
          200,
          201,
          202,
          203,
          204,
          205,
          206,
          207,
          208,
          209,
          210,
          211,
          212,
          213,
          214,
          215,
          216,
          217,
          218,
          219,
          220,
          221,
          222,
          223,
          224,
          225,
          226,
          227,
          228,
          229,
          230,
          231,
          232,
          233,
          234,
          235,
          236,
          237,
          238,
          239,
          240,
          241,
          242,
          243,
          244,
          245,
          246,
          247,
          248,
          249,
          250,
          251,
          252,
          253,
          254,
          255,
          256,
          257,
          258,
          259,
          260,
          261,
          262,
          263,
          264,
          265,
          266,
          267,
          268,
          269,
          270,
          271,
          272,
          273,
          274,
          275,
          276,
          277,
          278,
          279,
          280,
          281,
          282,
          283,
          284,
          285,
          286,
          287,
          288,
          289,
          290,
          291,
          292,
          293,
          294,
          295,
          296,
          297,
          298,
          299,
          300,
          301,
          302,
          303,
          304,
          305,
          306,
          307,
          308,
          309,
          310,
          311,
          312,
          313,
          314,
          315,
          316,
          317,
          318,
          319,
          320,
          321,
          322,
          323,
          324,
          325,
          326,
          327,
          328,
          329,
          330,
          331,
          332,
          333,
          334,
          335,
          336,
          337,
          338,
          339,
          340,
          341,
          342,
          343,
          344,
          345,
          346,
          347,
          348,
          349,
          350,
          351,
          352,
          353,
          354,
          355,
          356,
          357,
          358,
          359,
          360,
          361,
          362,
          363,
          364,
          365,
          366,
          367,
          368,
          369,
          370,
          371,
          372,
          373,
          374,
          375,
          376,
          377,
          378,
          379,
          380,
          381,
          382,
          383,
          384,
          385,
          386,
          387,
          388,
          389,
          390,
          391,
          392,
          393,
          394,
          395,
          396,
          397,
          398,
          399,
          400,
          401,
          402,
          403,
          404,
          405,
          406
        ],
        "AcquisitionTime": [
          "100351.145000",
          "100352.635000",
          "100354.125000",
          "100355.615000",
          "100357.105000",
          "100358.595000",
          "100400.085000",
          "100401.575000",
          "100403.065000",
          "100404.555000",
          "100406.045000",
          "100407.535000",
          "100409.025000",
          "100410.515000",
          "100412.005000",
          "100413.495000",
          "100414.985000",
          "100416.475000",
          "100417.965000",
          "100419.455000",
          "100420.945000",
          "100422.435000",
          "100423.925000",
          "100425.415000",
          "100426.905000",
          "100428.395000",
          "100429.885000",
          "100431.375000",
          "100432.865000",
          "100434.355000",
          "100435.845000",
          "100437.335000",
          "100438.825000",
          "100440.315000",
          "100441.805000",
          "100443.295000",
          "100444.785000",
          "100446.275000",
          "100447.765000",
          "100449.255000",
          "100450.745000",
          "100452.235000",
          "100453.725000",
          "100455.215000",
          "100456.705000",
          "100458.195000",
          "100459.685000",
          "100501.175000",
          "100502.665000",
          "100504.155000",
          "100505.645000",
          "100507.135000",
          "100508.625000",
          "100510.115000",
          "100511.605000",
          "100513.095000",
          "100514.585000",
          "100516.075000",
          "100517.565000",
          "100519.055000",
          "100520.545000",
          "100522.035000",
          "100523.525000",
          "100525.015000",
          "100526.505000",
          "100527.995000",
          "100529.485000",
          "100530.975000",
          "100532.465000",
          "100533.955000",
          "100535.445000",
          "100536.935000",
          "100538.425000",
          "100539.915000",
          "100541.405000",
          "100542.895000",
          "100544.385000",
          "100545.875000",
          "100547.365000",
          "100548.855000",
          "100550.345000",
          "100551.835000",
          "100553.325000",
          "100554.815000",
          "100556.305000",
          "100557.795000",
          "100559.285000",
          "100600.775000",
          "100602.265000",
          "100603.755000",
          "100605.245000",
          "100606.735000",
          "100608.225000",
          "100609.715000",
          "100611.205000",
          "100612.695000",
          "100614.185000",
          "100615.675000",
          "100617.165000",
          "100618.655000",
          "100620.145000",
          "100621.635000",
          "100623.125000",
          "100624.615000",
          "100626.105000",
          "100627.595000",
          "100629.085000",
          "100630.575000",
          "100632.065000",
          "100633.555000",
          "100635.045000",
          "100636.535000",
          "100638.025000",
          "100639.515000",
          "100641.005000",
          "100642.495000",
          "100643.985000",
          "100645.475000",
          "100646.965000",
          "100648.455000",
          "100649.945000",
          "100651.435000",
          "100652.925000",
          "100654.415000",
          "100655.905000",
          "100657.395000",
          "100658.885000",
          "100700.375000",
          "100701.865000",
          "100703.355000",
          "100704.845000",
          "100706.335000",
          "100707.825000",
          "100709.315000",
          "100710.805000",
          "100712.295000",
          "100713.785000",
          "100715.275000",
          "100716.765000",
          "100718.255000",
          "100719.745000",
          "100721.235000",
          "100722.725000",
          "100724.215000",
          "100725.705000",
          "100727.195000",
          "100728.685000",
          "100730.175000",
          "100731.665000",
          "100733.155000",
          "100734.645000",
          "100736.135000",
          "100737.625000",
          "100739.115000",
          "100740.605000",
          "100742.095000",
          "100743.585000",
          "100745.075000",
          "100746.565000",
          "100748.055000",
          "100749.545000",
          "100751.035000",
          "100752.525000",
          "100754.015000",
          "100755.505000",
          "100756.995000",
          "100758.485000",
          "100759.975000",
          "100801.465000",
          "100802.955000",
          "100804.445000",
          "100805.935000",
          "100807.425000",
          "100808.915000",
          "100810.405000",
          "100811.895000",
          "100813.385000",
          "100814.875000",
          "100816.365000",
          "100817.855000",
          "100819.345000",
          "100820.835000",
          "100822.325000",
          "100823.815000",
          "100825.305000",
          "100826.795000",
          "100828.285000",
          "100829.775000",
          "100831.265000",
          "100832.755000",
          "100834.245000",
          "100835.735000",
          "100837.225000",
          "100838.715000",
          "100840.205000",
          "100841.695000",
          "100843.185000",
          "100844.675000",
          "100846.165000",
          "100847.655000",
          "100849.145000",
          "100850.635000",
          "100852.125000",
          "100853.615000",
          "100855.105000",
          "100856.595000",
          "100858.085000",
          "100859.575000",
          "100901.065000",
          "100902.555000",
          "100904.045000",
          "100905.535000",
          "100907.025000",
          "100908.515000",
          "100910.005000",
          "100911.495000",
          "100912.985000",
          "100914.475000",
          "100915.965000",
          "100917.455000",
          "100918.945000",
          "100920.435000",
          "100921.925000",
          "100923.415000",
          "100924.905000",
          "100926.395000",
          "100927.885000",
          "100929.375000",
          "100930.865000",
          "100932.355000",
          "100933.845000",
          "100935.335000",
          "100936.825000",
          "100938.315000",
          "100939.805000",
          "100941.295000",
          "100942.785000",
          "100944.275000",
          "100945.765000",
          "100947.255000",
          "100948.745000",
          "100950.235000",
          "100951.725000",
          "100953.215000",
          "100954.705000",
          "100956.195000",
          "100957.685000",
          "100959.175000",
          "101000.665000",
          "101002.155000",
          "101003.645000",
          "101005.135000",
          "101006.625000",
          "101008.115000",
          "101009.605000",
          "101011.095000",
          "101012.585000",
          "101014.075000",
          "101015.565000",
          "101017.055000",
          "101018.545000",
          "101020.035000",
          "101021.525000",
          "101023.015000",
          "101024.505000",
          "101025.995000",
          "101027.485000",
          "101028.975000",
          "101030.465000",
          "101031.955000",
          "101033.445000",
          "101034.935000",
          "101036.425000",
          "101037.915000",
          "101039.405000",
          "101040.895000",
          "101042.385000",
          "101043.875000",
          "101045.365000",
          "101046.855000",
          "101048.345000",
          "101049.835000",
          "101051.325000",
          "101052.815000",
          "101054.305000",
          "101055.795000",
          "101057.285000",
          "101058.775000",
          "101100.265000",
          "101101.755000",
          "101103.245000",
          "101104.735000",
          "101106.225000",
          "101107.715000",
          "101109.205000",
          "101110.695000",
          "101112.185000",
          "101113.675000",
          "101115.165000",
          "101116.655000",
          "101118.145000",
          "101119.635000",
          "101121.125000",
          "101122.615000",
          "101124.105000",
          "101125.595000",
          "101127.085000",
          "101128.575000",
          "101130.065000",
          "101131.555000",
          "101133.045000",
          "101134.535000",
          "101136.025000",
          "101137.515000",
          "101139.005000",
          "101140.495000",
          "101141.985000",
          "101143.475000",
          "101144.965000",
          "101146.455000",
          "101147.945000",
          "101149.435000",
          "101150.925000",
          "101152.415000",
          "101153.905000",
          "101155.395000",
          "101156.885000",
          "101158.375000",
          "101159.865000",
          "101201.355000",
          "101202.845000",
          "101204.335000",
          "101205.825000",
          "101207.315000",
          "101208.805000",
          "101210.295000",
          "101211.785000",
          "101213.275000",
          "101214.765000",
          "101216.255000",
          "101217.745000",
          "101219.235000",
          "101220.725000",
          "101222.215000",
          "101223.705000",
          "101225.195000",
          "101226.685000",
          "101228.175000",
          "101229.665000",
          "101231.155000",
          "101232.645000",
          "101234.135000",
          "101235.625000",
          "101237.115000",
          "101238.605000",
          "101240.095000",
          "101241.585000",
          "101243.075000",
          "101244.565000",
          "101246.055000",
          "101247.545000",
          "101249.035000",
          "101250.525000",
          "101252.015000",
          "101253.505000",
          "101254.995000",
          "101256.485000",
          "101257.975000",
          "101259.465000",
          "101300.955000",
          "101302.445000",
          "101303.935000",
          "101305.425000",
          "101306.915000",
          "101308.405000",
          "101309.895000",
          "101311.385000",
          "101312.875000",
          "101314.365000",
          "101315.855000",
          "101317.345000",
          "101318.835000",
          "101320.325000",
          "101321.815000",
          "101323.305000",
          "101324.795000",
          "101326.285000",
          "101327.775000",
          "101329.265000",
          "101330.755000",
          "101332.245000",
          "101333.735000",
          "101335.225000",
          "101336.715000",
          "101338.205000",
          "101339.695000",
          "101341.185000",
          "101342.675000",
          "101344.165000",
          "101345.655000",
          "101347.145000",
          "101348.635000",
          "101350.125000",
          "101351.615000",
          "101353.105000",
          "101354.595000"
        ],
        "ContentTime": [
          "100508.209000",
          "100508.212000",
          "100508.215000",
          "100508.218000",
          "100508.221000",
          "100508.229000",
          "100508.234000",
          "100508.237000",
          "100508.240000",
          "100508.243000",
          "100508.246000",
          "100508.254000",
          "100508.257000",
          "100508.260000",
          "100508.268000",
          "100508.271000",
          "100508.273000",
          "100508.276000",
          "100508.279000",
          "100508.282000",
          "100508.285000",
          "100508.288000",
          "100528.183000",
          "100528.186000",
          "100528.189000",
          "100528.191000",
          "100528.194000",
          "100528.197000",
          "100528.200000",
          "100528.203000",
          "100528.206000",
          "100528.209000",
          "100528.212000",
          "100528.214000",
          "100528.217000",
          "100528.220000",
          "100528.223000",
          "100528.226000",
          "100528.229000",
          "100528.232000",
          "100528.235000",
          "100528.237000",
          "100548.183000",
          "100548.206000",
          "100548.209000",
          "100548.212000",
          "100548.215000",
          "100548.218000",
          "100548.221000",
          "100548.224000",
          "100548.227000",
          "100548.230000",
          "100548.233000",
          "100548.235000",
          "100548.238000",
          "100548.241000",
          "100548.244000",
          "100548.247000",
          "100548.250000",
          "100548.253000",
          "100548.256000",
          "100548.258000",
          "100548.261000",
          "100608.183000",
          "100608.186000",
          "100608.189000",
          "100608.192000",
          "100608.195000",
          "100608.198000",
          "100608.200000",
          "100608.203000",
          "100608.206000",
          "100608.209000",
          "100608.212000",
          "100608.215000",
          "100608.218000",
          "100608.221000",
          "100608.224000",
          "100608.227000",
          "100608.229000",
          "100608.232000",
          "100608.235000",
          "100608.238000",
          "100628.183000",
          "100628.186000",
          "100628.189000",
          "100628.192000",
          "100628.194000",
          "100628.197000",
          "100628.200000",
          "100628.203000",
          "100628.206000",
          "100628.209000",
          "100628.212000",
          "100628.215000",
          "100628.218000",
          "100628.221000",
          "100628.224000",
          "100628.227000",
          "100628.229000",
          "100628.232000",
          "100628.235000",
          "100628.238000",
          "100708.183000",
          "100708.186000",
          "100708.189000",
          "100708.192000",
          "100708.195000",
          "100708.198000",
          "100708.201000",
          "100708.204000",
          "100708.206000",
          "100708.209000",
          "100708.212000",
          "100708.215000",
          "100708.218000",
          "100708.221000",
          "100708.224000",
          "100708.227000",
          "100708.229000",
          "100708.232000",
          "100708.235000",
          "100708.238000",
          "100708.250000",
          "100708.253000",
          "100708.256000",
          "100708.258000",
          "100708.261000",
          "100708.264000",
          "100708.267000",
          "100708.270000",
          "100748.183000",
          "100748.186000",
          "100748.189000",
          "100748.191000",
          "100748.194000",
          "100748.197000",
          "100748.200000",
          "100748.203000",
          "100748.206000",
          "100748.209000",
          "100748.211000",
          "100748.214000",
          "100748.217000",
          "100748.220000",
          "100748.223000",
          "100748.226000",
          "100748.229000",
          "100748.232000",
          "100748.235000",
          "100748.238000",
          "100748.240000",
          "100748.243000",
          "100748.246000",
          "100748.249000",
          "100748.252000",
          "100748.255000",
          "100748.258000",
          "100828.183000",
          "100828.186000",
          "100828.189000",
          "100828.192000",
          "100828.195000",
          "100828.198000",
          "100828.201000",
          "100828.203000",
          "100828.206000",
          "100828.209000",
          "100828.212000",
          "100828.215000",
          "100828.218000",
          "100828.221000",
          "100828.224000",
          "100828.227000",
          "100828.229000",
          "100828.232000",
          "100828.235000",
          "100828.238000",
          "100828.241000",
          "100828.244000",
          "100828.246000",
          "100828.249000",
          "100828.252000",
          "100828.255000",
          "100828.258000",
          "100848.183000",
          "100848.186000",
          "100848.189000",
          "100848.192000",
          "100848.195000",
          "100848.198000",
          "100848.200000",
          "100848.203000",
          "100848.206000",
          "100848.209000",
          "100848.212000",
          "100848.215000",
          "100848.217000",
          "100928.184000",
          "100928.187000",
          "100928.190000",
          "100928.193000",
          "100928.195000",
          "100928.198000",
          "100928.201000",
          "100928.204000",
          "100928.207000",
          "100928.210000",
          "100928.235000",
          "100928.238000",
          "100928.241000",
          "100928.244000",
          "100928.247000",
          "100928.250000",
          "100928.252000",
          "100928.255000",
          "100928.258000",
          "100928.266000",
          "100928.269000",
          "100928.272000",
          "100928.275000",
          "100928.277000",
          "100928.280000",
