{
  "aor": 0.0003619704433497537,
  "aqi": 0.011547668891625614,
  "bids_meta": {
    "AcquisitionMatrixPE": 104,
    "AcquisitionNumber": 1,
    "AcquisitionTime": "14:47:27.635000",
    "BandwidthPerPixelPhaseEncode": 17.17,
    "BaseResolution": 104,
    "BodyPartExamined": "BRAIN",
    "CogAtlasID": "trm_4c898da401420",
    "ConsistencyInfo": "N4_VE11C_LATEST_20160120",
    "ConversionSoftware": "dcm2niix",
    "ConversionSoftwareVersion": "v1.0.20171215 (OpenJPEG build) GCC7.3.0",
    "DerivedVendorReportedEchoSpacing": 0.000560011,
    "DeviceSerialNumber": "167006",
    "DwellTime": 2.1e-06,
    "EchoTime": 0.037,
    "EchoTrainLength": 104,
    "EffectiveEchoSpacing": 0.000560011,
    "FlipAngle": 52,
    "ImageComments": "Unaliased_MB4_PE3_LB",
    "ImageOrientationPatientDICOM": [
      0.994449,
      0.104825,
      0.00911116,
      -0.099084,
      0.962076,
      -0.25415
    ],
    "ImageType": [
      "ORIGINAL",
      "PRIMARY",
      "M",
      "MB",
      "ND",
      "MOSAIC"
    ],
    "InPlanePhaseEncodingDirectionDICOM": "COL",
    "InstitutionAddress": "Chemin_Queen-Mary_4565_Montreal_District_CA_H3W_1W5",
    "InstitutionName": "IUGM",
    "InstitutionalDepartmentName": "Department",
    "MRAcquisitionType": "2D",
    "MagneticFieldStrength": 3,
    "Manufacturer": "Siemens",
    "ManufacturersModelName": "Prisma_fit",
    "Modality": "MR",
    "MultibandAccelerationFactor": 4,
    "PartialFourier": 1,
    "PatientPosition": "HFS",
    "PercentPhaseFOV": 100,
    "PhaseEncodingDirection": "j-",
    "PhaseEncodingSteps": 104,
    "PhaseResolution": 1,
    "PixelBandwidth": 2290,
    "ProcedureStepDescription": "video5_generic",
    "ProtocolName": "func_task-life5",
    "PulseSequenceDetails": "%CustomerSeq%_cmrr_mbep2d_bold",
    "ReceiveCoilActiveElements": "HC1-7;NC1,2",
    "ReceiveCoilName": "HeadNeck_64",
    "ReconMatrixPE": 104,
    "RepetitionTime": 1.49,
    "SAR": 0.0391703,
    "ScanOptions": "FS",
    "ScanningSequence": "EP",
    "SequenceName": "epfid2d1_104",
    "SequenceVariant": "SK_SS",
    "SeriesDescription": "func_task-life5",
    "SeriesNumber": 11,
    "ShimSetting": [
      640,
      -7192,
      -8813,
      699,
      108,
      14,
      -37,
      -13
    ],
    "SliceThickness": 2,
    "SliceTiming": [
      0,
      0.7825,
      0.0975,
      0.88,
      0.195,
      0.9775,
      0.2925,
      1.0775,
      0.39,
      1.175,
      0.49,
      1.2725,
      0.5875,
      1.37,
      0.685,
      0,
      0.7825,
      0.0975,
      0.88,
      0.195,
      0.9775,
      0.2925,
      1.0775,
      0.39,
      1.175,
      0.49,
      1.2725,
      0.5875,
      1.37,
      0.685,
      0,
      0.7825,
      0.0975,
      0.88,
      0.195,
      0.9775,
      0.2925,
      1.0775,
      0.39,
      1.175,
      0.49,
      1.2725,
      0.5875,
      1.37,
      0.685,
      0,
      0.7825,
      0.0975,
      0.88,
      0.195,
      0.9775,
      0.2925,
      1.0775,
      0.39,
      1.175,
      0.49,
      1.2725,
      0.5875,
      1.37,
      0.685
    ],
    "SoftwareVersions": "syngo_MR_E11",
    "SpacingBetweenSlices": 2,
    "StationName": "MRC35049",
    "TaskName": "life05",
    "TotalReadoutTime": 0.0576811,
    "TxRefAmp": 252.315,
    "dataset": "<unset>",
    "dcmmeta_affine": [
      [
        -1.9888979196548462,
        -0.19816790521144867,
        0.07081368565559387,
        111.83626556396484
      ],
      [
        -0.20964981615543365,
        1.924152135848999,
        -0.5036722421646118,
        -58.72578048706055
      ],
      [
        0.01822231337428093,
        0.5082993507385254,
        1.9342440366744995,
        -55.6246223449707
      ],
      [
        0.0,
        0.0,
        0.0,
        1.0
      ]
    ],
    "dcmmeta_reorient_transform": [
      [
        0.0,
        -1.0,
        0.0,
        103.0
      ],
      [
        1.0,
        0.0,
        0.0,
        0.0
      ],
      [
        0.0,
        0.0,
        1.0,
        0.0
      ],
      [
        0.0,
        0.0,
        0.0,
        1.0
      ]
    ],
    "dcmmeta_shape": [
      104,
      104,
      60,
      406
    ],
    "dcmmeta_slice_dim": 2,
    "dcmmeta_version": 0.6,
    "global": {
      "const": {
        "AcquisitionMatrix": [
          104,
          0,
          0,
          104
        ],
        "AngioFlag": "N",
        "BitsAllocated": 16,
        "BitsStored": 16,
        "BodyPartExamined": "BRAIN",
        "Columns": 832,
        "EchoNumbers": 1,
        "EchoTime": 37.0,
        "EchoTrainLength": 104,
        "FlipAngle": 52.0,
        "HighBit": 15,
        "ImageOrientationPatient": [
          0.99444895559895,
          0.10482490896413,
          0.00911115628347,
          -0.0990839551917,
          0.96207603970784,
          -0.254149687475
        ],
        "ImagePositionPatient": [
          -743.25069325447,
          -916.16577592533,
          175.11826232759
        ],
        "ImageType": [
          "ORIGINAL",
          "PRIMARY",
          "M",
          "MB",
          "ND",
          "MOSAIC"
        ],
        "ImagedNucleus": "1H",
        "ImagingFrequency": 123.259432,
        "InPlanePhaseEncodingDirection": "COL",
        "MRAcquisitionType": "2D",
        "MagneticFieldStrength": 3.0,
        "Manufacturer": "SIEMENS",
        "ManufacturerModelName": "Prisma_fit",
        "Modality": "MR",
        "NumberOfAverages": 1.0,
        "NumberOfPhaseEncodingSteps": 104,
        "PercentPhaseFieldOfView": 100.0,
        "PercentSampling": 100.0,
        "PerformedProcedureStepStartTime": "142304.500000",
        "PhotometricInterpretation": "MONOCHROME2",
        "PixelBandwidth": 2290.0,
        "PixelRepresentation": 0,
        "PixelSpacing": [
          2.0,
          2.0
        ],
        "ProtocolName": "func_task-life5",
        "RepetitionTime": 1490.0,
        "Rows": 832,
        "SAR": 0.03917025956047,
        "SamplesPerPixel": 1,
        "ScanOptions": "FS",
        "ScanningSequence": "EP",
        "SequenceName": "epfid2d1_104",
        "SequenceVariant": [
          "SK",
          "SS"
        ],
        "SeriesDescription": "func_task-life5",
        "SeriesNumber": 11,
        "SeriesTime": "144850.735000",
        "SliceLocation": -35.046754887203,
        "SliceThickness": 2.0,
        "SmallestImagePixelValue": 0,
        "SoftwareVersions": "syngo MR E11",
        "SpacingBetweenSlices": 2.0000000339587,
        "SpecificCharacterSet": "ISO_IR 100",
        "StudyID": "1",
        "StudyTime": "142304.443000",
        "TransmitCoilName": "Body",
        "VariableFlipAngleFlag": "N",
        "WindowCenterWidthExplanation": "Algo1",
        "dBdt": 0.0
      },
      "slices": {}
    },
    "modality": "bold",
    "run_id": 1,
    "session_id": "007",
    "subject_id": "01",
    "task_id": "life05",
    "time": {
      "samples": {
        "AcquisitionNumber": [
          1,
          2,
          3,
          4,
          5,
          6,
          7,
          8,
          9,
          10,
          11,
          12,
          13,
          14,
          15,
          16,
          17,
          18,
          19,
          20,
          21,
          22,
          23,
          24,
          25,
          26,
          27,
          28,
          29,
          30,
          31,
          32,
          33,
          34,
          35,
          36,
          37,
          38,
          39,
          40,
          41,
          42,
          43,
          44,
          45,
          46,
          47,
          48,
          49,
          50,
          51,
          52,
          53,
          54,
          55,
          56,
          57,
          58,
          59,
          60,
          61,
          62,
          63,
          64,
          65,
          66,
          67,
          68,
          69,
          70,
          71,
          72,
          73,
          74,
          75,
          76,
          77,
          78,
          79,
          80,
          81,
          82,
          83,
          84,
          85,
          86,
          87,
          88,
          89,
          90,
          91,
          92,
          93,
          94,
          95,
          96,
          97,
          98,
          99,
          100,
          101,
          102,
          103,
          104,
          105,
          106,
          107,
          108,
          109,
          110,
          111,
          112,
          113,
          114,
          115,
          116,
          117,
          118,
          119,
          120,
          121,
          122,
          123,
          124,
          125,
          126,
          127,
          128,
          129,
          130,
          131,
          132,
          133,
          134,
          135,
          136,
          137,
          138,
          139,
          140,
          141,
          142,
          143,
          144,
          145,
          146,
          147,
          148,
          149,
          150,
          151,
          152,
          153,
          154,
          155,
          156,
          157,
          158,
          159,
          160,
          161,
          162,
          163,
          164,
          165,
          166,
          167,
          168,
          169,
          170,
          171,
          172,
          173,
          174,
          175,
          176,
          177,
          178,
          179,
          180,
          181,
          182,
          183,
          184,
          185,
          186,
          187,
          188,
          189,
          190,
          191,
          192,
          193,
          194,
          195,
          196,
          197,
          198,
          199,
          200,
          201,
          202,
          203,
          204,
          205,
          206,
          207,
          208,
          209,
          210,
          211,
          212,
          213,
          214,
          215,
          216,
          217,
          218,
          219,
          220,
          221,
          222,
          223,
          224,
          225,
          226,
          227,
          228,
          229,
          230,
          231,
          232,
          233,
          234,
          235,
          236,
          237,
          238,
          239,
          240,
          241,
          242,
          243,
          244,
          245,
          246,
          247,
          248,
          249,
          250,
          251,
          252,
          253,
          254,
          255,
          256,
          257,
          258,
          259,
          260,
          261,
          262,
          263,
          264,
          265,
          266,
          267,
          268,
          269,
          270,
          271,
          272,
          273,
          274,
          275,
          276,
          277,
          278,
          279,
          280,
          281,
          282,
          283,
          284,
          285,
          286,
          287,
          288,
          289,
          290,
          291,
          292,
          293,
          294,
          295,
          296,
          297,
          298,
          299,
          300,
          301,
          302,
          303,
          304,
          305,
          306,
          307,
          308,
          309,
          310,
          311,
          312,
          313,
          314,
          315,
          316,
          317,
          318,
          319,
          320,
          321,
          322,
          323,
          324,
          325,
          326,
          327,
          328,
          329,
          330,
          331,
          332,
          333,
          334,
          335,
          336,
          337,
          338,
          339,
          340,
          341,
          342,
          343,
          344,
          345,
          346,
          347,
          348,
          349,
          350,
          351,
          352,
          353,
          354,
          355,
          356,
          357,
          358,
          359,
          360,
          361,
          362,
          363,
          364,
          365,
          366,
          367,
          368,
          369,
          370,
          371,
          372,
          373,
          374,
          375,
          376,
          377,
          378,
          379,
          380,
          381,
          382,
          383,
          384,
          385,
          386,
          387,
          388,
          389,
          390,
          391,
          392,
          393,
          394,
          395,
          396,
          397,
          398,
          399,
          400,
          401,
          402,
          403,
          404,
          405,
          406
        ],
        "AcquisitionTime": [
          "144727.635000",
          "144729.125000",
          "144730.615000",
          "144732.105000",
          "144733.595000",
          "144735.085000",
          "144736.575000",
          "144738.065000",
          "144739.555000",
          "144741.045000",
          "144742.535000",
          "144744.025000",
          "144745.515000",
          "144747.005000",
          "144748.495000",
          "144749.985000",
          "144751.475000",
          "144752.965000",
          "144754.455000",
          "144755.945000",
          "144757.435000",
          "144758.925000",
          "144800.415000",
          "144801.905000",
          "144803.395000",
          "144804.885000",
          "144806.375000",
          "144807.865000",
          "144809.355000",
          "144810.845000",
          "144812.335000",
          "144813.825000",
          "144815.315000",
          "144816.805000",
          "144818.295000",
          "144819.785000",
          "144821.275000",
          "144822.765000",
          "144824.255000",
          "144825.745000",
          "144827.235000",
          "144828.725000",
          "144830.215000",
          "144831.705000",
          "144833.195000",
          "144834.685000",
          "144836.175000",
          "144837.665000",
          "144839.155000",
          "144840.645000",
          "144842.135000",
          "144843.625000",
          "144845.115000",
          "144846.605000",
          "144848.095000",
          "144849.585000",
          "144851.075000",
          "144852.565000",
          "144854.055000",
          "144855.545000",
          "144857.035000",
          "144858.525000",
          "144900.015000",
          "144901.505000",
          "144902.995000",
          "144904.485000",
          "144905.975000",
          "144907.465000",
          "144908.955000",
          "144910.445000",
          "144911.935000",
          "144913.425000",
          "144914.915000",
          "144916.405000",
          "144917.895000",
          "144919.385000",
          "144920.875000",
          "144922.365000",
          "144923.855000",
          "144925.345000",
          "144926.835000",
          "144928.325000",
          "144929.815000",
          "144931.305000",
          "144932.795000",
          "144934.285000",
          "144935.775000",
          "144937.265000",
          "144938.755000",
          "144940.245000",
          "144941.735000",
          "144943.225000",
          "144944.715000",
          "144946.205000",
          "144947.695000",
          "144949.185000",
          "144950.675000",
          "144952.165000",
          "144953.655000",
          "144955.145000",
          "144956.635000",
          "144958.125000",
          "144959.615000",
          "145001.105000",
          "145002.595000",
          "145004.085000",
          "145005.575000",
          "145007.065000",
          "145008.555000",
          "145010.045000",
          "145011.535000",
          "145013.025000",
          "145014.515000",
          "145016.005000",
          "145017.495000",
          "145018.985000",
          "145020.475000",
          "145021.965000",
          "145023.455000",
          "145024.945000",
          "145026.435000",
          "145027.925000",
          "145029.415000",
          "145030.905000",
          "145032.395000",
          "145033.885000",
          "145035.375000",
          "145036.865000",
          "145038.355000",
          "145039.845000",
          "145041.335000",
          "145042.825000",
          "145044.315000",
          "145045.805000",
          "145047.295000",
          "145048.785000",
          "145050.275000",
          "145051.765000",
          "145053.255000",
          "145054.745000",
          "145056.235000",
          "145057.725000",
          "145059.215000",
          "145100.705000",
          "145102.195000",
          "145103.685000",
          "145105.175000",
          "145106.665000",
          "145108.155000",
          "145109.645000",
          "145111.135000",
          "145112.625000",
          "145114.115000",
          "145115.605000",
          "145117.095000",
          "145118.585000",
          "145120.075000",
          "145121.565000",
          "145123.055000",
          "145124.545000",
          "145126.035000",
          "145127.525000",
          "145129.015000",
          "145130.505000",
          "145131.995000",
          "145133.485000",
          "145134.975000",
          "145136.465000",
          "145137.955000",
          "145139.445000",
          "145140.935000",
          "145142.425000",
          "145143.915000",
          "145145.405000",
          "145146.895000",
          "145148.385000",
          "145149.875000",
          "145151.365000",
          "145152.855000",
          "145154.345000",
          "145155.835000",
          "145157.325000",
          "145158.815000",
          "145200.305000",
          "145201.795000",
          "145203.285000",
          "145204.775000",
          "145206.265000",
          "145207.755000",
          "145209.245000",
          "145210.735000",
          "145212.225000",
          "145213.715000",
          "145215.205000",
          "145216.695000",
          "145218.185000",
          "145219.675000",
          "145221.165000",
          "145222.655000",
          "145224.145000",
          "145225.635000",
          "145227.125000",
          "145228.615000",
          "145230.105000",
          "145231.595000",
          "145233.085000",
          "145234.575000",
          "145236.065000",
          "145237.555000",
          "145239.045000",
          "145240.535000",
          "145242.025000",
          "145243.515000",
          "145245.005000",
          "145246.495000",
          "145247.985000",
          "145249.475000",
          "145250.965000",
          "145252.455000",
          "145253.945000",
          "145255.435000",
          "145256.925000",
          "145258.415000",
          "145259.905000",
          "145301.395000",
          "145302.885000",
          "145304.375000",
          "145305.865000",
          "145307.355000",
          "145308.845000",
          "145310.335000",
          "145311.825000",
          "145313.315000",
          "145314.805000",
          "145316.295000",
          "145317.785000",
          "145319.275000",
          "145320.765000",
          "145322.255000",
          "145323.745000",
          "145325.235000",
          "145326.725000",
          "145328.215000",
          "145329.705000",
          "145331.195000",
          "145332.685000",
          "145334.175000",
          "145335.665000",
          "145337.155000",
          "145338.645000",
          "145340.135000",
          "145341.625000",
          "145343.115000",
          "145344.605000",
          "145346.095000",
          "145347.585000",
          "145349.075000",
          "145350.565000",
          "145352.055000",
          "145353.545000",
          "145355.035000",
          "145356.525000",
          "145358.015000",
          "145359.505000",
          "145400.995000",
          "145402.485000",
          "145403.975000",
          "145405.465000",
          "145406.955000",
          "145408.445000",
          "145409.935000",
          "145411.425000",
          "145412.915000",
          "145414.405000",
          "145415.895000",
          "145417.385000",
          "145418.875000",
          "145420.365000",
          "145421.855000",
          "145423.345000",
          "145424.835000",
          "145426.325000",
          "145427.815000",
          "145429.305000",
          "145430.795000",
          "145432.285000",
          "145433.775000",
          "145435.265000",
          "145436.755000",
          "145438.245000",
          "145439.735000",
          "145441.225000",
          "145442.715000",
          "145444.205000",
          "145445.695000",
          "145447.185000",
          "145448.675000",
          "145450.165000",
          "145451.655000",
          "145453.145000",
          "145454.635000",
          "145456.125000",
          "145457.615000",
          "145459.105000",
          "145500.595000",
          "145502.085000",
          "145503.575000",
          "145505.065000",
          "145506.555000",
          "145508.045000",
          "145509.535000",
          "145511.025000",
          "145512.515000",
          "145514.005000",
          "145515.495000",
          "145516.985000",
          "145518.475000",
          "145519.965000",
          "145521.455000",
          "145522.945000",
          "145524.435000",
          "145525.925000",
          "145527.415000",
          "145528.905000",
          "145530.395000",
          "145531.885000",
          "145533.375000",
          "145534.865000",
          "145536.355000",
          "145537.845000",
          "145539.335000",
          "145540.825000",
          "145542.315000",
          "145543.805000",
          "145545.295000",
          "145546.785000",
          "145548.275000",
          "145549.765000",
          "145551.255000",
          "145552.745000",
          "145554.235000",
          "145555.725000",
          "145557.215000",
          "145558.705000",
          "145600.195000",
          "145601.685000",
          "145603.175000",
          "145604.665000",
          "145606.155000",
          "145607.645000",
          "145609.135000",
          "145610.625000",
          "145612.115000",
          "145613.605000",
          "145615.095000",
          "145616.585000",
          "145618.075000",
          "145619.565000",
          "145621.055000",
          "145622.545000",
          "145624.035000",
          "145625.525000",
          "145627.015000",
          "145628.505000",
          "145629.995000",
          "145631.485000",
          "145632.975000",
          "145634.465000",
          "145635.955000",
          "145637.445000",
          "145638.935000",
          "145640.425000",
          "145641.915000",
          "145643.405000",
          "145644.895000",
          "145646.385000",
          "145647.875000",
          "145649.365000",
          "145650.855000",
          "145652.345000",
          "145653.835000",
          "145655.325000",
          "145656.815000",
          "145658.305000",
          "145659.795000",
          "145701.285000",
          "145702.775000",
          "145704.265000",
          "145705.755000",
          "145707.245000",
          "145708.735000",
          "145710.225000",
          "145711.715000",
          "145713.205000",
          "145714.695000",
          "145716.185000",
          "145717.675000",
          "145719.165000",
          "145720.655000",
          "145722.145000",
          "145723.635000",
          "145725.125000",
          "145726.615000",
          "145728.105000",
          "145729.595000",
          "145731.085000"
        ],
        "ContentTime": [
          "144850.738000",
          "144850.741000",
          "144850.744000",
          "144850.747000",
          "144850.750000",
          "144850.756000",
          "144850.759000",
          "144850.762000",
          "144850.765000",
          "144850.768000",
          "144850.771000",
          "144850.773000",
          "144850.776000",
          "144850.779000",
          "144850.782000",
          "144850.785000",
          "144850.788000",
          "144850.791000",
          "144850.794000",
          "144850.797000",
          "144850.803000",
          "144850.806000",
          "144850.809000",
          "144850.812000",
          "144850.815000",
          "144850.818000",
          "144850.820000",
          "144850.823000",
          "144850.826000",
          "144850.829000",
          "144910.700000",
          "144910.703000",
          "144910.707000",
          "144910.710000",
          "144910.713000",
          "144910.716000",
          "144910.719000",
          "144910.722000",
          "144910.725000",
          "144910.728000",
          "144910.731000",
          "144910.733000",
          "144910.736000",
          "144910.739000",
          "144910.742000",
          "144910.745000",
          "144910.748000",
          "144910.751000",
          "144910.754000",
          "144910.757000",
          "144930.701000",
          "144930.704000",
          "144930.707000",
          "144930.710000",
          "144930.713000",
          "144930.716000",
          "144930.719000",
          "144930.722000",
          "144930.724000",
          "144930.727000",
          "144930.730000",
          "144930.733000",
          "144930.736000",
          "144930.739000",
          "144930.742000",
          "144930.745000",
          "144930.748000",
          "144930.751000",
          "144930.754000",
          "144930.757000",
          "144950.700000",
          "144950.703000",
          "144950.706000",
          "144950.709000",
          "144950.712000",
          "144950.714000",
          "144950.717000",
          "144950.720000",
          "144950.723000",
          "144950.726000",
          "144950.729000",
          "144950.732000",
          "144950.737000",
          "144950.740000",
          "144950.743000",
          "144950.746000",
          "144950.748000",
          "144950.751000",
          "144950.754000",
          "144950.757000",
          "145030.713000",
          "145030.716000",
          "145030.719000",
          "145030.722000",
          "145030.725000",
          "145030.728000",
          "145030.731000",
          "145030.734000",
          "145030.737000",
          "145030.739000",
          "145030.742000",
          "145030.745000",
          "145030.748000",
          "145030.751000",
          "145030.754000",
          "145030.757000",
          "145030.760000",
          "145030.763000",
          "145030.766000",
          "145030.769000",
          "145030.772000",
          "145030.775000",
          "145030.778000",
          "145030.781000",
          "145030.783000",
          "145030.786000",
          "145030.789000",
          "145030.792000",
          "145030.800000",
          "145030.803000",
          "145030.806000",
          "145030.809000",
          "145110.700000",
          "145110.703000",
          "145110.706000",
          "145110.709000",
          "145110.712000",
          "145110.715000",
          "145110.718000",
          "145110.721000",
          "145110.724000",
          "145110.726000",
          "145110.729000",
          "145110.732000",
          "145110.735000",
          "145110.738000",
          "145110.741000",
          "145110.744000",
          "145110.747000",
          "145110.750000",
          "145110.752000",
          "145110.755000",
          "145110.758000",
          "145110.761000",
          "145110.764000",
          "145110.767000",
          "145110.770000",
          "145110.773000",
          "145110.776000",
          "145150.700000",
          "145150.703000",
          "145150.714000",
          "145150.716000",
          "145150.719000",
          "145150.722000",
          "145150.725000",
          "145150.728000",
          "145150.731000",
          "145150.734000",
          "145150.737000",
          "145150.740000",
          "145150.743000",
          "145150.746000",
          "145150.749000",
          "145150.752000",
          "145150.755000",
          "145150.759000",
          "145150.762000",
          "145150.765000",
          "145150.768000",
          "145150.771000",
          "145150.774000",
          "145150.777000",
          "145150.780000",
          "145150.783000",
          "145230.700000",
          "145230.703000",
          "145230.706000",
          "145230.709000",
          "145230.712000",
          "145230.715000",
          "145230.718000",
          "145230.721000",
          "145230.724000",
          "145230.727000",
          "145230.730000",
          "145230.733000",
          "145230.735000",
          "145230.738000",
          "145230.741000",
          "145230.744000",
          "145230.747000",
          "145230.750000",
          "145230.753000",
          "145230.756000",
          "145230.759000",
          "145230.762000",
          "145230.764000",
          "145230.767000",
          "145230.770000",
          "145230.773000",
          "145230.776000",
          "145310.700000",
          "145310.703000",
          "145310.706000",
          "145310.709000",
          "145310.712000",
          "145310.715000",
          "145310.718000",
          "145310.721000",
          "145310.724000",
          "145310.727000",
          "145310.729000",
          "145310.732000",
          "145310.735000",
          "145310.738000",
          "145310.741000",
          "145310.744000",
          "145310.747000",
          "145310.750000",
          "145310.753000",
          "145310.756000",
          "145310.759000",
