{
  "aor": 0.0006504926108374384,
  "aqi": 0.013773958078817733,
  "bids_meta": {
    "AcquisitionMatrixPE": 104,
    "AcquisitionNumber": 1,
    "AcquisitionTime": "14:36:28.440000",
    "BandwidthPerPixelPhaseEncode": 17.17,
    "BaseResolution": 104,
    "BodyPartExamined": "BRAIN",
    "CogAtlasID": "trm_4c898da401420",
    "ConsistencyInfo": "N4_VE11C_LATEST_20160120",
    "ConversionSoftware": "dcm2niix",
    "ConversionSoftwareVersion": "v1.0.20171215 (OpenJPEG build) GCC7.3.0",
    "DerivedVendorReportedEchoSpacing": 0.000560011,
    "DeviceSerialNumber": "167006",
    "DwellTime": 2.1e-06,
    "EchoTime": 0.037,
    "EchoTrainLength": 104,
    "EffectiveEchoSpacing": 0.000560011,
    "FlipAngle": 52,
    "ImageComments": "Unaliased_MB4_PE3_LB",
    "ImageOrientationPatientDICOM": [
      0.994449,
      0.104825,
      0.00911116,
      -0.099084,
      0.962076,
      -0.25415
    ],
    "ImageType": [
      "ORIGINAL",
      "PRIMARY",
      "M",
      "MB",
      "ND",
      "MOSAIC"
    ],
    "InPlanePhaseEncodingDirectionDICOM": "COL",
    "InstitutionAddress": "Chemin_Queen-Mary_4565_Montreal_District_CA_H3W_1W5",
    "InstitutionName": "IUGM",
    "InstitutionalDepartmentName": "Department",
    "MRAcquisitionType": "2D",
    "MagneticFieldStrength": 3,
    "Manufacturer": "Siemens",
    "ManufacturersModelName": "Prisma_fit",
    "Modality": "MR",
    "MultibandAccelerationFactor": 4,
    "PartialFourier": 1,
    "PatientPosition": "HFS",
    "PercentPhaseFOV": 100,
    "PhaseEncodingDirection": "j-",
    "PhaseEncodingSteps": 104,
    "PhaseResolution": 1,
    "PixelBandwidth": 2290,
    "ProcedureStepDescription": "video5_generic",
    "ProtocolName": "func_task-life4",
    "PulseSequenceDetails": "%CustomerSeq%_cmrr_mbep2d_bold",
    "ReceiveCoilActiveElements": "HC1-7;NC1,2",
    "ReceiveCoilName": "HeadNeck_64",
    "ReconMatrixPE": 104,
    "RepetitionTime": 1.49,
    "SAR": 0.0391703,
    "ScanOptions": "FS",
    "ScanningSequence": "EP",
    "SequenceName": "epfid2d1_104",
    "SequenceVariant": "SK_SS",
    "SeriesDescription": "func_task-life4",
    "SeriesNumber": 9,
    "ShimSetting": [
      640,
      -7192,
      -8813,
      699,
      108,
      14,
      -37,
      -13
    ],
    "SliceThickness": 2,
    "SliceTiming": [
      0,
      0.785,
      0.0975,
      0.8825,
      0.1975,
      0.98,
      0.295,
      1.0775,
      0.3925,
      1.1775,
      0.49,
      1.275,
      0.5875,
      1.3725,
      0.6875,
      0,
      0.785,
      0.0975,
      0.8825,
      0.1975,
      0.98,
      0.295,
      1.0775,
      0.3925,
      1.1775,
      0.49,
      1.275,
      0.5875,
      1.3725,
      0.6875,
      0,
      0.785,
      0.0975,
      0.8825,
      0.1975,
      0.98,
      0.295,
      1.0775,
      0.3925,
      1.1775,
      0.49,
      1.275,
      0.5875,
      1.3725,
      0.6875,
      0,
      0.785,
      0.0975,
      0.8825,
      0.1975,
      0.98,
      0.295,
      1.0775,
      0.3925,
      1.1775,
      0.49,
      1.275,
      0.5875,
      1.3725,
      0.6875
    ],
    "SoftwareVersions": "syngo_MR_E11",
    "SpacingBetweenSlices": 2,
    "StationName": "MRC35049",
    "TaskName": "life04",
    "TotalReadoutTime": 0.0576811,
    "TxRefAmp": 252.315,
    "dataset": "<unset>",
    "dcmmeta_affine": [
      [
        -1.9888979196548462,
        -0.19816790521144867,
        0.07081368565559387,
        111.83626556396484
      ],
      [
        -0.20964981615543365,
        1.924152135848999,
        -0.5036722421646118,
        -58.72578048706055
      ],
      [
        0.01822231337428093,
        0.5082993507385254,
        1.9342440366744995,
        -55.6246223449707
      ],
      [
        0.0,
        0.0,
        0.0,
        1.0
      ]
    ],
    "dcmmeta_reorient_transform": [
      [
        0.0,
        -1.0,
        0.0,
        103.0
      ],
      [
        1.0,
        0.0,
        0.0,
        0.0
      ],
      [
        0.0,
        0.0,
        1.0,
        0.0
      ],
      [
        0.0,
        0.0,
        0.0,
        1.0
      ]
    ],
    "dcmmeta_shape": [
      104,
      104,
      60,
      406
    ],
    "dcmmeta_slice_dim": 2,
    "dcmmeta_version": 0.6,
    "global": {
      "const": {
        "AcquisitionMatrix": [
          104,
          0,
          0,
          104
        ],
        "AngioFlag": "N",
        "BitsAllocated": 16,
        "BitsStored": 16,
        "BodyPartExamined": "BRAIN",
        "Columns": 832,
        "EchoNumbers": 1,
        "EchoTime": 37.0,
        "EchoTrainLength": 104,
        "FlipAngle": 52.0,
        "HighBit": 15,
        "ImageOrientationPatient": [
          0.99444895559895,
          0.10482490896413,
          0.00911115628347,
          -0.0990839551917,
          0.96207603970784,
          -0.254149687475
        ],
        "ImagePositionPatient": [
          -743.25069325447,
          -916.16577592533,
          175.11826232759
        ],
        "ImageType": [
          "ORIGINAL",
          "PRIMARY",
          "M",
          "MB",
          "ND",
          "MOSAIC"
        ],
        "ImagedNucleus": "1H",
        "ImagingFrequency": 123.259426,
        "InPlanePhaseEncodingDirection": "COL",
        "MRAcquisitionType": "2D",
        "MagneticFieldStrength": 3.0,
        "Manufacturer": "SIEMENS",
        "ManufacturerModelName": "Prisma_fit",
        "Modality": "MR",
        "NumberOfAverages": 1.0,
        "NumberOfPhaseEncodingSteps": 104,
        "PercentPhaseFieldOfView": 100.0,
        "PercentSampling": 100.0,
        "PerformedProcedureStepStartTime": "142304.500000",
        "PhotometricInterpretation": "MONOCHROME2",
        "PixelBandwidth": 2290.0,
        "PixelRepresentation": 0,
        "PixelSpacing": [
          2.0,
          2.0
        ],
        "ProtocolName": "func_task-life4",
        "RepetitionTime": 1490.0,
        "Rows": 832,
        "SAR": 0.03917025956047,
        "SamplesPerPixel": 1,
        "ScanOptions": "FS",
        "ScanningSequence": "EP",
        "SequenceName": "epfid2d1_104",
        "SequenceVariant": [
          "SK",
          "SS"
        ],
        "SeriesDescription": "func_task-life4",
        "SeriesNumber": 9,
        "SeriesTime": "143740.872000",
        "SliceLocation": -35.046754887203,
        "SliceThickness": 2.0,
        "SmallestImagePixelValue": 0,
        "SoftwareVersions": "syngo MR E11",
        "SpacingBetweenSlices": 2.0000000339587,
        "SpecificCharacterSet": "ISO_IR 100",
        "StudyID": "1",
        "StudyTime": "142304.443000",
        "TransmitCoilName": "Body",
        "VariableFlipAngleFlag": "N",
        "WindowCenterWidthExplanation": "Algo1",
        "dBdt": 0.0
      },
      "slices": {}
    },
    "modality": "bold",
    "run_id": 1,
    "session_id": "007",
    "subject_id": "01",
    "task_id": "life04",
    "time": {
      "samples": {
        "AcquisitionNumber": [
          1,
          2,
          3,
          4,
          5,
          6,
          7,
          8,
          9,
          10,
          11,
          12,
          13,
          14,
          15,
          16,
          17,
          18,
          19,
          20,
          21,
          22,
          23,
          24,
          25,
          26,
          27,
          28,
          29,
          30,
          31,
          32,
          33,
          34,
          35,
          36,
          37,
          38,
          39,
          40,
          41,
          42,
          43,
          44,
          45,
          46,
          47,
          48,
          49,
          50,
          51,
          52,
          53,
          54,
          55,
          56,
          57,
          58,
          59,
          60,
          61,
          62,
          63,
          64,
          65,
          66,
          67,
          68,
          69,
          70,
          71,
          72,
          73,
          74,
          75,
          76,
          77,
          78,
          79,
          80,
          81,
          82,
          83,
          84,
          85,
          86,
          87,
          88,
          89,
          90,
          91,
          92,
          93,
          94,
          95,
          96,
          97,
          98,
          99,
          100,
          101,
          102,
          103,
          104,
          105,
          106,
          107,
          108,
          109,
          110,
          111,
          112,
          113,
          114,
          115,
          116,
          117,
          118,
          119,
          120,
          121,
          122,
          123,
          124,
          125,
          126,
          127,
          128,
          129,
          130,
          131,
          132,
          133,
          134,
          135,
          136,
          137,
          138,
          139,
          140,
          141,
          142,
          143,
          144,
          145,
          146,
          147,
          148,
          149,
          150,
          151,
          152,
          153,
          154,
          155,
          156,
          157,
          158,
          159,
          160,
          161,
          162,
          163,
          164,
          165,
          166,
          167,
          168,
          169,
          170,
          171,
          172,
          173,
          174,
          175,
          176,
          177,
          178,
          179,
          180,
          181,
          182,
          183,
          184,
          185,
          186,
          187,
          188,
          189,
          190,
          191,
          192,
          193,
          194,
          195,
          196,
          197,
          198,
          199,
          200,
          201,
          202,
          203,
          204,
          205,
          206,
          207,
          208,
          209,
          210,
          211,
          212,
          213,
          214,
          215,
          216,
          217,
          218,
          219,
          220,
          221,
          222,
          223,
          224,
          225,
          226,
          227,
          228,
          229,
          230,
          231,
          232,
          233,
          234,
          235,
          236,
          237,
          238,
          239,
          240,
          241,
          242,
          243,
          244,
          245,
          246,
          247,
          248,
          249,
          250,
          251,
          252,
          253,
          254,
          255,
          256,
          257,
          258,
          259,
          260,
          261,
          262,
          263,
          264,
          265,
          266,
          267,
          268,
          269,
          270,
          271,
          272,
          273,
          274,
          275,
          276,
          277,
          278,
          279,
          280,
          281,
          282,
          283,
          284,
          285,
          286,
          287,
          288,
          289,
          290,
          291,
          292,
          293,
          294,
          295,
          296,
          297,
          298,
          299,
          300,
          301,
          302,
          303,
          304,
          305,
          306,
          307,
          308,
          309,
          310,
          311,
          312,
          313,
          314,
          315,
          316,
          317,
          318,
          319,
          320,
          321,
          322,
          323,
          324,
          325,
          326,
          327,
          328,
          329,
          330,
          331,
          332,
          333,
          334,
          335,
          336,
          337,
          338,
          339,
          340,
          341,
          342,
          343,
          344,
          345,
          346,
          347,
          348,
          349,
          350,
          351,
          352,
          353,
          354,
          355,
          356,
          357,
          358,
          359,
          360,
          361,
          362,
          363,
          364,
          365,
          366,
          367,
          368,
          369,
          370,
          371,
          372,
          373,
          374,
          375,
          376,
          377,
          378,
          379,
          380,
          381,
          382,
          383,
          384,
          385,
          386,
          387,
          388,
          389,
          390,
          391,
          392,
          393,
          394,
          395,
          396,
          397,
          398,
          399,
          400,
          401,
          402,
          403,
          404,
          405,
          406
        ],
        "AcquisitionTime": [
          "143628.440000",
          "143629.930000",
          "143631.420000",
          "143632.910000",
          "143634.400000",
          "143635.890000",
          "143637.380000",
          "143638.870000",
          "143640.360000",
          "143641.850000",
          "143643.340000",
          "143644.830000",
          "143646.320000",
          "143647.810000",
          "143649.300000",
          "143650.790000",
          "143652.280000",
          "143653.770000",
          "143655.260000",
          "143656.750000",
          "143658.240000",
          "143659.730000",
          "143701.220000",
          "143702.710000",
          "143704.200000",
          "143705.690000",
          "143707.180000",
          "143708.670000",
          "143710.160000",
          "143711.650000",
          "143713.140000",
          "143714.630000",
          "143716.120000",
          "143717.610000",
          "143719.100000",
          "143720.590000",
          "143722.080000",
          "143723.570000",
          "143725.060000",
          "143726.550000",
          "143728.040000",
          "143729.530000",
          "143731.020000",
          "143732.510000",
          "143734.000000",
          "143735.490000",
          "143736.980000",
          "143738.470000",
          "143739.960000",
          "143741.450000",
          "143742.940000",
          "143744.430000",
          "143745.920000",
          "143747.410000",
          "143748.900000",
          "143750.390000",
          "143751.880000",
          "143753.370000",
          "143754.860000",
          "143756.350000",
          "143757.840000",
          "143759.330000",
          "143800.820000",
          "143802.310000",
          "143803.800000",
          "143805.290000",
          "143806.780000",
          "143808.270000",
          "143809.760000",
          "143811.250000",
          "143812.740000",
          "143814.230000",
          "143815.720000",
          "143817.210000",
          "143818.700000",
          "143820.190000",
          "143821.680000",
          "143823.170000",
          "143824.660000",
          "143826.150000",
          "143827.640000",
          "143829.130000",
          "143830.620000",
          "143832.110000",
          "143833.600000",
          "143835.090000",
          "143836.580000",
          "143838.070000",
          "143839.560000",
          "143841.050000",
          "143842.540000",
          "143844.030000",
          "143845.520000",
          "143847.010000",
          "143848.500000",
          "143849.990000",
          "143851.480000",
          "143852.970000",
          "143854.460000",
          "143855.950000",
          "143857.440000",
          "143858.930000",
          "143900.420000",
          "143901.910000",
          "143903.400000",
          "143904.890000",
          "143906.380000",
          "143907.870000",
          "143909.360000",
          "143910.850000",
          "143912.340000",
          "143913.830000",
          "143915.320000",
          "143916.810000",
          "143918.300000",
          "143919.790000",
          "143921.280000",
          "143922.770000",
          "143924.260000",
          "143925.750000",
          "143927.240000",
          "143928.730000",
          "143930.220000",
          "143931.710000",
          "143933.200000",
          "143934.690000",
          "143936.180000",
          "143937.670000",
          "143939.160000",
          "143940.650000",
          "143942.140000",
          "143943.630000",
          "143945.120000",
          "143946.610000",
          "143948.100000",
          "143949.590000",
          "143951.080000",
          "143952.570000",
          "143954.060000",
          "143955.550000",
          "143957.040000",
          "143958.530000",
          "144000.020000",
          "144001.510000",
          "144003.000000",
          "144004.490000",
          "144005.980000",
          "144007.470000",
          "144008.960000",
          "144010.450000",
          "144011.940000",
          "144013.430000",
          "144014.920000",
          "144016.410000",
          "144017.900000",
          "144019.390000",
          "144020.880000",
          "144022.370000",
          "144023.860000",
          "144025.350000",
          "144026.840000",
          "144028.330000",
          "144029.820000",
          "144031.310000",
          "144032.800000",
          "144034.290000",
          "144035.780000",
          "144037.270000",
          "144038.760000",
          "144040.250000",
          "144041.740000",
          "144043.230000",
          "144044.720000",
          "144046.210000",
          "144047.700000",
          "144049.190000",
          "144050.680000",
          "144052.170000",
          "144053.660000",
          "144055.150000",
          "144056.640000",
          "144058.130000",
          "144059.620000",
          "144101.110000",
          "144102.600000",
          "144104.090000",
          "144105.580000",
          "144107.070000",
          "144108.560000",
          "144110.050000",
          "144111.540000",
          "144113.030000",
          "144114.520000",
          "144116.010000",
          "144117.500000",
          "144118.990000",
          "144120.480000",
          "144121.970000",
          "144123.460000",
          "144124.950000",
          "144126.440000",
          "144127.930000",
          "144129.420000",
          "144130.910000",
          "144132.400000",
          "144133.890000",
          "144135.380000",
          "144136.870000",
          "144138.360000",
          "144139.850000",
          "144141.340000",
          "144142.830000",
          "144144.320000",
          "144145.810000",
          "144147.300000",
          "144148.790000",
          "144150.280000",
          "144151.770000",
          "144153.260000",
          "144154.750000",
          "144156.240000",
          "144157.730000",
          "144159.220000",
          "144200.710000",
          "144202.200000",
          "144203.690000",
          "144205.180000",
          "144206.670000",
          "144208.160000",
          "144209.650000",
          "144211.140000",
          "144212.630000",
          "144214.120000",
          "144215.610000",
          "144217.100000",
          "144218.590000",
          "144220.080000",
          "144221.570000",
          "144223.060000",
          "144224.550000",
          "144226.040000",
          "144227.530000",
          "144229.020000",
          "144230.510000",
          "144232.000000",
          "144233.490000",
          "144234.980000",
          "144236.470000",
          "144237.960000",
          "144239.450000",
          "144240.940000",
          "144242.430000",
          "144243.920000",
          "144245.410000",
          "144246.900000",
          "144248.390000",
          "144249.880000",
          "144251.370000",
          "144252.860000",
          "144254.350000",
          "144255.840000",
          "144257.330000",
          "144258.820000",
          "144300.310000",
          "144301.800000",
          "144303.290000",
          "144304.780000",
          "144306.270000",
          "144307.760000",
          "144309.250000",
          "144310.740000",
          "144312.230000",
          "144313.720000",
          "144315.210000",
          "144316.700000",
          "144318.190000",
          "144319.680000",
          "144321.170000",
          "144322.660000",
          "144324.150000",
          "144325.640000",
          "144327.130000",
          "144328.620000",
          "144330.110000",
          "144331.600000",
          "144333.090000",
          "144334.580000",
          "144336.070000",
          "144337.560000",
          "144339.050000",
          "144340.540000",
          "144342.030000",
          "144343.520000",
          "144345.010000",
          "144346.500000",
          "144347.990000",
          "144349.480000",
          "144350.970000",
          "144352.460000",
          "144353.950000",
          "144355.440000",
          "144356.930000",
          "144358.420000",
          "144359.910000",
          "144401.400000",
          "144402.890000",
          "144404.380000",
          "144405.870000",
          "144407.360000",
          "144408.850000",
          "144410.340000",
          "144411.830000",
          "144413.320000",
          "144414.810000",
          "144416.300000",
          "144417.790000",
          "144419.280000",
          "144420.770000",
          "144422.260000",
          "144423.750000",
          "144425.240000",
          "144426.730000",
          "144428.220000",
          "144429.710000",
          "144431.200000",
          "144432.690000",
          "144434.180000",
          "144435.670000",
          "144437.160000",
          "144438.650000",
          "144440.140000",
          "144441.630000",
          "144443.120000",
          "144444.610000",
          "144446.100000",
          "144447.590000",
          "144449.080000",
          "144450.570000",
          "144452.060000",
          "144453.550000",
          "144455.040000",
          "144456.530000",
          "144458.020000",
          "144459.510000",
          "144501.000000",
          "144502.490000",
          "144503.980000",
          "144505.470000",
          "144506.960000",
          "144508.450000",
          "144509.940000",
          "144511.430000",
          "144512.920000",
          "144514.410000",
          "144515.900000",
          "144517.390000",
          "144518.880000",
          "144520.370000",
          "144521.860000",
          "144523.350000",
          "144524.840000",
          "144526.330000",
          "144527.820000",
          "144529.310000",
          "144530.800000",
          "144532.290000",
          "144533.780000",
          "144535.270000",
          "144536.760000",
          "144538.250000",
          "144539.740000",
          "144541.230000",
          "144542.720000",
          "144544.210000",
          "144545.700000",
          "144547.190000",
          "144548.680000",
          "144550.170000",
          "144551.660000",
          "144553.150000",
          "144554.640000",
          "144556.130000",
          "144557.620000",
          "144559.110000",
          "144600.600000",
          "144602.090000",
          "144603.580000",
          "144605.070000",
          "144606.560000",
          "144608.050000",
          "144609.540000",
          "144611.030000",
          "144612.520000",
          "144614.010000",
          "144615.500000",
          "144616.990000",
          "144618.480000",
          "144619.970000",
          "144621.460000",
          "144622.950000",
          "144624.440000",
          "144625.930000",
          "144627.420000",
          "144628.910000",
          "144630.400000",
          "144631.890000"
        ],
        "ContentTime": [
          "143740.875000",
          "143740.878000",
          "143740.881000",
          "143740.884000",
          "143740.887000",
          "143740.890000",
          "143740.893000",
          "143740.896000",
          "143740.899000",
          "143740.901000",
          "143740.904000",
          "143740.907000",
          "143740.910000",
          "143740.913000",
          "143740.916000",
          "143740.919000",
          "143740.922000",
          "143740.925000",
          "143800.849000",
          "143800.852000",
          "143800.855000",
          "143800.858000",
          "143800.861000",
          "143800.864000",
          "143800.867000",
          "143800.870000",
          "143800.873000",
          "143800.875000",
          "143800.878000",
          "143800.881000",
          "143800.884000",
          "143800.887000",
          "143800.890000",
          "143800.893000",
          "143800.896000",
          "143800.898000",
          "143800.901000",
          "143800.904000",
          "143820.848000",
          "143820.851000",
          "143820.854000",
          "143820.857000",
          "143820.860000",
          "143820.863000",
          "143820.866000",
          "143820.869000",
          "143820.871000",
          "143820.874000",
          "143820.877000",
          "143820.880000",
          "143820.883000",
          "143820.886000",
          "143820.889000",
          "143820.892000",
          "143820.895000",
          "143820.897000",
          "143820.900000",
          "143820.903000",
          "143840.848000",
          "143840.851000",
          "143840.854000",
          "143840.857000",
          "143840.860000",
          "143840.863000",
          "143840.866000",
          "143840.869000",
          "143840.872000",
          "143840.875000",
          "143840.878000",
          "143840.880000",
          "143840.883000",
          "143840.886000",
          "143840.894000",
          "143840.897000",
          "143840.899000",
          "143840.902000",
          "143840.905000",
          "143840.908000",
          "143900.848000",
          "143900.851000",
          "143900.854000",
          "143900.857000",
          "143900.860000",
          "143900.863000",
          "143900.866000",
          "143900.869000",
          "143900.873000",
          "143900.877000",
          "143900.881000",
          "143900.891000",
          "143900.894000",
          "143900.897000",
          "143900.900000",
          "143900.903000",
          "143900.906000",
          "143900.909000",
          "143900.912000",
          "143900.915000",
          "143940.848000",
          "143940.851000",
          "143940.854000",
          "143940.857000",
          "143940.860000",
          "143940.863000",
          "143940.866000",
          "143940.869000",
          "143940.872000",
          "143940.875000",
          "143940.878000",
          "143940.881000",
          "143940.884000",
          "143940.887000",
          "143940.890000",
          "143940.892000",
          "143940.895000",
          "143940.898000",
          "143940.901000",
          "143940.911000",
          "143940.914000",
          "143940.917000",
          "143940.920000",
          "143940.923000",
          "143940.926000",
          "143940.928000",
          "143940.931000",
          "143940.934000",
          "143940.937000",
          "143940.940000",
          "144020.849000",
          "144020.863000",
          "144020.866000",
          "144020.869000",
          "144020.872000",
          "144020.875000",
          "144020.878000",
          "144020.881000",
          "144020.884000",
          "144020.887000",
          "144020.890000",
          "144020.893000",
          "144020.896000",
          "144020.898000",
          "144020.901000",
          "144020.904000",
          "144020.907000",
          "144020.910000",
          "144020.913000",
          "144020.916000",
          "144020.919000",
          "144020.922000",
          "144020.925000",
          "144020.928000",
          "144020.931000",
          "144020.934000",
          "144020.937000",
          "144100.848000",
          "144100.851000",
          "144100.854000",
          "144100.857000",
          "144100.860000",
          "144100.863000",
          "144100.866000",
          "144100.869000",
          "144100.872000",
          "144100.875000",
          "144100.878000",
          "144100.881000",
          "144100.884000",
          "144100.887000",
          "144100.889000",
          "144100.892000",
          "144100.895000",
          "144100.898000",
          "144100.901000",
          "144100.904000",
          "144100.907000",
          "144100.910000",
          "144100.913000",
          "144100.916000",
          "144100.919000",
          "144100.922000",
          "144100.925000",
          "144140.848000",
          "144140.851000",
          "144140.854000",
          "144140.857000",
          "144140.860000",
          "144140.863000",
          "144140.866000",
          "144140.869000",
          "144140.872000",
          "144140.875000",
          "144140.878000",
          "144140.881000",
          "144140.884000",
          "144140.887000",
          "144140.890000",
          "144140.893000",
          "144140.896000",
          "144140.899000",
          "144140.902000",
          "144140.905000",
          "144140.908000",
          "144140.911000",
          "144140.914000",
          "144140.917000",
          "144140.920000",
          "144140.924000",
          "144140.927000",
          "144220.849000",
          "144220.852000",
          "144220.855000",
          "144220.858000",
          "144220.861000",
          "144220.864000",
          "144220.867000",
          "144220.870000",
          "144220.873000",
          "144220.876000",
          "144220.878000",
          "144220.881000",
          "144220.884000",
          "144220.887000",
