{
  "aor": 0.0010007073170731709,
  "aqi": 0.007616445634146341,
  "bids_meta": {
    "AcquisitionMatrixPE": 104,
    "AcquisitionNumber": 1,
    "AcquisitionTime": "15:20:3.667500",
    "BandwidthPerPixelPhaseEncode": 17.17,
    "BaseResolution": 104,
    "BodyPartExamined": "BRAIN",
    "CogAtlasID": "trm_4c898da401420",
    "ConsistencyInfo": "N4_VE11C_LATEST_20160120",
    "ConversionSoftware": "dcm2niix",
    "ConversionSoftwareVersion": "v1.0.20171215 (OpenJPEG build) GCC7.3.0",
    "DerivedVendorReportedEchoSpacing": 0.000560011,
    "DeviceSerialNumber": "167006",
    "DwellTime": 2.1e-06,
    "EchoTime": 0.037,
    "EchoTrainLength": 104,
    "EffectiveEchoSpacing": 0.000560011,
    "FlipAngle": 52,
    "ImageComments": "Unaliased_MB4_PE3_LB",
    "ImageOrientationPatientDICOM": [
      0.996325,
      0.0847032,
      0.0126851,
      -0.0798124,
      0.971937,
      -0.221288
    ],
    "ImageType": [
      "ORIGINAL",
      "PRIMARY",
      "M",
      "MB",
      "ND",
      "MOSAIC"
    ],
    "InPlanePhaseEncodingDirectionDICOM": "COL",
    "InstitutionAddress": "Chemin_Queen-Mary_4565_Montreal_District_CA_H3W_1W5",
    "InstitutionName": "IUGM",
    "InstitutionalDepartmentName": "Department",
    "MRAcquisitionType": "2D",
    "MagneticFieldStrength": 3,
    "Manufacturer": "Siemens",
    "ManufacturersModelName": "Prisma_fit",
    "Modality": "MR",
    "MultibandAccelerationFactor": 4,
    "PartialFourier": 1,
    "PatientPosition": "HFS",
    "PercentPhaseFOV": 100,
    "PhaseEncodingDirection": "j-",
    "PhaseEncodingSteps": 104,
    "PhaseResolution": 1,
    "PixelBandwidth": 2290,
    "ProcedureStepDescription": "video5_generic",
    "ProtocolName": "func_task-figures2",
    "PulseSequenceDetails": "%CustomerSeq%_cmrr_mbep2d_bold",
    "ReceiveCoilActiveElements": "HC1-7;NC1,2",
    "ReceiveCoilName": "HeadNeck_64",
    "ReconMatrixPE": 104,
    "RepetitionTime": 1.49,
    "SAR": 0.0388029,
    "ScanOptions": "FS",
    "ScanningSequence": "EP",
    "SequenceName": "epfid2d1_104",
    "SequenceVariant": "SK_SS",
    "SeriesDescription": "func_task-figures2",
    "SeriesNumber": 22,
    "ShimSetting": [
      638,
      -7194,
      -8827,
      718,
      107,
      36,
      11,
      -30
    ],
    "SliceThickness": 2,
    "SliceTiming": [
      0,
      0.7825,
      0.0975,
      0.8825,
      0.195,
      0.98,
      0.2925,
      1.0775,
      0.3925,
      1.175,
      0.49,
      1.2725,
      0.5875,
      1.3725,
      0.685,
      0,
      0.7825,
      0.0975,
      0.8825,
      0.195,
      0.98,
      0.2925,
      1.0775,
      0.3925,
      1.175,
      0.49,
      1.2725,
      0.5875,
      1.3725,
      0.685,
      0,
      0.7825,
      0.0975,
      0.8825,
      0.195,
      0.98,
      0.2925,
      1.0775,
      0.3925,
      1.175,
      0.49,
      1.2725,
      0.5875,
      1.3725,
      0.685,
      0,
      0.7825,
      0.0975,
      0.8825,
      0.195,
      0.98,
      0.2925,
      1.0775,
      0.3925,
      1.175,
      0.49,
      1.2725,
      0.5875,
      1.3725,
      0.685
    ],
    "SoftwareVersions": "syngo_MR_E11",
    "SpacingBetweenSlices": 2,
    "StationName": "MRC35049",
    "TaskName": "figures02",
    "TotalReadoutTime": 0.0576811,
    "TxRefAmp": 250.028,
    "dataset": "<unset>",
    "dcmmeta_affine": [
      [
        -1.9926509857177734,
        -0.15962477028369904,
        0.062145721167325974,
        111.20195770263672
      ],
      [
        -0.16940635442733765,
        1.9438742399215698,
        -0.43892407417297363,
        -62.57011413574219
      ],
      [
        0.02537015825510025,
        0.4425751864910126,
        1.9502521753311157,
        -56.13883972167969
      ],
      [
        0.0,
        0.0,
        0.0,
        1.0
      ]
    ],
    "dcmmeta_reorient_transform": [
      [
        0.0,
        -1.0,
        0.0,
        103.0
      ],
      [
        1.0,
        0.0,
        0.0,
        0.0
      ],
      [
        0.0,
        0.0,
        1.0,
        0.0
      ],
      [
        0.0,
        0.0,
        0.0,
        1.0
      ]
    ],
    "dcmmeta_shape": [
      104,
      104,
      60,
      410
    ],
    "dcmmeta_slice_dim": 2,
    "dcmmeta_version": 0.6,
    "global": {
      "const": {
        "AcquisitionMatrix": [
          104,
          0,
          0,
          104
        ],
        "AngioFlag": "N",
        "BitsAllocated": 16,
        "BitsStored": 16,
        "BodyPartExamined": "BRAIN",
        "Columns": 832,
        "EchoNumbers": 1,
        "EchoTime": 37.0,
        "EchoTrainLength": 104,
        "FlipAngle": 52.0,
        "HighBit": 15,
        "ImageOrientationPatient": [
          0.99632547934831,
          0.0847031756533,
          0.01268507925115,
          -0.0798123831636,
          0.97193713086667,
          -0.2212875892056
        ],
        "ImagePositionPatient": [
          -761.98213708547,
          -906.88307967488,
          141.30903159871
        ],
        "ImageType": [
          "ORIGINAL",
          "PRIMARY",
          "M",
          "MB",
          "ND",
          "MOSAIC"
        ],
        "ImagedNucleus": "1H",
        "ImagingFrequency": 123.259441,
        "InPlanePhaseEncodingDirection": "COL",
        "MRAcquisitionType": "2D",
        "MagneticFieldStrength": 3.0,
        "Manufacturer": "SIEMENS",
        "ManufacturerModelName": "Prisma_fit",
        "Modality": "MR",
        "NumberOfAverages": 1.0,
        "NumberOfPhaseEncodingSteps": 104,
        "PercentPhaseFieldOfView": 100.0,
        "PercentSampling": 100.0,
        "PerformedProcedureStepStartTime": "142304.500000",
        "PhotometricInterpretation": "MONOCHROME2",
        "PixelBandwidth": 2290.0,
        "PixelRepresentation": 0,
        "PixelSpacing": [
          2.0,
          2.0
        ],
        "ProtocolName": "func_task-figures2",
        "RepetitionTime": 1490.0,
        "Rows": 832,
        "SAR": 0.0388028534161,
        "SamplesPerPixel": 1,
        "ScanOptions": "FS",
        "ScanningSequence": "EP",
        "SequenceName": "epfid2d1_104",
        "SequenceVariant": [
          "SK",
          "SS"
        ],
        "SeriesDescription": "func_task-figures2",
        "SeriesNumber": 22,
        "SeriesTime": "152120.914000",
        "SliceLocation": -37.555319406177,
        "SliceThickness": 2.0,
        "SmallestImagePixelValue": 0,
        "SoftwareVersions": "syngo MR E11",
        "SpacingBetweenSlices": 1.9999999681417,
        "SpecificCharacterSet": "ISO_IR 100",
        "StudyID": "1",
        "StudyTime": "142304.443000",
        "TransmitCoilName": "Body",
        "VariableFlipAngleFlag": "N",
        "WindowCenterWidthExplanation": "Algo1",
        "dBdt": 0.0
      },
      "slices": {}
    },
    "modality": "bold",
    "run_id": 1,
    "session_id": "007",
    "subject_id": "01",
    "task_id": "figures02",
    "time": {
      "samples": {
        "AcquisitionNumber": [
          1,
          2,
          3,
          4,
          5,
          6,
          7,
          8,
          9,
          10,
          11,
          12,
          13,
          14,
          15,
          16,
          17,
          18,
          19,
          20,
          21,
          22,
          23,
          24,
          25,
          26,
          27,
          28,
          29,
          30,
          31,
          32,
          33,
          34,
          35,
          36,
          37,
          38,
          39,
          40,
          41,
          42,
          43,
          44,
          45,
          46,
          47,
          48,
          49,
          50,
          51,
          52,
          53,
          54,
          55,
          56,
          57,
          58,
          59,
          60,
          61,
          62,
          63,
          64,
          65,
          66,
          67,
          68,
          69,
          70,
          71,
          72,
          73,
          74,
          75,
          76,
          77,
          78,
          79,
          80,
          81,
          82,
          83,
          84,
          85,
          86,
          87,
          88,
          89,
          90,
          91,
          92,
          93,
          94,
          95,
          96,
          97,
          98,
          99,
          100,
          101,
          102,
          103,
          104,
          105,
          106,
          107,
          108,
          109,
          110,
          111,
          112,
          113,
          114,
          115,
          116,
          117,
          118,
          119,
          120,
          121,
          122,
          123,
          124,
          125,
          126,
          127,
          128,
          129,
          130,
          131,
          132,
          133,
          134,
          135,
          136,
          137,
          138,
          139,
          140,
          141,
          142,
          143,
          144,
          145,
          146,
          147,
          148,
          149,
          150,
          151,
          152,
          153,
          154,
          155,
          156,
          157,
          158,
          159,
          160,
          161,
          162,
          163,
          164,
          165,
          166,
          167,
          168,
          169,
          170,
          171,
          172,
          173,
          174,
          175,
          176,
          177,
          178,
          179,
          180,
          181,
          182,
          183,
          184,
          185,
          186,
          187,
          188,
          189,
          190,
          191,
          192,
          193,
          194,
          195,
          196,
          197,
          198,
          199,
          200,
          201,
          202,
          203,
          204,
          205,
          206,
          207,
          208,
          209,
          210,
          211,
          212,
          213,
          214,
          215,
          216,
          217,
          218,
          219,
          220,
          221,
          222,
          223,
          224,
          225,
          226,
          227,
          228,
          229,
          230,
          231,
          232,
          233,
          234,
          235,
          236,
          237,
          238,
          239,
          240,
          241,
          242,
          243,
          244,
          245,
          246,
          247,
          248,
          249,
          250,
          251,
          252,
          253,
          254,
          255,
          256,
          257,
          258,
          259,
          260,
          261,
          262,
          263,
          264,
          265,
          266,
          267,
          268,
          269,
          270,
          271,
          272,
          273,
          274,
          275,
          276,
          277,
          278,
          279,
          280,
          281,
          282,
          283,
          284,
          285,
          286,
          287,
          288,
          289,
          290,
          291,
          292,
          293,
          294,
          295,
          296,
          297,
          298,
          299,
          300,
          301,
          302,
          303,
          304,
          305,
          306,
          307,
          308,
          309,
          310,
          311,
          312,
          313,
          314,
          315,
          316,
          317,
          318,
          319,
          320,
          321,
          322,
          323,
          324,
          325,
          326,
          327,
          328,
          329,
          330,
          331,
          332,
          333,
          334,
          335,
          336,
          337,
          338,
          339,
          340,
          341,
          342,
          343,
          344,
          345,
          346,
          347,
          348,
          349,
          350,
          351,
          352,
          353,
          354,
          355,
          356,
          357,
          358,
          359,
          360,
          361,
          362,
          363,
          364,
          365,
          366,
          367,
          368,
          369,
          370,
          371,
          372,
          373,
          374,
          375,
          376,
          377,
          378,
          379,
          380,
          381,
          382,
          383,
          384,
          385,
          386,
          387,
          388,
          389,
          390,
          391,
          392,
          393,
          394,
          395,
          396,
          397,
          398,
          399,
          400,
          401,
          402,
          403,
          404,
          405,
          406,
          407,
          408,
          409,
          410
        ],
        "AcquisitionTime": [
          "152003.667500",
          "152005.157500",
          "152006.647500",
          "152008.137500",
          "152009.627500",
          "152011.117500",
          "152012.607500",
          "152014.097500",
          "152015.587500",
          "152017.077500",
          "152018.567500",
          "152020.057500",
          "152021.547500",
          "152023.037500",
          "152024.527500",
          "152026.017500",
          "152027.507500",
          "152028.997500",
          "152030.487500",
          "152031.977500",
          "152033.467500",
          "152034.957500",
          "152036.447500",
          "152037.937500",
          "152039.427500",
          "152040.917500",
          "152042.407500",
          "152043.897500",
          "152045.387500",
          "152046.877500",
          "152048.367500",
          "152049.857500",
          "152051.347500",
          "152052.837500",
          "152054.327500",
          "152055.817500",
          "152057.307500",
          "152058.797500",
          "152100.287500",
          "152101.777500",
          "152103.267500",
          "152104.757500",
          "152106.247500",
          "152107.737500",
          "152109.227500",
          "152110.717500",
          "152112.207500",
          "152113.697500",
          "152115.187500",
          "152116.677500",
          "152118.167500",
          "152119.657500",
          "152121.147500",
          "152122.637500",
          "152124.127500",
          "152125.617500",
          "152127.107500",
          "152128.597500",
          "152130.087500",
          "152131.577500",
          "152133.067500",
          "152134.557500",
          "152136.047500",
          "152137.537500",
          "152139.027500",
          "152140.517500",
          "152142.007500",
          "152143.497500",
          "152144.987500",
          "152146.477500",
          "152147.967500",
          "152149.457500",
          "152150.947500",
          "152152.437500",
          "152153.927500",
          "152155.417500",
          "152156.907500",
          "152158.397500",
          "152159.887500",
          "152201.377500",
          "152202.867500",
          "152204.357500",
          "152205.847500",
          "152207.337500",
          "152208.827500",
          "152210.317500",
          "152211.807500",
          "152213.297500",
          "152214.787500",
          "152216.277500",
          "152217.767500",
          "152219.257500",
          "152220.747500",
          "152222.237500",
          "152223.727500",
          "152225.217500",
          "152226.707500",
          "152228.197500",
          "152229.687500",
          "152231.177500",
          "152232.667500",
          "152234.157500",
          "152235.647500",
          "152237.137500",
          "152238.627500",
          "152240.117500",
          "152241.607500",
          "152243.097500",
          "152244.587500",
          "152246.077500",
          "152247.567500",
          "152249.057500",
          "152250.547500",
          "152252.037500",
          "152253.527500",
          "152255.017500",
          "152256.507500",
          "152257.997500",
          "152259.487500",
          "152300.977500",
          "152302.467500",
          "152303.957500",
          "152305.447500",
          "152306.937500",
          "152308.427500",
          "152309.917500",
          "152311.407500",
          "152312.897500",
          "152314.387500",
          "152315.877500",
          "152317.367500",
          "152318.857500",
          "152320.347500",
          "152321.837500",
          "152323.327500",
          "152324.817500",
          "152326.307500",
          "152327.797500",
          "152329.287500",
          "152330.777500",
          "152332.267500",
          "152333.757500",
          "152335.247500",
          "152336.737500",
          "152338.227500",
          "152339.717500",
          "152341.207500",
          "152342.697500",
          "152344.187500",
          "152345.677500",
          "152347.167500",
          "152348.657500",
          "152350.147500",
          "152351.637500",
          "152353.127500",
          "152354.617500",
          "152356.107500",
          "152357.597500",
          "152359.087500",
          "152400.577500",
          "152402.067500",
          "152403.557500",
          "152405.047500",
          "152406.537500",
          "152408.027500",
          "152409.517500",
          "152411.007500",
          "152412.497500",
          "152413.987500",
          "152415.477500",
          "152416.967500",
          "152418.457500",
          "152419.947500",
          "152421.437500",
          "152422.927500",
          "152424.417500",
          "152425.907500",
          "152427.397500",
          "152428.887500",
          "152430.377500",
          "152431.867500",
          "152433.357500",
          "152434.847500",
          "152436.337500",
          "152437.827500",
          "152439.317500",
          "152440.807500",
          "152442.297500",
          "152443.787500",
          "152445.277500",
          "152446.767500",
          "152448.257500",
          "152449.747500",
          "152451.237500",
          "152452.727500",
          "152454.217500",
          "152455.707500",
          "152457.197500",
          "152458.687500",
          "152500.177500",
          "152501.667500",
          "152503.157500",
          "152504.647500",
          "152506.137500",
          "152507.627500",
          "152509.117500",
          "152510.607500",
          "152512.097500",
          "152513.587500",
          "152515.077500",
          "152516.567500",
          "152518.057500",
          "152519.547500",
          "152521.037500",
          "152522.527500",
          "152524.017500",
          "152525.507500",
          "152526.997500",
          "152528.487500",
          "152529.977500",
          "152531.467500",
          "152532.957500",
          "152534.447500",
          "152535.937500",
          "152537.427500",
          "152538.917500",
          "152540.407500",
          "152541.897500",
          "152543.387500",
          "152544.877500",
          "152546.367500",
          "152547.857500",
          "152549.347500",
          "152550.837500",
          "152552.327500",
          "152553.817500",
          "152555.307500",
          "152556.797500",
          "152558.287500",
          "152559.777500",
          "152601.267500",
          "152602.757500",
          "152604.247500",
          "152605.737500",
          "152607.227500",
          "152608.717500",
          "152610.207500",
          "152611.697500",
          "152613.187500",
          "152614.677500",
          "152616.167500",
          "152617.657500",
          "152619.147500",
          "152620.637500",
          "152622.127500",
          "152623.617500",
          "152625.107500",
          "152626.597500",
          "152628.087500",
          "152629.577500",
          "152631.067500",
          "152632.557500",
          "152634.047500",
          "152635.537500",
          "152637.027500",
          "152638.517500",
          "152640.007500",
          "152641.497500",
          "152642.987500",
          "152644.477500",
          "152645.967500",
          "152647.457500",
          "152648.947500",
          "152650.437500",
          "152651.927500",
          "152653.417500",
          "152654.907500",
          "152656.397500",
          "152657.887500",
          "152659.377500",
          "152700.867500",
          "152702.357500",
          "152703.847500",
          "152705.337500",
          "152706.827500",
          "152708.317500",
          "152709.807500",
          "152711.297500",
          "152712.787500",
          "152714.277500",
          "152715.767500",
          "152717.257500",
          "152718.747500",
          "152720.237500",
          "152721.727500",
          "152723.217500",
          "152724.707500",
          "152726.197500",
          "152727.687500",
          "152729.177500",
          "152730.667500",
          "152732.157500",
          "152733.647500",
          "152735.137500",
          "152736.627500",
          "152738.117500",
          "152739.607500",
          "152741.097500",
          "152742.587500",
          "152744.077500",
          "152745.567500",
          "152747.057500",
          "152748.547500",
          "152750.037500",
          "152751.527500",
          "152753.017500",
          "152754.507500",
          "152755.997500",
          "152757.487500",
          "152758.977500",
          "152800.467500",
          "152801.957500",
          "152803.447500",
          "152804.937500",
          "152806.427500",
          "152807.917500",
          "152809.407500",
          "152810.897500",
          "152812.387500",
          "152813.877500",
          "152815.367500",
          "152816.857500",
          "152818.347500",
          "152819.837500",
          "152821.327500",
          "152822.817500",
          "152824.307500",
          "152825.797500",
          "152827.287500",
          "152828.777500",
          "152830.267500",
          "152831.757500",
          "152833.247500",
          "152834.737500",
          "152836.227500",
          "152837.717500",
          "152839.207500",
          "152840.697500",
          "152842.187500",
          "152843.677500",
          "152845.167500",
          "152846.657500",
          "152848.147500",
          "152849.637500",
          "152851.127500",
          "152852.617500",
          "152854.107500",
          "152855.597500",
          "152857.087500",
          "152858.577500",
          "152900.067500",
          "152901.557500",
          "152903.047500",
          "152904.537500",
          "152906.027500",
          "152907.517500",
          "152909.007500",
          "152910.497500",
          "152911.987500",
          "152913.477500",
          "152914.967500",
          "152916.457500",
          "152917.947500",
          "152919.437500",
          "152920.927500",
          "152922.417500",
          "152923.907500",
          "152925.397500",
          "152926.887500",
          "152928.377500",
          "152929.867500",
          "152931.357500",
          "152932.847500",
          "152934.337500",
          "152935.827500",
          "152937.317500",
          "152938.807500",
          "152940.297500",
          "152941.787500",
          "152943.277500",
          "152944.767500",
          "152946.257500",
          "152947.747500",
          "152949.237500",
          "152950.727500",
          "152952.217500",
          "152953.707500",
          "152955.197500",
          "152956.687500",
          "152958.177500",
          "152959.667500",
          "153001.157500",
          "153002.647500",
          "153004.137500",
          "153005.627500",
          "153007.117500",
          "153008.607500",
          "153010.097500",
          "153011.587500",
          "153013.077500"
        ],
        "ContentTime": [
          "152120.917000",
          "152120.920000",
          "152120.945000",
          "152120.948000",
          "152120.951000",
          "152120.954000",
          "152120.957000",
          "152120.960000",
          "152120.962000",
          "152120.965000",
          "152120.968000",
          "152120.971000",
          "152120.989000",
          "152120.992000",
          "152120.995000",
          "152120.998000",
          "152121.002000",
          "152121.005000",
          "152121.008000",
          "152121.011000",
          "152121.014000",
          "152121.017000",
          "152121.019000",
          "152140.848000",
          "152140.851000",
          "152140.854000",
          "152140.858000",
          "152140.861000",
          "152140.864000",
          "152140.867000",
          "152140.870000",
          "152140.873000",
          "152140.875000",
          "152140.878000",
          "152140.881000",
          "152140.884000",
          "152140.887000",
          "152140.890000",
          "152140.893000",
          "152140.910000",
          "152140.913000",
          "152140.916000",
          "152140.919000",
          "152200.849000",
          "152200.852000",
          "152200.855000",
          "152200.858000",
          "152200.869000",
          "152200.872000",
          "152200.875000",
          "152200.878000",
          "152200.881000",
          "152200.884000",
          "152200.887000",
          "152200.890000",
          "152200.893000",
          "152200.896000",
          "152200.899000",
          "152200.902000",
          "152200.905000",
          "152200.908000",
          "152200.911000",
          "152200.914000",
          "152220.848000",
          "152220.851000",
          "152220.854000",
          "152220.857000",
          "152220.860000",
          "152220.863000",
          "152220.866000",
          "152220.869000",
          "152220.886000",
          "152220.889000",
          "152220.892000",
          "152220.895000",
          "152220.898000",
          "152220.901000",
          "152220.904000",
          "152220.907000",
          "152220.910000",
          "152220.921000",
          "152220.924000",
          "152220.927000",
          "152240.848000",
          "152240.851000",
          "152240.854000",
          "152240.857000",
          "152240.860000",
          "152240.863000",
          "152240.866000",
          "152240.869000",
          "152240.871000",
          "152240.874000",
          "152240.877000",
          "152240.880000",
          "152240.883000",
          "152240.886000",
          "152240.889000",
          "152240.892000",
          "152240.895000",
          "152240.898000",
          "152240.901000",
          "152240.904000",
          "152320.860000",
          "152320.863000",
          "152320.866000",
          "152320.869000",
          "152320.872000",
          "152320.875000",
          "152320.878000",
          "152320.881000",
          "152320.884000",
          "152320.887000",
          "152320.890000",
          "152320.893000",
          "152320.896000",
          "152320.899000",
          "152320.901000",
          "152320.904000",
          "152320.907000",
          "152320.910000",
          "152320.913000",
          "152320.916000",
          "152320.919000",
          "152320.922000",
          "152320.925000",
          "152320.928000",
          "152320.931000",
          "152320.940000",
          "152320.943000",
          "152320.946000",
          "152400.849000",
          "152400.852000",
          "152400.855000",
          "152400.858000",
          "152400.861000",
          "152400.864000",
          "152400.867000",
          "152400.870000",
          "152400.873000",
          "152400.876000",
          "152400.879000",
          "152400.882000",
          "152400.884000",
          "152400.887000",
          "152400.890000",
          "152400.893000",
          "152400.896000",
          "152400.899000",
          "152400.902000",
          "152400.905000",
          "152400.908000",
          "152400.911000",
          "152400.914000",
          "152400.917000",
          "152400.920000",
          "152400.923000",
          "152400.926000",
          "152440.848000",
          "152440.851000",
          "152440.854000",
          "152440.857000",
          "152440.860000",
          "152440.863000",
          "152440.866000",
          "152440.869000",
          "152440.872000",
          "152440.875000",
          "152440.878000",
          "152440.881000",
          "152440.888000",
          "152440.891000",
          "152440.894000",
          "152440.897000",
          "152440.900000",
          "152440.903000",
          "152440.906000",
          "152440.909000",
          "152440.912000",
          "152440.915000",
          "152440.918000",
          "152440.921000",
          "152440.924000",
          "152440.927000",
          "152440.930000",
          "152520.848000",
          "152520.851000",
          "152520.854000",
          "152520.857000",
          "152520.860000",
          "152520.863000",
          "152520.866000",
          "152520.869000",
          "152520.871000",
          "152520.874000",
          "152520.877000",
          "152520.880000",
          "152520.883000",
          "152520.886000",
          "152520.889000",
          "152520.892000",
          "152520.895000",
          "152520.898000",
          "152520.901000",
          "152520.904000",
          "152520.907000",
          "152520.910000",
          "152520.913000",
          "152520.916000",
          "152520.919000",
          "152520.922000",
          "152520.925000",
          "152600.848000",
          "152600.851000",
          "152600.854000",
          "152600.857000",
