{
  "aor": 0.0009462315270935959,
  "aqi": 0.010782450862068966,
  "bids_meta": {
    "AcquisitionMatrixPE": 104,
    "AcquisitionNumber": 1,
    "AcquisitionTime": "14:25:47.040000",
    "BandwidthPerPixelPhaseEncode": 17.17,
    "BaseResolution": 104,
    "BodyPartExamined": "BRAIN",
    "CogAtlasID": "trm_4c898da401420",
    "ConsistencyInfo": "N4_VE11C_LATEST_20160120",
    "ConversionSoftware": "dcm2niix",
    "ConversionSoftwareVersion": "v1.0.20171215 (OpenJPEG build) GCC7.3.0",
    "DerivedVendorReportedEchoSpacing": 0.000560011,
    "DeviceSerialNumber": "167006",
    "DwellTime": 2.1e-06,
    "EchoTime": 0.037,
    "EchoTrainLength": 104,
    "EffectiveEchoSpacing": 0.000560011,
    "FlipAngle": 52,
    "ImageComments": "Unaliased_MB4_PE3_LB",
    "ImageOrientationPatientDICOM": [
      0.994449,
      0.104825,
      0.00911116,
      -0.099084,
      0.962076,
      -0.25415
    ],
    "ImageType": [
      "ORIGINAL",
      "PRIMARY",
      "M",
      "MB",
      "ND",
      "MOSAIC"
    ],
    "InPlanePhaseEncodingDirectionDICOM": "COL",
    "InstitutionAddress": "Chemin_Queen-Mary_4565_Montreal_District_CA_H3W_1W5",
    "InstitutionName": "IUGM",
    "InstitutionalDepartmentName": "Department",
    "MRAcquisitionType": "2D",
    "MagneticFieldStrength": 3,
    "Manufacturer": "Siemens",
    "ManufacturersModelName": "Prisma_fit",
    "Modality": "MR",
    "MultibandAccelerationFactor": 4,
    "PartialFourier": 1,
    "PatientPosition": "HFS",
    "PercentPhaseFOV": 100,
    "PhaseEncodingDirection": "j-",
    "PhaseEncodingSteps": 104,
    "PhaseResolution": 1,
    "PixelBandwidth": 2290,
    "ProcedureStepDescription": "video5_generic",
    "ProtocolName": "func_task-life3",
    "PulseSequenceDetails": "%CustomerSeq%_cmrr_mbep2d_bold",
    "ReceiveCoilActiveElements": "HC1-7;NC1,2",
    "ReceiveCoilName": "HeadNeck_64",
    "ReconMatrixPE": 104,
    "RepetitionTime": 1.49,
    "SAR": 0.0391703,
    "ScanOptions": "FS",
    "ScanningSequence": "EP",
    "SequenceName": "epfid2d1_104",
    "SequenceVariant": "SK_SS",
    "SeriesDescription": "func_task-life3",
    "SeriesNumber": 7,
    "ShimSetting": [
      640,
      -7192,
      -8813,
      699,
      108,
      14,
      -37,
      -13
    ],
    "SliceThickness": 2,
    "SliceTiming": [
      0,
      0.785,
      0.1,
      0.8825,
      0.1975,
      0.98,
      0.295,
      1.08,
      0.3925,
      1.1775,
      0.49,
      1.275,
      0.59,
      1.3725,
      0.6875,
      0,
      0.785,
      0.1,
      0.8825,
      0.1975,
      0.98,
      0.295,
      1.08,
      0.3925,
      1.1775,
      0.49,
      1.275,
      0.59,
      1.3725,
      0.6875,
      0,
      0.785,
      0.1,
      0.8825,
      0.1975,
      0.98,
      0.295,
      1.08,
      0.3925,
      1.1775,
      0.49,
      1.275,
      0.59,
      1.3725,
      0.6875,
      0,
      0.785,
      0.1,
      0.8825,
      0.1975,
      0.98,
      0.295,
      1.08,
      0.3925,
      1.1775,
      0.49,
      1.275,
      0.59,
      1.3725,
      0.6875
    ],
    "SoftwareVersions": "syngo_MR_E11",
    "SpacingBetweenSlices": 2,
    "StationName": "MRC35049",
    "TaskName": "life03",
    "TotalReadoutTime": 0.0576811,
    "TxRefAmp": 252.315,
    "dataset": "<unset>",
    "dcmmeta_affine": [
      [
        -1.9888979196548462,
        -0.19816790521144867,
        0.07081368565559387,
        111.83626556396484
      ],
      [
        -0.20964981615543365,
        1.924152135848999,
        -0.5036722421646118,
        -58.72578048706055
      ],
      [
        0.01822231337428093,
        0.5082993507385254,
        1.9342440366744995,
        -55.6246223449707
      ],
      [
        0.0,
        0.0,
        0.0,
        1.0
      ]
    ],
    "dcmmeta_reorient_transform": [
      [
        0.0,
        -1.0,
        0.0,
        103.0
      ],
      [
        1.0,
        0.0,
        0.0,
        0.0
      ],
      [
        0.0,
        0.0,
        1.0,
        0.0
      ],
      [
        0.0,
        0.0,
        0.0,
        1.0
      ]
    ],
    "dcmmeta_shape": [
      104,
      104,
      60,
      406
    ],
    "dcmmeta_slice_dim": 2,
    "dcmmeta_version": 0.6,
    "global": {
      "const": {
        "AcquisitionMatrix": [
          104,
          0,
          0,
          104
        ],
        "AngioFlag": "N",
        "BitsAllocated": 16,
        "BitsStored": 16,
        "BodyPartExamined": "BRAIN",
        "Columns": 832,
        "EchoNumbers": 1,
        "EchoTime": 37.0,
        "EchoTrainLength": 104,
        "FlipAngle": 52.0,
        "HighBit": 15,
        "ImageOrientationPatient": [
          0.99444895559895,
          0.10482490896413,
          0.00911115628347,
          -0.0990839551917,
          0.96207603970784,
          -0.254149687475
        ],
        "ImagePositionPatient": [
          -743.25069325447,
          -916.16577592533,
          175.11826232759
        ],
        "ImageType": [
          "ORIGINAL",
          "PRIMARY",
          "M",
          "MB",
          "ND",
          "MOSAIC"
        ],
        "ImagedNucleus": "1H",
        "ImagingFrequency": 123.259416,
        "InPlanePhaseEncodingDirection": "COL",
        "MRAcquisitionType": "2D",
        "MagneticFieldStrength": 3.0,
        "Manufacturer": "SIEMENS",
        "ManufacturerModelName": "Prisma_fit",
        "Modality": "MR",
        "NumberOfAverages": 1.0,
        "NumberOfPhaseEncodingSteps": 104,
        "PercentPhaseFieldOfView": 100.0,
        "PercentSampling": 100.0,
        "PerformedProcedureStepStartTime": "142304.500000",
        "PhotometricInterpretation": "MONOCHROME2",
        "PixelBandwidth": 2290.0,
        "PixelRepresentation": 0,
        "PixelSpacing": [
          2.0,
          2.0
        ],
        "ProtocolName": "func_task-life3",
        "RepetitionTime": 1490.0,
        "Rows": 832,
        "SAR": 0.03917025956047,
        "SamplesPerPixel": 1,
        "ScanOptions": "FS",
        "ScanningSequence": "EP",
        "SequenceName": "epfid2d1_104",
        "SequenceVariant": [
          "SK",
          "SS"
        ],
        "SeriesDescription": "func_task-life3",
        "SeriesNumber": 7,
        "SeriesTime": "142647.826000",
        "SliceLocation": -35.046754887203,
        "SliceThickness": 2.0,
        "SmallestImagePixelValue": 0,
        "SoftwareVersions": "syngo MR E11",
        "SpacingBetweenSlices": 2.0000000339587,
        "SpecificCharacterSet": "ISO_IR 100",
        "StudyID": "1",
        "StudyTime": "142304.443000",
        "TransmitCoilName": "Body",
        "VariableFlipAngleFlag": "N",
        "WindowCenterWidthExplanation": "Algo1",
        "dBdt": 0.0
      },
      "slices": {}
    },
    "modality": "bold",
    "run_id": 1,
    "session_id": "007",
    "subject_id": "01",
    "task_id": "life03",
    "time": {
      "samples": {
        "AcquisitionNumber": [
          1,
          2,
          3,
          4,
          5,
          6,
          7,
          8,
          9,
          10,
          11,
          12,
          13,
          14,
          15,
          16,
          17,
          18,
          19,
          20,
          21,
          22,
          23,
          24,
          25,
          26,
          27,
          28,
          29,
          30,
          31,
          32,
          33,
          34,
          35,
          36,
          37,
          38,
          39,
          40,
          41,
          42,
          43,
          44,
          45,
          46,
          47,
          48,
          49,
          50,
          51,
          52,
          53,
          54,
          55,
          56,
          57,
          58,
          59,
          60,
          61,
          62,
          63,
          64,
          65,
          66,
          67,
          68,
          69,
          70,
          71,
          72,
          73,
          74,
          75,
          76,
          77,
          78,
          79,
          80,
          81,
          82,
          83,
          84,
          85,
          86,
          87,
          88,
          89,
          90,
          91,
          92,
          93,
          94,
          95,
          96,
          97,
          98,
          99,
          100,
          101,
          102,
          103,
          104,
          105,
          106,
          107,
          108,
          109,
          110,
          111,
          112,
          113,
          114,
          115,
          116,
          117,
          118,
          119,
          120,
          121,
          122,
          123,
          124,
          125,
          126,
          127,
          128,
          129,
          130,
          131,
          132,
          133,
          134,
          135,
          136,
          137,
          138,
          139,
          140,
          141,
          142,
          143,
          144,
          145,
          146,
          147,
          148,
          149,
          150,
          151,
          152,
          153,
          154,
          155,
          156,
          157,
          158,
          159,
          160,
          161,
          162,
          163,
          164,
          165,
          166,
          167,
          168,
          169,
          170,
          171,
          172,
          173,
          174,
          175,
          176,
          177,
          178,
          179,
          180,
          181,
          182,
          183,
          184,
          185,
          186,
          187,
          188,
          189,
          190,
          191,
          192,
          193,
          194,
          195,
          196,
          197,
          198,
          199,
          200,
          201,
          202,
          203,
          204,
          205,
          206,
          207,
          208,
          209,
          210,
          211,
          212,
          213,
          214,
          215,
          216,
          217,
          218,
          219,
          220,
          221,
          222,
          223,
          224,
          225,
          226,
          227,
          228,
          229,
          230,
          231,
          232,
          233,
          234,
          235,
          236,
          237,
          238,
          239,
          240,
          241,
          242,
          243,
          244,
          245,
          246,
          247,
          248,
          249,
          250,
          251,
          252,
          253,
          254,
          255,
          256,
          257,
          258,
          259,
          260,
          261,
          262,
          263,
          264,
          265,
          266,
          267,
          268,
          269,
          270,
          271,
          272,
          273,
          274,
          275,
          276,
          277,
          278,
          279,
          280,
          281,
          282,
          283,
          284,
          285,
          286,
          287,
          288,
          289,
          290,
          291,
          292,
          293,
          294,
          295,
          296,
          297,
          298,
          299,
          300,
          301,
          302,
          303,
          304,
          305,
          306,
          307,
          308,
          309,
          310,
          311,
          312,
          313,
          314,
          315,
          316,
          317,
          318,
          319,
          320,
          321,
          322,
          323,
          324,
          325,
          326,
          327,
          328,
          329,
          330,
          331,
          332,
          333,
          334,
          335,
          336,
          337,
          338,
          339,
          340,
          341,
          342,
          343,
          344,
          345,
          346,
          347,
          348,
          349,
          350,
          351,
          352,
          353,
          354,
          355,
          356,
          357,
          358,
          359,
          360,
          361,
          362,
          363,
          364,
          365,
          366,
          367,
          368,
          369,
          370,
          371,
          372,
          373,
          374,
          375,
          376,
          377,
          378,
          379,
          380,
          381,
          382,
          383,
          384,
          385,
          386,
          387,
          388,
          389,
          390,
          391,
          392,
          393,
          394,
          395,
          396,
          397,
          398,
          399,
          400,
          401,
          402,
          403,
          404,
          405,
          406
        ],
        "AcquisitionTime": [
          "142547.040000",
          "142548.530000",
          "142550.020000",
          "142551.510000",
          "142553.000000",
          "142554.490000",
          "142555.980000",
          "142557.470000",
          "142558.960000",
          "142600.450000",
          "142601.940000",
          "142603.430000",
          "142604.920000",
          "142606.410000",
          "142607.900000",
          "142609.390000",
          "142610.880000",
          "142612.370000",
          "142613.860000",
          "142615.350000",
          "142616.840000",
          "142618.330000",
          "142619.820000",
          "142621.310000",
          "142622.800000",
          "142624.290000",
          "142625.780000",
          "142627.270000",
          "142628.760000",
          "142630.250000",
          "142631.740000",
          "142633.230000",
          "142634.720000",
          "142636.210000",
          "142637.700000",
          "142639.190000",
          "142640.680000",
          "142642.170000",
          "142643.660000",
          "142645.150000",
          "142646.640000",
          "142648.130000",
          "142649.620000",
          "142651.110000",
          "142652.600000",
          "142654.090000",
          "142655.580000",
          "142657.070000",
          "142658.560000",
          "142700.050000",
          "142701.540000",
          "142703.030000",
          "142704.520000",
          "142706.010000",
          "142707.500000",
          "142708.990000",
          "142710.480000",
          "142711.970000",
          "142713.460000",
          "142714.950000",
          "142716.440000",
          "142717.930000",
          "142719.420000",
          "142720.910000",
          "142722.400000",
          "142723.890000",
          "142725.380000",
          "142726.870000",
          "142728.360000",
          "142729.850000",
          "142731.340000",
          "142732.830000",
          "142734.320000",
          "142735.810000",
          "142737.300000",
          "142738.790000",
          "142740.280000",
          "142741.770000",
          "142743.260000",
          "142744.750000",
          "142746.240000",
          "142747.730000",
          "142749.220000",
          "142750.710000",
          "142752.200000",
          "142753.690000",
          "142755.180000",
          "142756.670000",
          "142758.160000",
          "142759.650000",
          "142801.140000",
          "142802.630000",
          "142804.120000",
          "142805.610000",
          "142807.100000",
          "142808.590000",
          "142810.080000",
          "142811.570000",
          "142813.060000",
          "142814.550000",
          "142816.040000",
          "142817.530000",
          "142819.020000",
          "142820.510000",
          "142822.000000",
          "142823.490000",
          "142824.980000",
          "142826.470000",
          "142827.960000",
          "142829.450000",
          "142830.940000",
          "142832.430000",
          "142833.920000",
          "142835.410000",
          "142836.900000",
          "142838.390000",
          "142839.880000",
          "142841.370000",
          "142842.860000",
          "142844.350000",
          "142845.840000",
          "142847.330000",
          "142848.820000",
          "142850.310000",
          "142851.800000",
          "142853.290000",
          "142854.780000",
          "142856.270000",
          "142857.760000",
          "142859.250000",
          "142900.740000",
          "142902.230000",
          "142903.720000",
          "142905.210000",
          "142906.700000",
          "142908.190000",
          "142909.680000",
          "142911.170000",
          "142912.660000",
          "142914.150000",
          "142915.640000",
          "142917.130000",
          "142918.620000",
          "142920.110000",
          "142921.600000",
          "142923.090000",
          "142924.580000",
          "142926.070000",
          "142927.560000",
          "142929.050000",
          "142930.540000",
          "142932.030000",
          "142933.520000",
          "142935.010000",
          "142936.500000",
          "142937.990000",
          "142939.480000",
          "142940.970000",
          "142942.460000",
          "142943.950000",
          "142945.440000",
          "142946.930000",
          "142948.420000",
          "142949.910000",
          "142951.400000",
          "142952.890000",
          "142954.380000",
          "142955.870000",
          "142957.360000",
          "142958.850000",
          "143000.340000",
          "143001.830000",
          "143003.320000",
          "143004.810000",
          "143006.300000",
          "143007.790000",
          "143009.280000",
          "143010.770000",
          "143012.260000",
          "143013.750000",
          "143015.240000",
          "143016.730000",
          "143018.220000",
          "143019.710000",
          "143021.200000",
          "143022.690000",
          "143024.180000",
          "143025.670000",
          "143027.160000",
          "143028.650000",
          "143030.140000",
          "143031.630000",
          "143033.120000",
          "143034.610000",
          "143036.100000",
          "143037.590000",
          "143039.080000",
          "143040.570000",
          "143042.060000",
          "143043.550000",
          "143045.040000",
          "143046.530000",
          "143048.020000",
          "143049.510000",
          "143051.000000",
          "143052.490000",
          "143053.980000",
          "143055.470000",
          "143056.960000",
          "143058.450000",
          "143059.940000",
          "143101.430000",
          "143102.920000",
          "143104.410000",
          "143105.900000",
          "143107.390000",
          "143108.880000",
          "143110.370000",
          "143111.860000",
          "143113.350000",
          "143114.840000",
          "143116.330000",
          "143117.820000",
          "143119.310000",
          "143120.800000",
          "143122.290000",
          "143123.780000",
          "143125.270000",
          "143126.760000",
          "143128.250000",
          "143129.740000",
          "143131.230000",
          "143132.720000",
          "143134.210000",
          "143135.700000",
          "143137.190000",
          "143138.680000",
          "143140.170000",
          "143141.660000",
          "143143.150000",
          "143144.640000",
          "143146.130000",
          "143147.620000",
          "143149.110000",
          "143150.600000",
          "143152.090000",
          "143153.580000",
          "143155.070000",
          "143156.560000",
          "143158.050000",
          "143159.540000",
          "143201.030000",
          "143202.520000",
          "143204.010000",
          "143205.500000",
          "143206.990000",
          "143208.480000",
          "143209.970000",
          "143211.460000",
          "143212.950000",
          "143214.440000",
          "143215.930000",
          "143217.420000",
          "143218.910000",
          "143220.400000",
          "143221.890000",
          "143223.380000",
          "143224.870000",
          "143226.360000",
          "143227.850000",
          "143229.340000",
          "143230.830000",
          "143232.320000",
          "143233.810000",
          "143235.300000",
          "143236.790000",
          "143238.280000",
          "143239.770000",
          "143241.260000",
          "143242.750000",
          "143244.240000",
          "143245.730000",
          "143247.220000",
          "143248.710000",
          "143250.200000",
          "143251.690000",
          "143253.180000",
          "143254.670000",
          "143256.160000",
          "143257.650000",
          "143259.140000",
          "143300.630000",
          "143302.120000",
          "143303.610000",
          "143305.100000",
          "143306.590000",
          "143308.080000",
          "143309.570000",
          "143311.060000",
          "143312.550000",
          "143314.040000",
          "143315.530000",
          "143317.020000",
          "143318.510000",
          "143320.000000",
          "143321.490000",
          "143322.980000",
          "143324.470000",
          "143325.960000",
          "143327.450000",
          "143328.940000",
          "143330.430000",
          "143331.920000",
          "143333.410000",
          "143334.900000",
          "143336.390000",
          "143337.880000",
          "143339.370000",
          "143340.860000",
          "143342.350000",
          "143343.840000",
          "143345.330000",
          "143346.820000",
          "143348.310000",
          "143349.800000",
          "143351.290000",
          "143352.780000",
          "143354.270000",
          "143355.760000",
          "143357.250000",
          "143358.740000",
          "143400.230000",
          "143401.720000",
          "143403.210000",
          "143404.700000",
          "143406.190000",
          "143407.680000",
          "143409.170000",
          "143410.660000",
          "143412.150000",
          "143413.640000",
          "143415.130000",
          "143416.620000",
          "143418.110000",
          "143419.600000",
          "143421.090000",
          "143422.580000",
          "143424.070000",
          "143425.560000",
          "143427.050000",
          "143428.540000",
          "143430.030000",
          "143431.520000",
          "143433.010000",
          "143434.500000",
          "143435.990000",
          "143437.480000",
          "143438.970000",
          "143440.460000",
          "143441.950000",
          "143443.440000",
          "143444.930000",
          "143446.420000",
          "143447.910000",
          "143449.400000",
          "143450.890000",
          "143452.380000",
          "143453.870000",
          "143455.360000",
          "143456.850000",
          "143458.340000",
          "143459.830000",
          "143501.320000",
          "143502.810000",
          "143504.300000",
          "143505.790000",
          "143507.280000",
          "143508.770000",
          "143510.260000",
          "143511.750000",
          "143513.240000",
          "143514.730000",
          "143516.220000",
          "143517.710000",
          "143519.200000",
          "143520.690000",
          "143522.180000",
          "143523.670000",
          "143525.160000",
          "143526.650000",
          "143528.140000",
          "143529.630000",
          "143531.120000",
          "143532.610000",
          "143534.100000",
          "143535.590000",
          "143537.080000",
          "143538.570000",
          "143540.060000",
          "143541.550000",
          "143543.040000",
          "143544.530000",
          "143546.020000",
          "143547.510000",
          "143549.000000",
          "143550.490000"
        ],
        "ContentTime": [
          "142647.829000",
          "142647.832000",
          "142647.835000",
          "142647.838000",
          "142647.841000",
          "142647.844000",
          "142707.792000",
          "142707.800000",
          "142707.803000",
          "142707.806000",
          "142707.809000",
          "142707.813000",
          "142707.816000",
          "142707.818000",
          "142707.821000",
          "142707.824000",
          "142707.827000",
          "142707.830000",
          "142707.833000",
          "142707.842000",
          "142707.844000",
          "142707.847000",
          "142707.850000",
          "142707.853000",
          "142707.856000",
          "142707.859000",
          "142727.792000",
          "142727.795000",
          "142727.798000",
          "142727.801000",
          "142727.804000",
          "142727.806000",
          "142727.809000",
          "142727.812000",
          "142727.815000",
          "142727.818000",
          "142727.821000",
          "142727.824000",
          "142727.827000",
          "142727.839000",
          "142727.842000",
          "142727.844000",
          "142727.847000",
          "142727.850000",
          "142727.853000",
          "142727.856000",
          "142747.793000",
          "142747.796000",
          "142747.799000",
          "142747.807000",
          "142747.810000",
          "142747.813000",
          "142747.816000",
          "142747.819000",
          "142747.822000",
          "142747.825000",
          "142747.828000",
          "142747.831000",
          "142747.833000",
          "142747.836000",
          "142747.839000",
          "142747.842000",
          "142747.845000",
          "142747.848000",
          "142747.851000",
          "142747.854000",
          "142807.793000",
          "142807.796000",
          "142807.799000",
          "142807.802000",
          "142807.805000",
          "142807.807000",
          "142807.810000",
          "142807.813000",
          "142807.816000",
          "142807.819000",
          "142807.822000",
          "142807.825000",
          "142807.828000",
          "142807.831000",
          "142807.834000",
          "142807.837000",
          "142807.840000",
          "142807.851000",
          "142807.854000",
          "142807.857000",
          "142827.793000",
          "142827.796000",
          "142827.799000",
          "142827.802000",
          "142827.805000",
          "142827.808000",
          "142827.811000",
          "142827.813000",
          "142827.816000",
          "142827.819000",
          "142827.822000",
          "142827.825000",
          "142827.828000",
          "142827.831000",
          "142827.834000",
          "142827.837000",
          "142827.840000",
          "142827.843000",
          "142827.846000",
          "142827.849000",
          "142907.792000",
          "142907.795000",
          "142907.798000",
          "142907.801000",
          "142907.804000",
          "142907.807000",
          "142907.810000",
          "142907.813000",
          "142907.816000",
          "142907.818000",
          "142907.821000",
          "142907.824000",
          "142907.827000",
          "142907.830000",
          "142907.833000",
          "142907.836000",
          "142907.839000",
          "142907.842000",
          "142907.845000",
          "142907.848000",
          "142907.851000",
          "142907.854000",
          "142907.857000",
          "142907.860000",
          "142907.863000",
          "142907.865000",
          "142907.868000",
          "142907.871000",
          "142947.792000",
          "142947.795000",
          "142947.798000",
          "142947.801000",
          "142947.804000",
          "142947.807000",
          "142947.810000",
          "142947.813000",
          "142947.816000",
          "142947.819000",
          "142947.822000",
          "142947.824000",
          "142947.827000",
          "142947.830000",
          "142947.833000",
          "142947.836000",
          "142947.839000",
          "142947.842000",
          "142947.845000",
          "142947.848000",
          "142947.851000",
          "142947.854000",
          "142947.857000",
          "142947.860000",
          "142947.863000",
          "142947.866000",
          "142947.868000",
          "143027.793000",
          "143027.870000",
          "143027.873000",
          "143027.876000",
          "143027.879000",
          "143027.882000",
          "143027.885000",
          "143027.888000",
          "143027.907000",
          "143027.910000",
          "143027.913000",
          "143027.916000",
          "143027.918000",
          "143027.921000",
          "143027.924000",
          "143027.927000",
          "143027.930000",
          "143027.933000",
          "143027.936000",
          "143027.939000",
          "143027.942000",
          "143027.945000",
          "143027.948000",
          "143027.951000",
          "143027.954000",
          "143027.957000",
          "143027.960000",
          "143107.793000",
          "143107.796000",
          "143107.799000",
          "143107.802000",
          "143107.805000",
          "143107.808000",
          "143107.811000",
          "143107.814000",
          "143107.817000",
          "143107.819000",
          "143107.822000",
          "143107.825000",
          "143107.828000",
          "143107.831000",
          "143107.834000",
          "143107.837000",
          "143107.840000",
          "143107.843000",
          "143107.846000",
          "143107.849000",
          "143107.852000",
          "143107.855000",
          "143107.858000",
          "143107.861000",
          "143107.864000",
          "143107.866000",
          "143107.869000",
          "143147.792000",
          "143147.795000",
          "143147.798000",
          "143147.801000",
          "143147.804000",
          "143147.807000",
          "143147.810000",
          "143147.813000",
          "143147.816000",
