{
  "aor": 0.0003895110024449878,
  "aqi": 0.006683898728606357,
  "bids_meta": {
    "AcquisitionMatrixPE": 104,
    "AcquisitionNumber": 1,
    "AcquisitionTime": "15:09:22.300000",
    "BandwidthPerPixelPhaseEncode": 17.17,
    "BaseResolution": 104,
    "BodyPartExamined": "BRAIN",
    "CogAtlasID": "trm_4c898da401420",
    "ConsistencyInfo": "N4_VE11C_LATEST_20160120",
    "ConversionSoftware": "dcm2niix",
    "ConversionSoftwareVersion": "v1.0.20171215 (OpenJPEG build) GCC7.3.0",
    "DerivedVendorReportedEchoSpacing": 0.000560011,
    "DeviceSerialNumber": "167006",
    "DwellTime": 2.1e-06,
    "EchoTime": 0.037,
    "EchoTrainLength": 104,
    "EffectiveEchoSpacing": 0.000560011,
    "FlipAngle": 52,
    "ImageComments": "Unaliased_MB4_PE3_LB",
    "ImageOrientationPatientDICOM": [
      0.996325,
      0.0847032,
      0.0126851,
      -0.0798124,
      0.971937,
      -0.221288
    ],
    "ImageType": [
      "ORIGINAL",
      "PRIMARY",
      "M",
      "MB",
      "ND",
      "MOSAIC"
    ],
    "InPlanePhaseEncodingDirectionDICOM": "COL",
    "InstitutionAddress": "Chemin_Queen-Mary_4565_Montreal_District_CA_H3W_1W5",
    "InstitutionName": "IUGM",
    "InstitutionalDepartmentName": "Department",
    "MRAcquisitionType": "2D",
    "MagneticFieldStrength": 3,
    "Manufacturer": "Siemens",
    "ManufacturersModelName": "Prisma_fit",
    "Modality": "MR",
    "MultibandAccelerationFactor": 4,
    "PartialFourier": 1,
    "PatientPosition": "HFS",
    "PercentPhaseFOV": 100,
    "PhaseEncodingDirection": "j-",
    "PhaseEncodingSteps": 104,
    "PhaseResolution": 1,
    "PixelBandwidth": 2290,
    "ProcedureStepDescription": "video5_generic",
    "ProtocolName": "func_task-figures1",
    "PulseSequenceDetails": "%CustomerSeq%_cmrr_mbep2d_bold",
    "ReceiveCoilActiveElements": "HC1-7;NC1,2",
    "ReceiveCoilName": "HeadNeck_64",
    "ReconMatrixPE": 104,
    "RepetitionTime": 1.49,
    "SAR": 0.0388029,
    "ScanOptions": "FS",
    "ScanningSequence": "EP",
    "SequenceName": "epfid2d1_104",
    "SequenceVariant": "SK_SS",
    "SeriesDescription": "func_task-figures1",
    "SeriesNumber": 20,
    "ShimSetting": [
      638,
      -7194,
      -8827,
      718,
      107,
      36,
      11,
      -30
    ],
    "SliceThickness": 2,
    "SliceTiming": [
      0,
      0.785,
      0.1,
      0.8825,
      0.1975,
      0.98,
      0.295,
      1.08,
      0.3925,
      1.1775,
      0.49,
      1.275,
      0.59,
      1.3725,
      0.6875,
      0,
      0.785,
      0.1,
      0.8825,
      0.1975,
      0.98,
      0.295,
      1.08,
      0.3925,
      1.1775,
      0.49,
      1.275,
      0.59,
      1.3725,
      0.6875,
      0,
      0.785,
      0.1,
      0.8825,
      0.1975,
      0.98,
      0.295,
      1.08,
      0.3925,
      1.1775,
      0.49,
      1.275,
      0.59,
      1.3725,
      0.6875,
      0,
      0.785,
      0.1,
      0.8825,
      0.1975,
      0.98,
      0.295,
      1.08,
      0.3925,
      1.1775,
      0.49,
      1.275,
      0.59,
      1.3725,
      0.6875
    ],
    "SoftwareVersions": "syngo_MR_E11",
    "SpacingBetweenSlices": 2,
    "StationName": "MRC35049",
    "TaskName": "figures01",
    "TotalReadoutTime": 0.0576811,
    "TxRefAmp": 250.028,
    "dataset": "<unset>",
    "dcmmeta_affine": [
      [
        -1.9926509857177734,
        -0.15962477028369904,
        0.062145721167325974,
        111.20195770263672
      ],
      [
        -0.16940635442733765,
        1.9438742399215698,
        -0.43892407417297363,
        -62.57011413574219
      ],
      [
        0.02537015825510025,
        0.4425751864910126,
        1.9502521753311157,
        -56.13883972167969
      ],
      [
        0.0,
        0.0,
        0.0,
        1.0
      ]
    ],
    "dcmmeta_reorient_transform": [
      [
        0.0,
        -1.0,
        0.0,
        103.0
      ],
      [
        1.0,
        0.0,
        0.0,
        0.0
      ],
      [
        0.0,
        0.0,
        1.0,
        0.0
      ],
      [
        0.0,
        0.0,
        0.0,
        1.0
      ]
    ],
    "dcmmeta_shape": [
      104,
      104,
      60,
      410
    ],
    "dcmmeta_slice_dim": 2,
    "dcmmeta_version": 0.6,
    "global": {
      "const": {
        "AcquisitionMatrix": [
          104,
          0,
          0,
          104
        ],
        "AngioFlag": "N",
        "BitsAllocated": 16,
        "BitsStored": 16,
        "BodyPartExamined": "BRAIN",
        "Columns": 832,
        "EchoNumbers": 1,
        "EchoTime": 37.0,
        "EchoTrainLength": 104,
        "FlipAngle": 52.0,
        "HighBit": 15,
        "ImageOrientationPatient": [
          0.99632547934831,
          0.0847031756533,
          0.01268507925115,
          -0.0798123831636,
          0.97193713086667,
          -0.2212875892056
        ],
        "ImagePositionPatient": [
          -761.98213708547,
          -906.88307967488,
          141.30903159871
        ],
        "ImageType": [
          "ORIGINAL",
          "PRIMARY",
          "M",
          "MB",
          "ND",
          "MOSAIC"
        ],
        "ImagedNucleus": "1H",
        "ImagingFrequency": 123.259437,
        "InPlanePhaseEncodingDirection": "COL",
        "MRAcquisitionType": "2D",
        "MagneticFieldStrength": 3.0,
        "Manufacturer": "SIEMENS",
        "ManufacturerModelName": "Prisma_fit",
        "Modality": "MR",
        "NumberOfAverages": 1.0,
        "NumberOfPhaseEncodingSteps": 104,
        "PercentPhaseFieldOfView": 100.0,
        "PercentSampling": 100.0,
        "PerformedProcedureStepStartTime": "142304.500000",
        "PhotometricInterpretation": "MONOCHROME2",
        "PixelBandwidth": 2290.0,
        "PixelRepresentation": 0,
        "PixelSpacing": [
          2.0,
          2.0
        ],
        "ProtocolName": "func_task-figures1",
        "RepetitionTime": 1490.0,
        "Rows": 832,
        "SAR": 0.0388028534161,
        "SamplesPerPixel": 1,
        "ScanOptions": "FS",
        "ScanningSequence": "EP",
        "SequenceName": "epfid2d1_104",
        "SequenceVariant": [
          "SK",
          "SS"
        ],
        "SeriesDescription": "func_task-figures1",
        "SeriesNumber": 20,
        "SeriesTime": "151047.831000",
        "SliceLocation": -37.555319406177,
        "SliceThickness": 2.0,
        "SmallestImagePixelValue": 0,
        "SoftwareVersions": "syngo MR E11",
        "SpacingBetweenSlices": 1.9999999681417,
        "SpecificCharacterSet": "ISO_IR 100",
        "StudyID": "1",
        "StudyTime": "142304.443000",
        "TransmitCoilName": "Body",
        "VariableFlipAngleFlag": "N",
        "WindowCenterWidthExplanation": "Algo1",
        "dBdt": 0.0
      },
      "slices": {}
    },
    "modality": "bold",
    "run_id": 1,
    "session_id": "007",
    "subject_id": "01",
    "task_id": "figures01",
    "time": {
      "samples": {
        "AcquisitionNumber": [
          1,
          2,
          3,
          4,
          5,
          6,
          7,
          8,
          9,
          10,
          11,
          12,
          13,
          14,
          15,
          16,
          17,
          18,
          19,
          20,
          21,
          22,
          23,
          24,
          25,
          26,
          27,
          28,
          29,
          30,
          31,
          32,
          33,
          34,
          35,
          36,
          37,
          38,
          39,
          40,
          41,
          42,
          43,
          44,
          45,
          46,
          47,
          48,
          49,
          50,
          51,
          52,
          53,
          54,
          55,
          56,
          57,
          58,
          59,
          60,
          61,
          62,
          63,
          64,
          65,
          66,
          67,
          68,
          69,
          70,
          71,
          72,
          73,
          74,
          75,
          76,
          77,
          78,
          79,
          80,
          81,
          82,
          83,
          84,
          85,
          86,
          87,
          88,
          89,
          90,
          91,
          92,
          93,
          94,
          95,
          96,
          97,
          98,
          99,
          100,
          101,
          102,
          103,
          104,
          105,
          106,
          107,
          108,
          109,
          110,
          111,
          112,
          113,
          114,
          115,
          116,
          117,
          118,
          119,
          120,
          121,
          122,
          123,
          124,
          125,
          126,
          127,
          128,
          129,
          130,
          131,
          132,
          133,
          134,
          135,
          136,
          137,
          138,
          139,
          140,
          141,
          142,
          143,
          144,
          145,
          146,
          147,
          148,
          149,
          150,
          151,
          152,
          153,
          154,
          155,
          156,
          157,
          158,
          159,
          160,
          161,
          162,
          163,
          164,
          165,
          166,
          167,
          168,
          169,
          170,
          171,
          172,
          173,
          174,
          175,
          176,
          177,
          178,
          179,
          180,
          181,
          182,
          183,
          184,
          185,
          186,
          187,
          188,
          189,
          190,
          191,
          192,
          193,
          194,
          195,
          196,
          197,
          198,
          199,
          200,
          201,
          202,
          203,
          204,
          205,
          206,
          207,
          208,
          209,
          210,
          211,
          212,
          213,
          214,
          215,
          216,
          217,
          218,
          219,
          220,
          221,
          222,
          223,
          224,
          225,
          226,
          227,
          228,
          229,
          230,
          231,
          232,
          233,
          234,
          235,
          236,
          237,
          238,
          239,
          240,
          241,
          242,
          243,
          244,
          245,
          246,
          247,
          248,
          249,
          250,
          251,
          252,
          253,
          254,
          255,
          256,
          257,
          258,
          259,
          260,
          261,
          262,
          263,
          264,
          265,
          266,
          267,
          268,
          269,
          270,
          271,
          272,
          273,
          274,
          275,
          276,
          277,
          278,
          279,
          280,
          281,
          282,
          283,
          284,
          285,
          286,
          287,
          288,
          289,
          290,
          291,
          292,
          293,
          294,
          295,
          296,
          297,
          298,
          299,
          300,
          301,
          302,
          303,
          304,
          305,
          306,
          307,
          308,
          309,
          310,
          311,
          312,
          313,
          314,
          315,
          316,
          317,
          318,
          319,
          320,
          321,
          322,
          323,
          324,
          325,
          326,
          327,
          328,
          329,
          330,
          331,
          332,
          333,
          334,
          335,
          336,
          337,
          338,
          339,
          340,
          341,
          342,
          343,
          344,
          345,
          346,
          347,
          348,
          349,
          350,
          351,
          352,
          353,
          354,
          355,
          356,
          357,
          358,
          359,
          360,
          361,
          362,
          363,
          364,
          365,
          366,
          367,
          368,
          369,
          370,
          371,
          372,
          373,
          374,
          375,
          376,
          377,
          378,
          379,
          380,
          381,
          382,
          383,
          384,
          385,
          386,
          387,
          388,
          389,
          390,
          391,
          392,
          393,
          394,
          395,
          396,
          397,
          398,
          399,
          400,
          401,
          402,
          403,
          404,
          405,
          406,
          407,
          408,
          409,
          410
        ],
        "AcquisitionTime": [
          "150922.300000",
          "150923.790000",
          "150925.280000",
          "150926.770000",
          "150928.260000",
          "150929.750000",
          "150931.240000",
          "150932.730000",
          "150934.220000",
          "150935.710000",
          "150937.200000",
          "150938.690000",
          "150940.180000",
          "150941.670000",
          "150943.160000",
          "150944.650000",
          "150946.140000",
          "150947.630000",
          "150949.120000",
          "150950.610000",
          "150952.100000",
          "150953.590000",
          "150955.080000",
          "150956.570000",
          "150958.060000",
          "150959.550000",
          "151001.040000",
          "151002.530000",
          "151004.020000",
          "151005.510000",
          "151007.000000",
          "151008.490000",
          "151009.980000",
          "151011.470000",
          "151012.960000",
          "151014.450000",
          "151015.940000",
          "151017.430000",
          "151018.920000",
          "151020.410000",
          "151021.900000",
          "151023.390000",
          "151024.880000",
          "151026.370000",
          "151027.860000",
          "151029.350000",
          "151030.840000",
          "151032.330000",
          "151033.820000",
          "151035.310000",
          "151036.800000",
          "151038.290000",
          "151039.780000",
          "151041.270000",
          "151042.760000",
          "151044.250000",
          "151045.740000",
          "151047.230000",
          "151048.720000",
          "151050.210000",
          "151051.700000",
          "151053.190000",
          "151054.680000",
          "151056.170000",
          "151057.660000",
          "151059.150000",
          "151100.640000",
          "151102.130000",
          "151103.620000",
          "151105.110000",
          "151106.600000",
          "151108.090000",
          "151109.580000",
          "151111.070000",
          "151112.560000",
          "151114.050000",
          "151115.540000",
          "151117.030000",
          "151118.520000",
          "151120.010000",
          "151121.500000",
          "151122.990000",
          "151124.480000",
          "151125.970000",
          "151127.460000",
          "151128.950000",
          "151130.440000",
          "151131.930000",
          "151133.420000",
          "151134.910000",
          "151136.400000",
          "151137.890000",
          "151139.380000",
          "151140.870000",
          "151142.360000",
          "151143.850000",
          "151145.340000",
          "151146.830000",
          "151148.320000",
          "151149.810000",
          "151151.300000",
          "151152.790000",
          "151154.280000",
          "151155.770000",
          "151157.260000",
          "151158.750000",
          "151200.240000",
          "151201.730000",
          "151203.220000",
          "151204.710000",
          "151206.200000",
          "151207.690000",
          "151209.180000",
          "151210.670000",
          "151212.160000",
          "151213.650000",
          "151215.140000",
          "151216.630000",
          "151218.120000",
          "151219.610000",
          "151221.100000",
          "151222.590000",
          "151224.080000",
          "151225.570000",
          "151227.060000",
          "151228.550000",
          "151230.040000",
          "151231.530000",
          "151233.020000",
          "151234.510000",
          "151236.000000",
          "151237.490000",
          "151238.980000",
          "151240.470000",
          "151241.960000",
          "151243.450000",
          "151244.940000",
          "151246.430000",
          "151247.920000",
          "151249.410000",
          "151250.900000",
          "151252.390000",
          "151253.880000",
          "151255.370000",
          "151256.860000",
          "151258.350000",
          "151259.840000",
          "151301.330000",
          "151302.820000",
          "151304.310000",
          "151305.800000",
          "151307.290000",
          "151308.780000",
          "151310.270000",
          "151311.760000",
          "151313.250000",
          "151314.740000",
          "151316.230000",
          "151317.720000",
          "151319.210000",
          "151320.700000",
          "151322.190000",
          "151323.680000",
          "151325.170000",
          "151326.660000",
          "151328.150000",
          "151329.640000",
          "151331.130000",
          "151332.620000",
          "151334.110000",
          "151335.600000",
          "151337.090000",
          "151338.580000",
          "151340.070000",
          "151341.560000",
          "151343.050000",
          "151344.540000",
          "151346.030000",
          "151347.520000",
          "151349.010000",
          "151350.500000",
          "151351.990000",
          "151353.480000",
          "151354.970000",
          "151356.460000",
          "151357.950000",
          "151359.440000",
          "151400.930000",
          "151402.420000",
          "151403.910000",
          "151405.400000",
          "151406.890000",
          "151408.380000",
          "151409.870000",
          "151411.360000",
          "151412.850000",
          "151414.340000",
          "151415.830000",
          "151417.320000",
          "151418.810000",
          "151420.300000",
          "151421.790000",
          "151423.280000",
          "151424.770000",
          "151426.260000",
          "151427.750000",
          "151429.240000",
          "151430.730000",
          "151432.220000",
          "151433.710000",
          "151435.200000",
          "151436.690000",
          "151438.180000",
          "151439.670000",
          "151441.160000",
          "151442.650000",
          "151444.140000",
          "151445.630000",
          "151447.120000",
          "151448.610000",
          "151450.100000",
          "151451.590000",
          "151453.080000",
          "151454.570000",
          "151456.060000",
          "151457.550000",
          "151459.040000",
          "151500.530000",
          "151502.020000",
          "151503.510000",
          "151505.000000",
          "151506.490000",
          "151507.980000",
          "151509.470000",
          "151510.960000",
          "151512.450000",
          "151513.940000",
          "151515.430000",
          "151516.920000",
          "151518.410000",
          "151519.900000",
          "151521.390000",
          "151522.880000",
          "151524.370000",
          "151525.860000",
          "151527.350000",
          "151528.840000",
          "151530.330000",
          "151531.820000",
          "151533.310000",
          "151534.800000",
          "151536.290000",
          "151537.780000",
          "151539.270000",
          "151540.760000",
          "151542.250000",
          "151543.740000",
          "151545.230000",
          "151546.720000",
          "151548.210000",
          "151549.700000",
          "151551.190000",
          "151552.680000",
          "151554.170000",
          "151555.660000",
          "151557.150000",
          "151558.640000",
          "151600.130000",
          "151601.620000",
          "151603.110000",
          "151604.600000",
          "151606.090000",
          "151607.580000",
          "151609.070000",
          "151610.560000",
          "151612.050000",
          "151613.540000",
          "151615.030000",
          "151616.520000",
          "151618.010000",
          "151619.500000",
          "151620.990000",
          "151622.480000",
          "151623.970000",
          "151625.460000",
          "151626.950000",
          "151628.440000",
          "151629.930000",
          "151631.420000",
          "151632.910000",
          "151634.400000",
          "151635.890000",
          "151637.380000",
          "151638.870000",
          "151640.360000",
          "151641.850000",
          "151643.340000",
          "151644.830000",
          "151646.320000",
          "151647.810000",
          "151649.300000",
          "151650.790000",
          "151652.280000",
          "151653.770000",
          "151655.260000",
          "151656.750000",
          "151658.240000",
          "151659.730000",
          "151701.220000",
          "151702.710000",
          "151704.200000",
          "151705.690000",
          "151707.180000",
          "151708.670000",
          "151710.160000",
          "151711.650000",
          "151713.140000",
          "151714.630000",
          "151716.120000",
          "151717.610000",
          "151719.100000",
          "151720.590000",
          "151722.080000",
          "151723.570000",
          "151725.060000",
          "151726.550000",
          "151728.040000",
          "151729.530000",
          "151731.020000",
          "151732.510000",
          "151734.000000",
          "151735.490000",
          "151736.980000",
          "151738.470000",
          "151739.960000",
          "151741.450000",
          "151742.940000",
          "151744.430000",
          "151745.920000",
          "151747.410000",
          "151748.900000",
          "151750.390000",
          "151751.880000",
          "151753.370000",
          "151754.860000",
          "151756.350000",
          "151757.840000",
          "151759.330000",
          "151800.820000",
          "151802.310000",
          "151803.800000",
          "151805.290000",
          "151806.780000",
          "151808.270000",
          "151809.760000",
          "151811.250000",
          "151812.740000",
          "151814.230000",
          "151815.720000",
          "151817.210000",
          "151818.700000",
          "151820.190000",
          "151821.680000",
          "151823.170000",
          "151824.660000",
          "151826.150000",
          "151827.640000",
          "151829.130000",
          "151830.620000",
          "151832.110000",
          "151833.600000",
          "151835.090000",
          "151836.580000",
          "151838.070000",
          "151839.560000",
          "151841.050000",
          "151842.540000",
          "151844.030000",
          "151845.520000",
          "151847.010000",
          "151848.500000",
          "151849.990000",
          "151851.480000",
          "151852.970000",
          "151854.460000",
          "151855.950000",
          "151857.440000",
          "151858.930000",
          "151900.420000",
          "151901.910000",
          "151903.400000",
          "151904.890000",
          "151906.380000",
          "151907.870000",
          "151909.360000",
          "151910.850000",
          "151912.340000",
          "151913.830000",
          "151915.320000",
          "151916.810000",
          "151918.300000",
          "151919.790000",
          "151921.280000",
          "151922.770000",
          "151924.260000",
          "151925.750000",
          "151927.240000",
          "151928.730000",
          "151930.220000",
          "151931.710000"
        ],
        "ContentTime": [
          "151047.834000",
          "151047.838000",
          "151047.841000",
          "151047.843000",
          "151047.846000",
          "151047.849000",
          "151047.852000",
          "151047.855000",
          "151047.858000",
          "151047.861000",
          "151047.864000",
          "151047.867000",
          "151047.870000",
          "151047.873000",
          "151047.876000",
          "151047.878000",
          "151047.881000",
          "151047.884000",
          "151047.887000",
          "151047.890000",
          "151047.893000",
          "151047.896000",
          "151047.899000",
          "151047.904000",
          "151047.907000",
          "151047.910000",
          "151047.913000",
          "151047.916000",
          "151047.919000",
          "151047.922000",
          "151047.925000",
          "151047.927000",
          "151107.792000",
          "151107.795000",
          "151107.798000",
          "151107.801000",
          "151107.804000",
          "151107.806000",
          "151107.809000",
          "151107.812000",
          "151107.815000",
          "151107.818000",
          "151107.821000",
          "151107.824000",
          "151107.827000",
          "151107.830000",
          "151107.833000",
          "151107.836000",
          "151107.839000",
          "151107.841000",
          "151107.844000",
          "151107.847000",
          "151127.792000",
          "151127.795000",
          "151127.798000",
          "151127.801000",
          "151127.804000",
          "151127.812000",
          "151127.815000",
          "151127.817000",
          "151127.820000",
          "151127.823000",
          "151127.826000",
          "151127.829000",
          "151127.832000",
          "151127.835000",
          "151127.838000",
          "151127.841000",
          "151127.844000",
          "151127.847000",
          "151127.850000",
          "151127.853000",
          "151147.793000",
          "151147.796000",
          "151147.799000",
          "151147.802000",
          "151147.805000",
          "151147.807000",
          "151147.810000",
          "151147.813000",
          "151147.816000",
          "151147.819000",
          "151147.822000",
          "151147.825000",
          "151147.828000",
          "151147.831000",
          "151147.833000",
          "151147.836000",
          "151147.839000",
          "151147.842000",
          "151147.845000",
          "151147.848000",
          "151227.793000",
          "151227.796000",
          "151227.799000",
          "151227.802000",
          "151227.805000",
          "151227.808000",
          "151227.811000",
          "151227.814000",
          "151227.816000",
          "151227.819000",
          "151227.822000",
          "151227.825000",
          "151227.828000",
          "151227.831000",
          "151227.834000",
          "151227.837000",
          "151227.840000",
          "151227.843000",
          "151227.845000",
          "151227.848000",
          "151227.851000",
          "151227.854000",
          "151227.857000",
          "151227.860000",
          "151227.863000",
          "151227.866000",
          "151227.869000",
          "151227.871000",
          "151227.874000",
          "151227.877000",
          "151227.880000",
          "151227.883000",
          "151307.792000",
          "151307.795000",
          "151307.798000",
          "151307.801000",
          "151307.804000",
          "151307.807000",
          "151307.810000",
          "151307.813000",
          "151307.815000",
          "151307.818000",
          "151307.821000",
          "151307.824000",
          "151307.827000",
          "151307.830000",
          "151307.833000",
          "151307.836000",
          "151307.839000",
          "151307.842000",
          "151307.845000",
          "151307.848000",
          "151307.850000",
          "151307.853000",
          "151307.856000",
          "151307.859000",
          "151307.862000",
          "151307.865000",
          "151307.868000",
          "151347.792000",
          "151347.795000",
          "151347.808000",
          "151347.811000",
          "151347.814000",
          "151347.817000",
          "151347.820000",
          "151347.823000",
          "151347.825000",
          "151347.828000",
          "151347.831000",
          "151347.834000",
          "151347.837000",
          "151347.840000",
          "151347.843000",
          "151347.846000",
          "151347.849000",
          "151347.852000",
          "151347.855000",
          "151347.858000",
          "151347.861000",
          "151347.864000",
          "151347.867000",
          "151347.870000",
          "151347.873000",
          "151347.875000",
          "151427.793000",
          "151427.796000",
          "151427.799000",
          "151427.802000",
          "151427.805000",
          "151427.808000",
          "151427.811000",
          "151427.814000",
          "151427.817000",
          "151427.820000",
          "151427.822000",
          "151427.825000",
          "151427.828000",
          "151427.831000",
          "151427.834000",
          "151427.837000",
          "151427.840000",
          "151427.843000",
          "151427.846000",
          "151427.849000",
          "151427.852000",
          "151427.855000",
          "151427.858000",
          "151427.861000",
          "151427.864000",
          "151427.867000",
          "151427.869000",
          "151507.793000",
          "151507.796000",
          "151507.799000",
          "151507.802000",
          "151507.805000",
          "151507.808000",
          "151507.811000",
          "151507.814000",
          "151507.817000",
          "151507.820000",
          "151507.822000",
          "151507.825000",
          "151507.828000",
