{
  "aor": 0.0003595609756097561,
  "aqi": 0.006320635829268293,
  "bids_meta": {
    "AcquisitionMatrixPE": 104,
    "AcquisitionNumber": 1,
    "AcquisitionTime": "15:30:48.632500",
    "BandwidthPerPixelPhaseEncode": 17.17,
    "BaseResolution": 104,
    "BodyPartExamined": "BRAIN",
    "CogAtlasID": "trm_4c898da401420",
    "ConsistencyInfo": "N4_VE11C_LATEST_20160120",
    "ConversionSoftware": "dcm2niix",
    "ConversionSoftwareVersion": "v1.0.20171215 (OpenJPEG build) GCC7.3.0",
    "DerivedVendorReportedEchoSpacing": 0.000560011,
    "DeviceSerialNumber": "167006",
    "DwellTime": 2.1e-06,
    "EchoTime": 0.037,
    "EchoTrainLength": 104,
    "EffectiveEchoSpacing": 0.000560011,
    "FlipAngle": 52,
    "ImageComments": "Unaliased_MB4_PE3_LB",
    "ImageOrientationPatientDICOM": [
      0.996325,
      0.0847032,
      0.0126851,
      -0.0798124,
      0.971937,
      -0.221288
    ],
    "ImageType": [
      "ORIGINAL",
      "PRIMARY",
      "M",
      "MB",
      "ND",
      "MOSAIC"
    ],
    "InPlanePhaseEncodingDirectionDICOM": "COL",
    "InstitutionAddress": "Chemin_Queen-Mary_4565_Montreal_District_CA_H3W_1W5",
    "InstitutionName": "IUGM",
    "InstitutionalDepartmentName": "Department",
    "MRAcquisitionType": "2D",
    "MagneticFieldStrength": 3,
    "Manufacturer": "Siemens",
    "ManufacturersModelName": "Prisma_fit",
    "Modality": "MR",
    "MultibandAccelerationFactor": 4,
    "PartialFourier": 1,
    "PatientPosition": "HFS",
    "PercentPhaseFOV": 100,
    "PhaseEncodingDirection": "j-",
    "PhaseEncodingSteps": 104,
    "PhaseResolution": 1,
    "PixelBandwidth": 2290,
    "ProcedureStepDescription": "video5_generic",
    "ProtocolName": "func_task-figures3",
    "PulseSequenceDetails": "%CustomerSeq%_cmrr_mbep2d_bold",
    "ReceiveCoilActiveElements": "HC1-7;NC1,2",
    "ReceiveCoilName": "HeadNeck_64",
    "ReconMatrixPE": 104,
    "RepetitionTime": 1.49,
    "SAR": 0.0388029,
    "ScanOptions": "FS",
    "ScanningSequence": "EP",
    "SequenceName": "epfid2d1_104",
    "SequenceVariant": "SK_SS",
    "SeriesDescription": "func_task-figures3",
    "SeriesNumber": 24,
    "ShimSetting": [
      638,
      -7194,
      -8827,
      718,
      107,
      36,
      11,
      -30
    ],
    "SliceThickness": 2,
    "SliceTiming": [
      0,
      0.785,
      0.1,
      0.8825,
      0.1975,
      0.98,
      0.295,
      1.08,
      0.3925,
      1.1775,
      0.49,
      1.275,
      0.59,
      1.3725,
      0.6875,
      0,
      0.785,
      0.1,
      0.8825,
      0.1975,
      0.98,
      0.295,
      1.08,
      0.3925,
      1.1775,
      0.49,
      1.275,
      0.59,
      1.3725,
      0.6875,
      0,
      0.785,
      0.1,
      0.8825,
      0.1975,
      0.98,
      0.295,
      1.08,
      0.3925,
      1.1775,
      0.49,
      1.275,
      0.59,
      1.3725,
      0.6875,
      0,
      0.785,
      0.1,
      0.8825,
      0.1975,
      0.98,
      0.295,
      1.08,
      0.3925,
      1.1775,
      0.49,
      1.275,
      0.59,
      1.3725,
      0.6875
    ],
    "SoftwareVersions": "syngo_MR_E11",
    "SpacingBetweenSlices": 2,
    "StationName": "MRC35049",
    "TaskName": "figures03",
    "TotalReadoutTime": 0.0576811,
    "TxRefAmp": 250.028,
    "dataset": "<unset>",
    "dcmmeta_affine": [
      [
        -1.9926509857177734,
        -0.15962477028369904,
        0.062145721167325974,
        111.20195770263672
      ],
      [
        -0.16940635442733765,
        1.9438742399215698,
        -0.43892407417297363,
        -62.57011413574219
      ],
      [
        0.02537015825510025,
        0.4425751864910126,
        1.9502521753311157,
        -56.13883972167969
      ],
      [
        0.0,
        0.0,
        0.0,
        1.0
      ]
    ],
    "dcmmeta_reorient_transform": [
      [
        0.0,
        -1.0,
        0.0,
        103.0
      ],
      [
        1.0,
        0.0,
        0.0,
        0.0
      ],
      [
        0.0,
        0.0,
        1.0,
        0.0
      ],
      [
        0.0,
        0.0,
        0.0,
        1.0
      ]
    ],
    "dcmmeta_shape": [
      104,
      104,
      60,
      410
    ],
    "dcmmeta_slice_dim": 2,
    "dcmmeta_version": 0.6,
    "global": {
      "const": {
        "AcquisitionMatrix": [
          104,
          0,
          0,
          104
        ],
        "AngioFlag": "N",
        "BitsAllocated": 16,
        "BitsStored": 16,
        "BodyPartExamined": "BRAIN",
        "Columns": 832,
        "EchoNumbers": 1,
        "EchoTime": 37.0,
        "EchoTrainLength": 104,
        "FlipAngle": 52.0,
        "HighBit": 15,
        "ImageOrientationPatient": [
          0.99632547934831,
          0.0847031756533,
          0.01268507925115,
          -0.0798123831636,
          0.97193713086667,
          -0.2212875892056
        ],
        "ImagePositionPatient": [
          -761.98213708547,
          -906.88307967488,
          141.30903159871
        ],
        "ImageType": [
          "ORIGINAL",
          "PRIMARY",
          "M",
          "MB",
          "ND",
          "MOSAIC"
        ],
        "ImagedNucleus": "1H",
        "ImagingFrequency": 123.259448,
        "InPlanePhaseEncodingDirection": "COL",
        "MRAcquisitionType": "2D",
        "MagneticFieldStrength": 3.0,
        "Manufacturer": "SIEMENS",
        "ManufacturerModelName": "Prisma_fit",
        "Modality": "MR",
        "NumberOfAverages": 1.0,
        "NumberOfPhaseEncodingSteps": 104,
        "PercentPhaseFieldOfView": 100.0,
        "PercentSampling": 100.0,
        "PerformedProcedureStepStartTime": "142304.500000",
        "PhotometricInterpretation": "MONOCHROME2",
        "PixelBandwidth": 2290.0,
        "PixelRepresentation": 0,
        "PixelSpacing": [
          2.0,
          2.0
        ],
        "ProtocolName": "func_task-figures3",
        "RepetitionTime": 1490.0,
        "Rows": 832,
        "SAR": 0.0388028534161,
        "SamplesPerPixel": 1,
        "ScanOptions": "FS",
        "ScanningSequence": "EP",
        "SequenceName": "epfid2d1_104",
        "SequenceVariant": [
          "SK",
          "SS"
        ],
        "SeriesDescription": "func_task-figures3",
        "SeriesNumber": 24,
        "SeriesTime": "153217.239000",
        "SliceLocation": -37.555319406177,
        "SliceThickness": 2.0,
        "SmallestImagePixelValue": 0,
        "SoftwareVersions": "syngo MR E11",
        "SpacingBetweenSlices": 1.9999999681417,
        "SpecificCharacterSet": "ISO_IR 100",
        "StudyID": "1",
        "StudyTime": "142304.443000",
        "TransmitCoilName": "Body",
        "VariableFlipAngleFlag": "N",
        "WindowCenterWidthExplanation": "Algo1",
        "dBdt": 0.0
      },
      "slices": {}
    },
    "modality": "bold",
    "run_id": 1,
    "session_id": "007",
    "subject_id": "01",
    "task_id": "figures03",
    "time": {
      "samples": {
        "AcquisitionNumber": [
          1,
          2,
          3,
          4,
          5,
          6,
          7,
          8,
          9,
          10,
          11,
          12,
          13,
          14,
          15,
          16,
          17,
          18,
          19,
          20,
          21,
          22,
          23,
          24,
          25,
          26,
          27,
          28,
          29,
          30,
          31,
          32,
          33,
          34,
          35,
          36,
          37,
          38,
          39,
          40,
          41,
          42,
          43,
          44,
          45,
          46,
          47,
          48,
          49,
          50,
          51,
          52,
          53,
          54,
          55,
          56,
          57,
          58,
          59,
          60,
          61,
          62,
          63,
          64,
          65,
          66,
          67,
          68,
          69,
          70,
          71,
          72,
          73,
          74,
          75,
          76,
          77,
          78,
          79,
          80,
          81,
          82,
          83,
          84,
          85,
          86,
          87,
          88,
          89,
          90,
          91,
          92,
          93,
          94,
          95,
          96,
          97,
          98,
          99,
          100,
          101,
          102,
          103,
          104,
          105,
          106,
          107,
          108,
          109,
          110,
          111,
          112,
          113,
          114,
          115,
          116,
          117,
          118,
          119,
          120,
          121,
          122,
          123,
          124,
          125,
          126,
          127,
          128,
          129,
          130,
          131,
          132,
          133,
          134,
          135,
          136,
          137,
          138,
          139,
          140,
          141,
          142,
          143,
          144,
          145,
          146,
          147,
          148,
          149,
          150,
          151,
          152,
          153,
          154,
          155,
          156,
          157,
          158,
          159,
          160,
          161,
          162,
          163,
          164,
          165,
          166,
          167,
          168,
          169,
          170,
          171,
          172,
          173,
          174,
          175,
          176,
          177,
          178,
          179,
          180,
          181,
          182,
          183,
          184,
          185,
          186,
          187,
          188,
          189,
          190,
          191,
          192,
          193,
          194,
          195,
          196,
          197,
          198,
          199,
          200,
          201,
          202,
          203,
          204,
          205,
          206,
          207,
          208,
          209,
          210,
          211,
          212,
          213,
          214,
          215,
          216,
          217,
          218,
          219,
          220,
          221,
          222,
          223,
          224,
          225,
          226,
          227,
          228,
          229,
          230,
          231,
          232,
          233,
          234,
          235,
          236,
          237,
          238,
          239,
          240,
          241,
          242,
          243,
          244,
          245,
          246,
          247,
          248,
          249,
          250,
          251,
          252,
          253,
          254,
          255,
          256,
          257,
          258,
          259,
          260,
          261,
          262,
          263,
          264,
          265,
          266,
          267,
          268,
          269,
          270,
          271,
          272,
          273,
          274,
          275,
          276,
          277,
          278,
          279,
          280,
          281,
          282,
          283,
          284,
          285,
          286,
          287,
          288,
          289,
          290,
          291,
          292,
          293,
          294,
          295,
          296,
          297,
          298,
          299,
          300,
          301,
          302,
          303,
          304,
          305,
          306,
          307,
          308,
          309,
          310,
          311,
          312,
          313,
          314,
          315,
          316,
          317,
          318,
          319,
          320,
          321,
          322,
          323,
          324,
          325,
          326,
          327,
          328,
          329,
          330,
          331,
          332,
          333,
          334,
          335,
          336,
          337,
          338,
          339,
          340,
          341,
          342,
          343,
          344,
          345,
          346,
          347,
          348,
          349,
          350,
          351,
          352,
          353,
          354,
          355,
          356,
          357,
          358,
          359,
          360,
          361,
          362,
          363,
          364,
          365,
          366,
          367,
          368,
          369,
          370,
          371,
          372,
          373,
          374,
          375,
          376,
          377,
          378,
          379,
          380,
          381,
          382,
          383,
          384,
          385,
          386,
          387,
          388,
          389,
          390,
          391,
          392,
          393,
          394,
          395,
          396,
          397,
          398,
          399,
          400,
          401,
          402,
          403,
          404,
          405,
          406,
          407,
          408,
          409,
          410
        ],
        "AcquisitionTime": [
          "153048.632500",
          "153050.122500",
          "153051.612500",
          "153053.102500",
          "153054.592500",
          "153056.082500",
          "153057.572500",
          "153059.062500",
          "153100.552500",
          "153102.042500",
          "153103.532500",
          "153105.022500",
          "153106.512500",
          "153108.002500",
          "153109.492500",
          "153110.982500",
          "153112.472500",
          "153113.962500",
          "153115.452500",
          "153116.942500",
          "153118.432500",
          "153119.922500",
          "153121.412500",
          "153122.902500",
          "153124.392500",
          "153125.882500",
          "153127.372500",
          "153128.862500",
          "153130.352500",
          "153131.842500",
          "153133.332500",
          "153134.822500",
          "153136.312500",
          "153137.802500",
          "153139.292500",
          "153140.782500",
          "153142.272500",
          "153143.762500",
          "153145.252500",
          "153146.742500",
          "153148.232500",
          "153149.722500",
          "153151.212500",
          "153152.702500",
          "153154.192500",
          "153155.682500",
          "153157.172500",
          "153158.662500",
          "153200.152500",
          "153201.642500",
          "153203.132500",
          "153204.622500",
          "153206.112500",
          "153207.602500",
          "153209.092500",
          "153210.582500",
          "153212.072500",
          "153213.562500",
          "153215.052500",
          "153216.542500",
          "153218.032500",
          "153219.522500",
          "153221.012500",
          "153222.502500",
          "153223.992500",
          "153225.482500",
          "153226.972500",
          "153228.462500",
          "153229.952500",
          "153231.442500",
          "153232.932500",
          "153234.422500",
          "153235.912500",
          "153237.402500",
          "153238.892500",
          "153240.382500",
          "153241.872500",
          "153243.362500",
          "153244.852500",
          "153246.342500",
          "153247.832500",
          "153249.322500",
          "153250.812500",
          "153252.302500",
          "153253.792500",
          "153255.282500",
          "153256.772500",
          "153258.262500",
          "153259.752500",
          "153301.242500",
          "153302.732500",
          "153304.222500",
          "153305.712500",
          "153307.202500",
          "153308.692500",
          "153310.182500",
          "153311.672500",
          "153313.162500",
          "153314.652500",
          "153316.142500",
          "153317.632500",
          "153319.122500",
          "153320.612500",
          "153322.102500",
          "153323.592500",
          "153325.082500",
          "153326.572500",
          "153328.062500",
          "153329.552500",
          "153331.042500",
          "153332.532500",
          "153334.022500",
          "153335.512500",
          "153337.002500",
          "153338.492500",
          "153339.982500",
          "153341.472500",
          "153342.962500",
          "153344.452500",
          "153345.942500",
          "153347.432500",
          "153348.922500",
          "153350.412500",
          "153351.902500",
          "153353.392500",
          "153354.882500",
          "153356.372500",
          "153357.862500",
          "153359.352500",
          "153400.842500",
          "153402.332500",
          "153403.822500",
          "153405.312500",
          "153406.802500",
          "153408.292500",
          "153409.782500",
          "153411.272500",
          "153412.762500",
          "153414.252500",
          "153415.742500",
          "153417.232500",
          "153418.722500",
          "153420.212500",
          "153421.702500",
          "153423.192500",
          "153424.682500",
          "153426.172500",
          "153427.662500",
          "153429.152500",
          "153430.642500",
          "153432.132500",
          "153433.622500",
          "153435.112500",
          "153436.602500",
          "153438.092500",
          "153439.582500",
          "153441.072500",
          "153442.562500",
          "153444.052500",
          "153445.542500",
          "153447.032500",
          "153448.522500",
          "153450.012500",
          "153451.502500",
          "153452.992500",
          "153454.482500",
          "153455.972500",
          "153457.462500",
          "153458.952500",
          "153500.442500",
          "153501.932500",
          "153503.422500",
          "153504.912500",
          "153506.402500",
          "153507.892500",
          "153509.382500",
          "153510.872500",
          "153512.362500",
          "153513.852500",
          "153515.342500",
          "153516.832500",
          "153518.322500",
          "153519.812500",
          "153521.302500",
          "153522.792500",
          "153524.282500",
          "153525.772500",
          "153527.262500",
          "153528.752500",
          "153530.242500",
          "153531.732500",
          "153533.222500",
          "153534.712500",
          "153536.202500",
          "153537.692500",
          "153539.182500",
          "153540.672500",
          "153542.162500",
          "153543.652500",
          "153545.142500",
          "153546.632500",
          "153548.122500",
          "153549.612500",
          "153551.102500",
          "153552.592500",
          "153554.082500",
          "153555.572500",
          "153557.062500",
          "153558.552500",
          "153600.042500",
          "153601.532500",
          "153603.022500",
          "153604.512500",
          "153606.002500",
          "153607.492500",
          "153608.982500",
          "153610.472500",
          "153611.962500",
          "153613.452500",
          "153614.942500",
          "153616.432500",
          "153617.922500",
          "153619.412500",
          "153620.902500",
          "153622.392500",
          "153623.882500",
          "153625.372500",
          "153626.862500",
          "153628.352500",
          "153629.842500",
          "153631.332500",
          "153632.822500",
          "153634.312500",
          "153635.802500",
          "153637.292500",
          "153638.782500",
          "153640.272500",
          "153641.762500",
          "153643.252500",
          "153644.742500",
          "153646.232500",
          "153647.722500",
          "153649.212500",
          "153650.702500",
          "153652.192500",
          "153653.682500",
          "153655.172500",
          "153656.662500",
          "153658.152500",
          "153659.642500",
          "153701.132500",
          "153702.622500",
          "153704.112500",
          "153705.602500",
          "153707.092500",
          "153708.582500",
          "153710.072500",
          "153711.562500",
          "153713.052500",
          "153714.542500",
          "153716.032500",
          "153717.522500",
          "153719.012500",
          "153720.502500",
          "153721.992500",
          "153723.482500",
          "153724.972500",
          "153726.462500",
          "153727.952500",
          "153729.442500",
          "153730.932500",
          "153732.422500",
          "153733.912500",
          "153735.402500",
          "153736.892500",
          "153738.382500",
          "153739.872500",
          "153741.362500",
          "153742.852500",
          "153744.342500",
          "153745.832500",
          "153747.322500",
          "153748.812500",
          "153750.302500",
          "153751.792500",
          "153753.282500",
          "153754.772500",
          "153756.262500",
          "153757.752500",
          "153759.242500",
          "153800.732500",
          "153802.222500",
          "153803.712500",
          "153805.202500",
          "153806.692500",
          "153808.182500",
          "153809.672500",
          "153811.162500",
          "153812.652500",
          "153814.142500",
          "153815.632500",
          "153817.122500",
          "153818.612500",
          "153820.102500",
          "153821.592500",
          "153823.082500",
          "153824.572500",
          "153826.062500",
          "153827.552500",
          "153829.042500",
          "153830.532500",
          "153832.022500",
          "153833.512500",
          "153835.002500",
          "153836.492500",
          "153837.982500",
          "153839.472500",
          "153840.962500",
          "153842.452500",
          "153843.942500",
          "153845.432500",
          "153846.922500",
          "153848.412500",
          "153849.902500",
          "153851.392500",
          "153852.882500",
          "153854.372500",
          "153855.862500",
          "153857.352500",
          "153858.842500",
          "153900.332500",
          "153901.822500",
          "153903.312500",
          "153904.802500",
          "153906.292500",
          "153907.782500",
          "153909.272500",
          "153910.762500",
          "153912.252500",
          "153913.742500",
          "153915.232500",
          "153916.722500",
          "153918.212500",
          "153919.702500",
          "153921.192500",
          "153922.682500",
          "153924.172500",
          "153925.662500",
          "153927.152500",
          "153928.642500",
          "153930.132500",
          "153931.622500",
          "153933.112500",
          "153934.602500",
          "153936.092500",
          "153937.582500",
          "153939.072500",
          "153940.562500",
          "153942.052500",
          "153943.542500",
          "153945.032500",
          "153946.522500",
          "153948.012500",
          "153949.502500",
          "153950.992500",
          "153952.482500",
          "153953.972500",
          "153955.462500",
          "153956.952500",
          "153958.442500",
          "153959.932500",
          "154001.422500",
          "154002.912500",
          "154004.402500",
          "154005.892500",
          "154007.382500",
          "154008.872500",
          "154010.362500",
          "154011.852500",
          "154013.342500",
          "154014.832500",
          "154016.322500",
          "154017.812500",
          "154019.302500",
          "154020.792500",
          "154022.282500",
          "154023.772500",
          "154025.262500",
          "154026.752500",
          "154028.242500",
          "154029.732500",
          "154031.222500",
          "154032.712500",
          "154034.202500",
          "154035.692500",
          "154037.182500",
          "154038.672500",
          "154040.162500",
          "154041.652500",
          "154043.142500",
          "154044.632500",
          "154046.122500",
          "154047.612500",
          "154049.102500",
          "154050.592500",
          "154052.082500",
          "154053.572500",
          "154055.062500",
          "154056.552500",
          "154058.042500"
        ],
        "ContentTime": [
          "153217.242000",
          "153217.246000",
          "153217.249000",
          "153217.252000",
          "153217.255000",
          "153217.258000",
          "153217.260000",
          "153217.263000",
          "153217.266000",
          "153217.269000",
          "153217.272000",
          "153217.275000",
          "153217.278000",
          "153217.281000",
          "153217.284000",
          "153217.287000",
          "153217.290000",
          "153217.296000",
          "153217.299000",
          "153217.302000",
          "153217.305000",
          "153217.313000",
          "153217.316000",
          "153217.319000",
          "153217.322000",
          "153217.325000",
          "153217.328000",
          "153217.331000",
          "153217.334000",
          "153217.337000",
          "153217.340000",
          "153217.342000",
          "153217.345000",
          "153217.348000",
          "153237.208000",
          "153237.211000",
          "153237.214000",
          "153237.217000",
          "153237.220000",
          "153237.223000",
          "153237.226000",
          "153237.229000",
          "153237.232000",
          "153237.235000",
          "153237.238000",
          "153237.241000",
          "153237.243000",
          "153237.246000",
          "153237.249000",
          "153237.252000",
          "153237.255000",
          "153237.275000",
          "153237.278000",
          "153237.281000",
          "153257.208000",
          "153257.211000",
          "153257.214000",
          "153257.217000",
          "153257.220000",
          "153257.223000",
          "153257.226000",
          "153257.228000",
          "153257.231000",
          "153257.234000",
          "153257.237000",
          "153257.240000",
          "153257.243000",
          "153257.246000",
          "153257.249000",
          "153257.252000",
          "153257.255000",
          "153257.258000",
          "153257.260000",
          "153257.263000",
          "153317.208000",
          "153317.211000",
          "153317.214000",
          "153317.217000",
          "153317.220000",
          "153317.223000",
          "153317.226000",
          "153317.229000",
          "153317.232000",
          "153317.240000",
          "153317.243000",
          "153317.246000",
          "153317.249000",
          "153317.252000",
          "153317.255000",
          "153317.258000",
          "153317.261000",
          "153317.264000",
          "153317.267000",
          "153317.270000",
          "153357.208000",
          "153357.211000",
          "153357.214000",
          "153357.217000",
          "153357.220000",
          "153357.223000",
          "153357.226000",
          "153357.229000",
          "153357.232000",
          "153357.235000",
          "153357.237000",
          "153357.240000",
          "153357.243000",
          "153357.246000",
          "153357.249000",
          "153357.252000",
          "153357.255000",
          "153357.258000",
          "153357.261000",
          "153357.264000",
          "153357.266000",
          "153357.269000",
          "153357.272000",
          "153357.275000",
          "153357.278000",
          "153357.281000",
          "153357.284000",
          "153357.287000",
          "153357.290000",
          "153357.293000",
          "153357.296000",
          "153357.299000",
          "153437.208000",
          "153437.211000",
          "153437.214000",
          "153437.217000",
          "153437.220000",
          "153437.223000",
          "153437.226000",
          "153437.228000",
          "153437.231000",
          "153437.234000",
          "153437.237000",
          "153437.240000",
          "153437.243000",
          "153437.246000",
          "153437.249000",
          "153437.252000",
          "153437.255000",
          "153437.258000",
          "153437.260000",
          "153437.263000",
          "153437.266000",
          "153437.269000",
          "153437.272000",
          "153437.275000",
          "153437.278000",
          "153437.281000",
          "153437.284000",
          "153517.208000",
          "153517.217000",
          "153517.220000",
          "153517.223000",
          "153517.226000",
          "153517.229000",
          "153517.232000",
          "153517.235000",
          "153517.238000",
          "153517.241000",
          "153517.244000",
          "153517.247000",
          "153517.251000",
          "153517.255000",
          "153517.259000",
          "153517.262000",
          "153517.265000",
          "153517.268000",
          "153517.271000",
          "153517.274000",
          "153517.277000",
          "153517.280000",
          "153517.283000",
          "153517.286000",
          "153517.289000",
          "153517.292000",
          "153557.208000",
          "153557.211000",
          "153557.214000",
          "153557.217000",
          "153557.220000",
          "153557.223000",
          "153557.226000",
          "153557.229000",
          "153557.232000",
          "153557.234000",
          "153557.237000",
          "153557.240000",
          "153557.243000",
          "153557.246000",
          "153557.249000",
          "153557.252000",
          "153557.255000",
          "153557.258000",
          "153557.261000",
          "153557.264000",
          "153557.267000",
          "153557.270000",
          "153557.272000",
          "153557.275000",
          "153557.278000",
          "153557.281000",
          "153557.284000",
          "153637.208000",
          "153637.211000",
          "153637.214000",
          "153637.217000",
          "153637.220000",
          "153637.227000",
          "153637.230000",
          "153637.233000",
          "153637.236000",
          "153637.239000",
          "153637.251000",
