{
  "aor": 0.0005883846153846153,
  "aqi": 0.006100529358974358,
  "bids_meta": {
    "AcquisitionMatrixPE": 104,
    "AcquisitionNumber": 1,
    "AcquisitionTime": "13:02:32.785000",
    "BandwidthPerPixelPhaseEncode": 17.17,
    "BaseResolution": 104,
    "BodyPartExamined": "BRAIN",
    "CogAtlasID": "trm_4c898da401420",
    "CoilString": "HC1-7;NC1_2",
    "ConsistencyInfo": "N4_VE11C_LATEST_20160120",
    "ConversionSoftware": "dcm2niix",
    "ConversionSoftwareVersion": "v1.0.20190720  (JP2:OpenJPEG) GCC7.3.0",
    "DerivedVendorReportedEchoSpacing": 0.000560011,
    "DeviceSerialNumber": "167006",
    "DwellTime": 2.1e-06,
    "EchoTime": 0.037,
    "EchoTrainLength": 104,
    "EffectiveEchoSpacing": 0.000560011,
    "FlipAngle": 52,
    "ImageComments": "Unaliased_MB4_PE3_LB",
    "ImageOrientationPatientDICOM": [
      0.997294,
      0.0304277,
      -0.0669169,
      -0.037615,
      0.993339,
      -0.108914
    ],
    "ImageType": [
      "ORIGINAL",
      "PRIMARY",
      "M",
      "MB",
      "ND",
      "MOSAIC"
    ],
    "ImagingFrequency": 123.259,
    "InPlanePhaseEncodingDirectionDICOM": "COL",
    "InstitutionAddress": "Chemin_Queen-Mary_4565_Montreal_District_CA_H3W_1W5",
    "InstitutionName": "IUGM",
    "InstitutionalDepartmentName": "Department",
    "MRAcquisitionType": "2D",
    "MagneticFieldStrength": 3,
    "Manufacturer": "Siemens",
    "ManufacturersModelName": "Prisma_fit",
    "Modality": "MR",
    "MultibandAccelerationFactor": 4,
    "PartialFourier": 1,
    "PatientPosition": "HFS",
    "PercentPhaseFOV": 100,
    "PhaseEncodingDirection": "j-",
    "PhaseEncodingSteps": 104,
    "PhaseResolution": 1,
    "PixelBandwidth": 2290,
    "ProcedureStepDescription": "video5_generic",
    "ProtocolName": "func_task-life5",
    "PulseSequenceDetails": "%CustomerSeq%_cmrr_mbep2d_bold",
    "ReceiveCoilActiveElements": "HC1-7;NC1,2",
    "ReceiveCoilName": "HeadNeck_64",
    "ReconMatrixPE": 104,
    "RepetitionTime": 1.49,
    "SAR": 0.0339908,
    "ScanOptions": "FS",
    "ScanningSequence": "EP",
    "SequenceName": "epfid2d1_104",
    "SequenceVariant": "SK_SS",
    "SeriesDescription": "func_task-life5",
    "SeriesNumber": 21,
    "ShimSetting": [
      597,
      -7262,
      -8845,
      543,
      -42,
      -320,
      -20,
      44
    ],
    "SliceThickness": 2,
    "SliceTiming": [
      0,
      0.7825,
      0.0975,
      0.88,
      0.195,
      0.98,
      0.2925,
      1.0775,
      0.39,
      1.175,
      0.49,
      1.2725,
      0.5875,
      1.37,
      0.685,
      0,
      0.7825,
      0.0975,
      0.88,
      0.195,
      0.98,
      0.2925,
      1.0775,
      0.39,
      1.175,
      0.49,
      1.2725,
      0.5875,
      1.37,
      0.685,
      0,
      0.7825,
      0.0975,
      0.88,
      0.195,
      0.98,
      0.2925,
      1.0775,
      0.39,
      1.175,
      0.49,
      1.2725,
      0.5875,
      1.37,
      0.685,
      0,
      0.7825,
      0.0975,
      0.88,
      0.195,
      0.98,
      0.2925,
      1.0775,
      0.39,
      1.175,
      0.49,
      1.2725,
      0.5875,
      1.37,
      0.685
    ],
    "SoftwareVersions": "syngo_MR_E11",
    "SpacingBetweenSlices": 2,
    "StationName": "MRC35049",
    "TaskName": "life05",
    "TotalReadoutTime": 0.0576811,
    "TxRefAmp": 220.484,
    "WipMemBlock": "e4ca01a4-735f-4851-918e-7017836e3cbb||Sequence: R016 ve11c/master r/e634e98; Dec 19 2017 11:00:25 by eja",
    "dataset": "<unset>",
    "dcmmeta_affine": [
      [
        -1.9945889711380005,
        -0.07522992789745331,
        -0.12631437182426453,
        108.03447723388672
      ],
      [
        -0.060855381190776825,
        1.9866784811019897,
        -0.22227253019809723,
        -73.41963958740234
      ],
      [
        -0.13383379578590393,
        0.217827707529068,
        1.9835926294326782,
        -41.73286819458008
      ],
      [
        0.0,
        0.0,
        0.0,
        1.0
      ]
    ],
    "dcmmeta_reorient_transform": [
      [
        0.0,
        -1.0,
        0.0,
        103.0
      ],
      [
        1.0,
        0.0,
        0.0,
        0.0
      ],
      [
        0.0,
        0.0,
        1.0,
        0.0
      ],
      [
        0.0,
        0.0,
        0.0,
        1.0
      ]
    ],
    "dcmmeta_shape": [
      104,
      104,
      60,
      391
    ],
    "dcmmeta_slice_dim": 2,
    "dcmmeta_version": 0.6,
    "global": {
      "const": {
        "AcquisitionMatrix": [
          104,
          0,
          0,
          104
        ],
        "AngioFlag": "N",
        "BitsAllocated": 16,
        "BitsStored": 16,
        "BodyPartExamined": "BRAIN",
        "Columns": 832,
        "EchoNumbers": 1,
        "EchoTime": 37.0,
        "EchoTrainLength": 104,
        "FlipAngle": 52.0,
        "HighBit": 15,
        "ImageOrientationPatient": [
          0.99729448212994,
          0.03042769066564,
          -0.0669169003611,
          -0.0376149654304,
          0.99333926031603,
          -0.1089138572013
        ],
        "ImagePositionPatient": [
          -798.93248232088,
          -876.51059155903,
          108.70817866476
        ],
        "ImageType": [
          "ORIGINAL",
          "PRIMARY",
          "M",
          "MB",
          "ND",
          "MOSAIC"
        ],
        "ImagedNucleus": "1H",
        "ImagingFrequency": 123.259,
        "InPlanePhaseEncodingDirection": "COL",
        "MRAcquisitionType": "2D",
        "MagneticFieldStrength": 3.0,
        "Manufacturer": "SIEMENS",
        "ManufacturerModelName": "Prisma_fit",
        "Modality": "MR",
        "NumberOfAverages": 1.0,
        "NumberOfPhaseEncodingSteps": 104,
        "PercentPhaseFieldOfView": 100.0,
        "PercentSampling": 100.0,
        "PerformedProcedureStepStartTime": "114702.209000",
        "PhotometricInterpretation": "MONOCHROME2",
        "PixelBandwidth": 2290.0,
        "PixelRepresentation": 0,
        "PixelSpacing": [
          2.0,
          2.0
        ],
        "ProtocolName": "func_task-life5",
        "RepetitionTime": 1490.0,
        "Rows": 832,
        "SAR": 0.03399082944943,
        "SamplesPerPixel": 1,
        "ScanOptions": "FS",
        "ScanningSequence": "EP",
        "SequenceName": "epfid2d1_104",
        "SequenceVariant": [
          "SK",
          "SS"
        ],
        "SeriesDescription": "func_task-life5",
        "SeriesNumber": 21,
        "SeriesTime": "130407.242000",
        "SliceLocation": -40.054072956706,
        "SliceThickness": 2.0,
        "SmallestImagePixelValue": 0,
        "SoftwareVersions": "syngo MR E11",
        "SpacingBetweenSlices": 2.000000000222,
        "SpecificCharacterSet": "ISO_IR 100",
        "StudyID": "1",
        "StudyTime": "114702.145000",
        "TransmitCoilName": "Body",
        "VariableFlipAngleFlag": "N",
        "WindowCenterWidthExplanation": "Algo1",
        "dBdt": 0.0
      },
      "slices": {}
    },
    "modality": "bold",
    "run_id": 2,
    "session_id": "009",
    "subject_id": "04",
    "task_id": "life05",
    "time": {
      "samples": {
        "AcquisitionNumber": [
          1,
          2,
          3,
          4,
          5,
          6,
          7,
          8,
          9,
          10,
          11,
          12,
          13,
          14,
          15,
          16,
          17,
          18,
          19,
          20,
          21,
          22,
          23,
          24,
          25,
          26,
          27,
          28,
          29,
          30,
          31,
          32,
          33,
          34,
          35,
          36,
          37,
          38,
          39,
          40,
          41,
          42,
          43,
          44,
          45,
          46,
          47,
          48,
          49,
          50,
          51,
          52,
          53,
          54,
          55,
          56,
          57,
          58,
          59,
          60,
          61,
          62,
          63,
          64,
          65,
          66,
          67,
          68,
          69,
          70,
          71,
          72,
          73,
          74,
          75,
          76,
          77,
          78,
          79,
          80,
          81,
          82,
          83,
          84,
          85,
          86,
          87,
          88,
          89,
          90,
          91,
          92,
          93,
          94,
          95,
          96,
          97,
          98,
          99,
          100,
          101,
          102,
          103,
          104,
          105,
          106,
          107,
          108,
          109,
          110,
          111,
          112,
          113,
          114,
          115,
          116,
          117,
          118,
          119,
          120,
          121,
          122,
          123,
          124,
          125,
          126,
          127,
          128,
          129,
          130,
          131,
          132,
          133,
          134,
          135,
          136,
          137,
          138,
          139,
          140,
          141,
          142,
          143,
          144,
          145,
          146,
          147,
          148,
          149,
          150,
          151,
          152,
          153,
          154,
          155,
          156,
          157,
          158,
          159,
          160,
          161,
          162,
          163,
          164,
          165,
          166,
          167,
          168,
          169,
          170,
          171,
          172,
          173,
          174,
          175,
          176,
          177,
          178,
          179,
          180,
          181,
          182,
          183,
          184,
          185,
          186,
          187,
          188,
          189,
          190,
          191,
          192,
          193,
          194,
          195,
          196,
          197,
          198,
          199,
          200,
          201,
          202,
          203,
          204,
          205,
          206,
          207,
          208,
          209,
          210,
          211,
          212,
          213,
          214,
          215,
          216,
          217,
          218,
          219,
          220,
          221,
          222,
          223,
          224,
          225,
          226,
          227,
          228,
          229,
          230,
          231,
          232,
          233,
          234,
          235,
          236,
          237,
          238,
          239,
          240,
          241,
          242,
          243,
          244,
          245,
          246,
          247,
          248,
          249,
          250,
          251,
          252,
          253,
          254,
          255,
          256,
          257,
          258,
          259,
          260,
          261,
          262,
          263,
          264,
          265,
          266,
          267,
          268,
          269,
          270,
          271,
          272,
          273,
          274,
          275,
          276,
          277,
          278,
          279,
          280,
          281,
          282,
          283,
          284,
          285,
          286,
          287,
          288,
          289,
          290,
          291,
          292,
          293,
          294,
          295,
          296,
          297,
          298,
          299,
          300,
          301,
          302,
          303,
          304,
          305,
          306,
          307,
          308,
          309,
          310,
          311,
          312,
          313,
          314,
          315,
          316,
          317,
          318,
          319,
          320,
          321,
          322,
          323,
          324,
          325,
          326,
          327,
          328,
          329,
          330,
          331,
          332,
          333,
          334,
          335,
          336,
          337,
          338,
          339,
          340,
          341,
          342,
          343,
          344,
          345,
          346,
          347,
          348,
          349,
          350,
          351,
          352,
          353,
          354,
          355,
          356,
          357,
          358,
          359,
          360,
          361,
          362,
          363,
          364,
          365,
          366,
          367,
          368,
          369,
          370,
          371,
          372,
          373,
          374,
          375,
          376,
          377,
          378,
          379,
          380,
          381,
          382,
          383,
          384,
          385,
          386,
          387,
          388,
          389,
          390,
          391
        ],
        "AcquisitionTime": [
          "130232.785000",
          "130234.275000",
          "130235.765000",
          "130237.255000",
          "130238.745000",
          "130240.235000",
          "130241.725000",
          "130243.215000",
          "130244.705000",
          "130246.195000",
          "130247.685000",
          "130249.175000",
          "130250.665000",
          "130252.155000",
          "130253.645000",
          "130255.135000",
          "130256.625000",
          "130258.115000",
          "130259.605000",
          "130301.095000",
          "130302.585000",
          "130304.075000",
          "130305.565000",
          "130307.055000",
          "130308.545000",
          "130310.035000",
          "130311.525000",
          "130313.015000",
          "130314.505000",
          "130315.995000",
          "130317.485000",
          "130318.975000",
          "130320.465000",
          "130321.955000",
          "130323.445000",
          "130324.935000",
          "130326.425000",
          "130327.915000",
          "130329.405000",
          "130330.895000",
          "130332.385000",
          "130333.875000",
          "130335.365000",
          "130336.855000",
          "130338.345000",
          "130339.835000",
          "130341.325000",
          "130342.815000",
          "130344.305000",
          "130345.795000",
          "130347.285000",
          "130348.775000",
          "130350.265000",
          "130351.755000",
          "130353.245000",
          "130354.735000",
          "130356.225000",
          "130357.715000",
          "130359.205000",
          "130400.695000",
          "130402.185000",
          "130403.675000",
          "130405.165000",
          "130406.655000",
          "130408.145000",
          "130409.635000",
          "130411.125000",
          "130412.615000",
          "130414.105000",
          "130415.595000",
          "130417.085000",
          "130418.575000",
          "130420.065000",
          "130421.555000",
          "130423.045000",
          "130424.535000",
          "130426.025000",
          "130427.515000",
          "130429.005000",
          "130430.495000",
          "130431.985000",
          "130433.475000",
          "130434.965000",
          "130436.455000",
          "130437.945000",
          "130439.435000",
          "130440.925000",
          "130442.415000",
          "130443.905000",
          "130445.395000",
          "130446.885000",
          "130448.375000",
          "130449.865000",
          "130451.355000",
          "130452.845000",
          "130454.335000",
          "130455.825000",
          "130457.315000",
          "130458.805000",
          "130500.295000",
          "130501.785000",
          "130503.275000",
          "130504.765000",
          "130506.255000",
          "130507.745000",
          "130509.235000",
          "130510.725000",
          "130512.215000",
          "130513.705000",
          "130515.195000",
          "130516.685000",
          "130518.175000",
          "130519.665000",
          "130521.155000",
          "130522.645000",
          "130524.135000",
          "130525.625000",
          "130527.115000",
          "130528.605000",
          "130530.095000",
          "130531.585000",
          "130533.075000",
          "130534.565000",
          "130536.055000",
          "130537.545000",
          "130539.035000",
          "130540.525000",
          "130542.015000",
          "130543.505000",
          "130544.995000",
          "130546.485000",
          "130547.975000",
          "130549.465000",
          "130550.955000",
          "130552.445000",
          "130553.935000",
          "130555.425000",
          "130556.915000",
          "130558.405000",
          "130559.895000",
          "130601.385000",
          "130602.875000",
          "130604.365000",
          "130605.855000",
          "130607.345000",
          "130608.835000",
          "130610.325000",
          "130611.815000",
          "130613.305000",
          "130614.795000",
          "130616.285000",
          "130617.775000",
          "130619.265000",
          "130620.755000",
          "130622.245000",
          "130623.735000",
          "130625.225000",
          "130626.715000",
          "130628.205000",
          "130629.695000",
          "130631.185000",
          "130632.675000",
          "130634.165000",
          "130635.655000",
          "130637.145000",
          "130638.635000",
          "130640.125000",
          "130641.615000",
          "130643.105000",
          "130644.595000",
          "130646.085000",
          "130647.575000",
          "130649.065000",
          "130650.555000",
          "130652.045000",
          "130653.535000",
          "130655.025000",
          "130656.515000",
          "130658.005000",
          "130659.495000",
          "130700.985000",
          "130702.475000",
          "130703.965000",
          "130705.455000",
          "130706.945000",
          "130708.435000",
          "130709.925000",
          "130711.415000",
          "130712.905000",
          "130714.395000",
          "130715.885000",
          "130717.375000",
          "130718.865000",
          "130720.355000",
          "130721.845000",
          "130723.335000",
          "130724.825000",
          "130726.315000",
          "130727.805000",
          "130729.295000",
          "130730.785000",
          "130732.275000",
          "130733.765000",
          "130735.255000",
          "130736.745000",
          "130738.235000",
          "130739.725000",
          "130741.215000",
          "130742.705000",
          "130744.195000",
          "130745.685000",
          "130747.175000",
          "130748.665000",
          "130750.155000",
          "130751.645000",
          "130753.135000",
          "130754.625000",
          "130756.115000",
          "130757.605000",
          "130759.095000",
          "130800.585000",
          "130802.075000",
          "130803.565000",
          "130805.055000",
          "130806.545000",
          "130808.035000",
          "130809.525000",
          "130811.015000",
          "130812.505000",
          "130813.995000",
          "130815.485000",
          "130816.975000",
          "130818.465000",
          "130819.955000",
          "130821.445000",
          "130822.935000",
          "130824.425000",
          "130825.915000",
          "130827.405000",
          "130828.895000",
          "130830.385000",
          "130831.875000",
          "130833.365000",
          "130834.855000",
          "130836.345000",
          "130837.835000",
          "130839.325000",
          "130840.815000",
          "130842.305000",
          "130843.795000",
          "130845.285000",
          "130846.775000",
          "130848.265000",
          "130849.755000",
          "130851.245000",
          "130852.735000",
          "130854.225000",
          "130855.715000",
          "130857.205000",
          "130858.695000",
          "130900.185000",
          "130901.675000",
          "130903.165000",
          "130904.655000",
          "130906.145000",
          "130907.635000",
          "130909.125000",
          "130910.615000",
          "130912.105000",
          "130913.595000",
          "130915.085000",
          "130916.575000",
          "130918.065000",
          "130919.555000",
          "130921.045000",
          "130922.535000",
          "130924.025000",
          "130925.515000",
          "130927.005000",
          "130928.495000",
          "130929.985000",
          "130931.475000",
          "130932.965000",
          "130934.455000",
          "130935.945000",
          "130937.435000",
          "130938.925000",
          "130940.415000",
          "130941.905000",
          "130943.395000",
          "130944.885000",
          "130946.375000",
          "130947.865000",
          "130949.355000",
          "130950.845000",
          "130952.335000",
          "130953.825000",
          "130955.315000",
          "130956.805000",
          "130958.295000",
          "130959.785000",
          "131001.275000",
          "131002.765000",
          "131004.255000",
          "131005.745000",
          "131007.235000",
          "131008.725000",
          "131010.215000",
          "131011.705000",
          "131013.195000",
          "131014.685000",
          "131016.175000",
          "131017.665000",
          "131019.155000",
          "131020.645000",
          "131022.135000",
          "131023.625000",
          "131025.115000",
          "131026.605000",
          "131028.095000",
          "131029.585000",
          "131031.075000",
          "131032.565000",
          "131034.055000",
          "131035.545000",
          "131037.035000",
          "131038.525000",
          "131040.015000",
          "131041.505000",
          "131042.995000",
          "131044.485000",
          "131045.975000",
          "131047.465000",
          "131048.955000",
          "131050.445000",
          "131051.935000",
          "131053.425000",
          "131054.915000",
          "131056.405000",
          "131057.895000",
          "131059.385000",
          "131100.875000",
          "131102.365000",
          "131103.855000",
          "131105.345000",
          "131106.835000",
          "131108.325000",
          "131109.815000",
          "131111.305000",
          "131112.795000",
          "131114.285000",
          "131115.775000",
          "131117.265000",
          "131118.755000",
          "131120.245000",
          "131121.735000",
          "131123.225000",
          "131124.715000",
          "131126.205000",
          "131127.695000",
          "131129.185000",
          "131130.675000",
          "131132.165000",
          "131133.655000",
          "131135.145000",
          "131136.635000",
          "131138.125000",
          "131139.615000",
          "131141.105000",
          "131142.595000",
          "131144.085000",
          "131145.575000",
          "131147.065000",
          "131148.555000",
          "131150.045000",
          "131151.535000",
          "131153.025000",
          "131154.515000",
          "131156.005000",
          "131157.495000",
          "131158.985000",
          "131200.475000",
          "131201.965000",
          "131203.455000",
          "131204.945000",
          "131206.435000",
          "131207.925000",
          "131209.415000",
          "131210.905000",
          "131212.395000",
          "131213.885000"
        ],
        "ContentTime": [
          "130407.245000",
          "130407.249000",
          "130407.251000",
          "130407.254000",
          "130407.257000",
          "130407.260000",
          "130407.263000",
          "130407.266000",
          "130407.269000",
          "130407.272000",
          "130407.274000",
          "130407.277000",
          "130407.280000",
          "130407.283000",
          "130407.286000",
          "130407.289000",
          "130407.292000",
          "130407.294000",
          "130407.297000",
          "130407.300000",
          "130407.303000",
          "130407.305000",
          "130407.308000",
          "130407.322000",
          "130407.325000",
          "130407.327000",
          "130407.330000",
          "130407.333000",
          "130407.336000",
          "130407.339000",
          "130407.342000",
          "130407.344000",
          "130407.347000",
          "130407.350000",
          "130407.353000",
          "130407.356000",
          "130407.359000",
          "130407.361000",
          "130407.364000",
          "130427.209000",
          "130427.212000",
          "130427.215000",
          "130427.218000",
          "130427.220000",
          "130427.223000",
          "130427.229000",
          "130427.232000",
          "130427.235000",
          "130427.237000",
          "130427.240000",
          "130427.243000",
          "130427.246000",
          "130427.249000",
          "130427.252000",
          "130427.255000",
          "130427.258000",
          "130427.260000",
          "130427.263000",
          "130427.266000",
          "130427.269000",
          "130447.209000",
          "130447.212000",
          "130447.215000",
          "130447.217000",
          "130447.220000",
          "130447.223000",
          "130447.227000",
          "130447.230000",
          "130447.233000",
          "130447.236000",
          "130447.239000",
          "130447.242000",
          "130447.244000",
          "130447.247000",
          "130447.250000",
          "130447.253000",
          "130447.256000",
          "130447.259000",
          "130447.262000",
          "130447.264000",
          "130507.209000",
          "130507.212000",
          "130507.215000",
          "130507.217000",
          "130507.221000",
          "130507.223000",
          "130507.226000",
          "130507.229000",
          "130507.232000",
          "130507.235000",
          "130507.238000",
          "130507.240000",
          "130507.243000",
          "130507.246000",
          "130507.249000",
          "130507.252000",
          "130507.255000",
          "130507.258000",
          "130507.260000",
          "130507.263000",
          "130547.209000",
          "130547.212000",
          "130547.215000",
          "130547.218000",
          "130547.220000",
          "130547.223000",
          "130547.226000",
          "130547.229000",
          "130547.232000",
          "130547.235000",
          "130547.237000",
          "130547.241000",
          "130547.243000",
          "130547.246000",
          "130547.249000",
          "130547.252000",
          "130547.255000",
          "130547.258000",
          "130547.260000",
          "130547.263000",
          "130547.266000",
          "130547.269000",
          "130547.272000",
          "130547.275000",
          "130547.278000",
          "130547.280000",
          "130547.283000",
          "130547.286000",
          "130547.289000",
          "130547.292000",
          "130607.210000",
          "130607.213000",
          "130607.216000",
          "130607.219000",
          "130607.221000",
          "130607.224000",
          "130607.227000",
          "130607.230000",
          "130607.233000",
          "130607.236000",
          "130607.239000",
          "130607.242000",
          "130607.244000",
          "130647.209000",
          "130647.212000",
          "130647.215000",
          "130647.217000",
          "130647.220000",
          "130647.223000",
          "130647.233000",
          "130647.236000",
          "130647.239000",
          "130647.242000",
          "130647.245000",
          "130647.247000",
          "130647.250000",
          "130647.253000",
          "130647.256000",
          "130647.259000",
          "130647.262000",
          "130647.265000",
          "130647.268000",
          "130647.271000",
          "130647.273000",
          "130647.276000",
          "130647.279000",
          "130647.282000",
          "130647.285000",
          "130647.288000",
          "130647.290000",
          "130727.209000",
          "130727.212000",
          "130727.215000",
          "130727.218000",
          "130727.220000",
          "130727.223000",
          "130727.226000",
          "130727.229000",
          "130727.232000",
          "130727.235000",
          "130727.238000",
          "130727.241000",
          "130727.252000",
          "130727.254000",
          "130727.257000",
          "130727.260000",
          "130727.263000",
          "130727.266000",
          "130727.269000",
          "130727.271000",
          "130727.274000",
          "130727.277000",
          "130727.280000",
          "130727.283000",
          "130727.286000",
          "130727.288000",
          "130727.291000",
          "130807.209000",
          "130807.212000",
          "130807.215000",
          "130807.218000",
          "130807.220000",
          "130807.223000",
          "130807.226000",
          "130807.229000",
          "130807.232000",
          "130807.235000",
          "130807.238000",
          "130807.241000",
          "130807.244000",
          "130807.246000",
          "130807.249000",
          "130807.252000",
          "130807.255000",
          "130807.258000",
          "130807.261000",
          "130807.264000",
          "130807.268000",
          "130807.271000",
          "130807.274000",
          "130807.276000",
          "130807.279000",
          "130807.282000",
          "130807.285000",
          "130847.210000",
          "130847.213000",
          "130847.216000",
          "130847.219000",
          "130847.222000",
          "130847.224000",
          "130847.227000",
          "130847.232000",
          "130847.236000",
          "130847.240000",
          "130847.243000",
          "130847.247000",
          "130847.250000",
          "130847.253000",
          "130847.256000",
          "130847.258000",
