{
  "aor": 0.00035097368421052626,
  "aqi": 0.005630518815789473,
  "bids_meta": {
    "AcquisitionMatrixPE": 104,
    "AcquisitionNumber": 1,
    "AcquisitionTime": "12:06:34.302500",
    "BandwidthPerPixelPhaseEncode": 17.17,
    "BaseResolution": 104,
    "BodyPartExamined": "BRAIN",
    "CogAtlasID": "trm_4c898da401420",
    "CoilString": "HC1-7;NC1_2",
    "ConsistencyInfo": "N4_VE11C_LATEST_20160120",
    "ConversionSoftware": "dcm2niix",
    "ConversionSoftwareVersion": "v1.0.20190720  (JP2:OpenJPEG) GCC7.3.0",
    "DerivedVendorReportedEchoSpacing": 0.000560011,
    "DeviceSerialNumber": "167006",
    "DwellTime": 2.1e-06,
    "EchoTime": 0.037,
    "EchoTrainLength": 104,
    "EffectiveEchoSpacing": 0.000560011,
    "FlipAngle": 52,
    "ImageComments": "Unaliased_MB4_PE3_LB",
    "ImageOrientationPatientDICOM": [
      0.997294,
      0.0304277,
      -0.0669169,
      -0.037615,
      0.993339,
      -0.108914
    ],
    "ImageType": [
      "ORIGINAL",
      "PRIMARY",
      "M",
      "MB",
      "ND",
      "MOSAIC"
    ],
    "ImagingFrequency": 123.259,
    "InPlanePhaseEncodingDirectionDICOM": "COL",
    "InstitutionAddress": "Chemin_Queen-Mary_4565_Montreal_District_CA_H3W_1W5",
    "InstitutionName": "IUGM",
    "InstitutionalDepartmentName": "Department",
    "MRAcquisitionType": "2D",
    "MagneticFieldStrength": 3,
    "Manufacturer": "Siemens",
    "ManufacturersModelName": "Prisma_fit",
    "Modality": "MR",
    "MultibandAccelerationFactor": 4,
    "PartialFourier": 1,
    "PatientPosition": "HFS",
    "PercentPhaseFOV": 100,
    "PhaseEncodingDirection": "j-",
    "PhaseEncodingSteps": 104,
    "PhaseResolution": 1,
    "PixelBandwidth": 2290,
    "ProcedureStepDescription": "video5_generic",
    "ProtocolName": "func_task-bourne10",
    "PulseSequenceDetails": "%CustomerSeq%_cmrr_mbep2d_bold",
    "ReceiveCoilActiveElements": "HC1-7;NC1,2",
    "ReceiveCoilName": "HeadNeck_64",
    "ReconMatrixPE": 104,
    "RepetitionTime": 1.49,
    "SAR": 0.0339859,
    "ScanOptions": "FS",
    "ScanningSequence": "EP",
    "SequenceName": "epfid2d1_104",
    "SequenceVariant": "SK_SS",
    "SeriesDescription": "func_task-bourne10",
    "SeriesNumber": 11,
    "ShimSetting": [
      597,
      -7262,
      -8845,
      543,
      -42,
      -320,
      -20,
      44
    ],
    "SliceThickness": 2,
    "SliceTiming": [
      0,
      0.7825,
      0.0975,
      0.88,
      0.195,
      0.98,
      0.2925,
      1.0775,
      0.39,
      1.175,
      0.49,
      1.2725,
      0.5875,
      1.37,
      0.685,
      0,
      0.7825,
      0.0975,
      0.88,
      0.195,
      0.98,
      0.2925,
      1.0775,
      0.39,
      1.175,
      0.49,
      1.2725,
      0.5875,
      1.37,
      0.685,
      0,
      0.7825,
      0.0975,
      0.88,
      0.195,
      0.98,
      0.2925,
      1.0775,
      0.39,
      1.175,
      0.49,
      1.2725,
      0.5875,
      1.37,
      0.685,
      0,
      0.7825,
      0.0975,
      0.88,
      0.195,
      0.98,
      0.2925,
      1.0775,
      0.39,
      1.175,
      0.49,
      1.2725,
      0.5875,
      1.37,
      0.685
    ],
    "SoftwareVersions": "syngo_MR_E11",
    "SpacingBetweenSlices": 2,
    "StationName": "MRC35049",
    "TaskName": "bourne10",
    "TotalReadoutTime": 0.0576811,
    "TxRefAmp": 220.484,
    "WipMemBlock": "cca1ceee-aba9-4b4a-9394-b12ea94cc121||Sequence: R016 ve11c/master r/e634e98; Dec 19 2017 11:00:25 by eja",
    "dataset": "<unset>",
    "dcmmeta_affine": [
      [
        -1.9945889711380005,
        -0.07522992789745331,
        -0.12631437182426453,
        108.03447723388672
      ],
      [
        -0.060855381190776825,
        1.9866784811019897,
        -0.22227253019809723,
        -73.41963958740234
      ],
      [
        -0.13383379578590393,
        0.217827707529068,
        1.9835926294326782,
        -41.73286819458008
      ],
      [
        0.0,
        0.0,
        0.0,
        1.0
      ]
    ],
    "dcmmeta_reorient_transform": [
      [
        0.0,
        -1.0,
        0.0,
        103.0
      ],
      [
        1.0,
        0.0,
        0.0,
        0.0
      ],
      [
        0.0,
        0.0,
        1.0,
        0.0
      ],
      [
        0.0,
        0.0,
        0.0,
        1.0
      ]
    ],
    "dcmmeta_shape": [
      104,
      104,
      60,
      380
    ],
    "dcmmeta_slice_dim": 2,
    "dcmmeta_version": 0.6,
    "global": {
      "const": {
        "AcquisitionMatrix": [
          104,
          0,
          0,
          104
        ],
        "AngioFlag": "N",
        "BitsAllocated": 16,
        "BitsStored": 16,
        "BodyPartExamined": "BRAIN",
        "Columns": 832,
        "EchoNumbers": 1,
        "EchoTime": 37.0,
        "EchoTrainLength": 104,
        "FlipAngle": 52.0,
        "HighBit": 15,
        "ImageOrientationPatient": [
          0.99729448212994,
          0.03042769066564,
          -0.0669169003611,
          -0.0376149654304,
          0.99333926031603,
          -0.1089138572013
        ],
        "ImagePositionPatient": [
          -798.93248232088,
          -876.51059155903,
          108.70817866476
        ],
        "ImageType": [
          "ORIGINAL",
          "PRIMARY",
          "M",
          "MB",
          "ND",
          "MOSAIC"
        ],
        "ImagedNucleus": "1H",
        "ImagingFrequency": 123.258988,
        "InPlanePhaseEncodingDirection": "COL",
        "MRAcquisitionType": "2D",
        "MagneticFieldStrength": 3.0,
        "Manufacturer": "SIEMENS",
        "ManufacturerModelName": "Prisma_fit",
        "Modality": "MR",
        "NumberOfAverages": 1.0,
        "NumberOfPhaseEncodingSteps": 104,
        "PercentPhaseFieldOfView": 100.0,
        "PercentSampling": 100.0,
        "PerformedProcedureStepStartTime": "114702.209000",
        "PhotometricInterpretation": "MONOCHROME2",
        "PixelBandwidth": 2290.0,
        "PixelRepresentation": 0,
        "PixelSpacing": [
          2.0,
          2.0
        ],
        "ProtocolName": "func_task-bourne10",
        "RepetitionTime": 1490.0,
        "Rows": 832,
        "SAR": 0.03398588164373,
        "SamplesPerPixel": 1,
        "ScanOptions": "FS",
        "ScanningSequence": "EP",
        "SequenceName": "epfid2d1_104",
        "SequenceVariant": [
          "SK",
          "SS"
        ],
        "SeriesDescription": "func_task-bourne10",
        "SeriesNumber": 11,
        "SeriesTime": "120751.499000",
        "SliceLocation": -40.054072956706,
        "SliceThickness": 2.0,
        "SmallestImagePixelValue": 0,
        "SoftwareVersions": "syngo MR E11",
        "SpacingBetweenSlices": 2.000000000222,
        "SpecificCharacterSet": "ISO_IR 100",
        "StudyID": "1",
        "StudyTime": "114702.145000",
        "TransmitCoilName": "Body",
        "VariableFlipAngleFlag": "N",
        "WindowCenterWidthExplanation": "Algo1",
        "dBdt": 0.0
      },
      "slices": {}
    },
    "modality": "bold",
    "session_id": "009",
    "subject_id": "04",
    "task_id": "bourne10",
    "time": {
      "samples": {
        "AcquisitionNumber": [
          1,
          2,
          3,
          4,
          5,
          6,
          7,
          8,
          9,
          10,
          11,
          12,
          13,
          14,
          15,
          16,
          17,
          18,
          19,
          20,
          21,
          22,
          23,
          24,
          25,
          26,
          27,
          28,
          29,
          30,
          31,
          32,
          33,
          34,
          35,
          36,
          37,
          38,
          39,
          40,
          41,
          42,
          43,
          44,
          45,
          46,
          47,
          48,
          49,
          50,
          51,
          52,
          53,
          54,
          55,
          56,
          57,
          58,
          59,
          60,
          61,
          62,
          63,
          64,
          65,
          66,
          67,
          68,
          69,
          70,
          71,
          72,
          73,
          74,
          75,
          76,
          77,
          78,
          79,
          80,
          81,
          82,
          83,
          84,
          85,
          86,
          87,
          88,
          89,
          90,
          91,
          92,
          93,
          94,
          95,
          96,
          97,
          98,
          99,
          100,
          101,
          102,
          103,
          104,
          105,
          106,
          107,
          108,
          109,
          110,
          111,
          112,
          113,
          114,
          115,
          116,
          117,
          118,
          119,
          120,
          121,
          122,
          123,
          124,
          125,
          126,
          127,
          128,
          129,
          130,
          131,
          132,
          133,
          134,
          135,
          136,
          137,
          138,
          139,
          140,
          141,
          142,
          143,
          144,
          145,
          146,
          147,
          148,
          149,
          150,
          151,
          152,
          153,
          154,
          155,
          156,
          157,
          158,
          159,
          160,
          161,
          162,
          163,
          164,
          165,
          166,
          167,
          168,
          169,
          170,
          171,
          172,
          173,
          174,
          175,
          176,
          177,
          178,
          179,
          180,
          181,
          182,
          183,
          184,
          185,
          186,
          187,
          188,
          189,
          190,
          191,
          192,
          193,
          194,
          195,
          196,
          197,
          198,
          199,
          200,
          201,
          202,
          203,
          204,
          205,
          206,
          207,
          208,
          209,
          210,
          211,
          212,
          213,
          214,
          215,
          216,
          217,
          218,
          219,
          220,
          221,
          222,
          223,
          224,
          225,
          226,
          227,
          228,
          229,
          230,
          231,
          232,
          233,
          234,
          235,
          236,
          237,
          238,
          239,
          240,
          241,
          242,
          243,
          244,
          245,
          246,
          247,
          248,
          249,
          250,
          251,
          252,
          253,
          254,
          255,
          256,
          257,
          258,
          259,
          260,
          261,
          262,
          263,
          264,
          265,
          266,
          267,
          268,
          269,
          270,
          271,
          272,
          273,
          274,
          275,
          276,
          277,
          278,
          279,
          280,
          281,
          282,
          283,
          284,
          285,
          286,
          287,
          288,
          289,
          290,
          291,
          292,
          293,
          294,
          295,
          296,
          297,
          298,
          299,
          300,
          301,
          302,
          303,
          304,
          305,
          306,
          307,
          308,
          309,
          310,
          311,
          312,
          313,
          314,
          315,
          316,
          317,
          318,
          319,
          320,
          321,
          322,
          323,
          324,
          325,
          326,
          327,
          328,
          329,
          330,
          331,
          332,
          333,
          334,
          335,
          336,
          337,
          338,
          339,
          340,
          341,
          342,
          343,
          344,
          345,
          346,
          347,
          348,
          349,
          350,
          351,
          352,
          353,
          354,
          355,
          356,
          357,
          358,
          359,
          360,
          361,
          362,
          363,
          364,
          365,
          366,
          367,
          368,
          369,
          370,
          371,
          372,
          373,
          374,
          375,
          376,
          377,
          378,
          379,
          380
        ],
        "AcquisitionTime": [
          "120634.302500",
          "120635.792500",
          "120637.282500",
          "120638.772500",
          "120640.262500",
          "120641.752500",
          "120643.242500",
          "120644.732500",
          "120646.222500",
          "120647.712500",
          "120649.202500",
          "120650.692500",
          "120652.182500",
          "120653.672500",
          "120655.162500",
          "120656.652500",
          "120658.142500",
          "120659.632500",
          "120701.122500",
          "120702.612500",
          "120704.102500",
          "120705.592500",
          "120707.082500",
          "120708.572500",
          "120710.062500",
          "120711.552500",
          "120713.042500",
          "120714.532500",
          "120716.022500",
          "120717.512500",
          "120719.002500",
          "120720.492500",
          "120721.982500",
          "120723.472500",
          "120724.962500",
          "120726.452500",
          "120727.942500",
          "120729.432500",
          "120730.922500",
          "120732.412500",
          "120733.902500",
          "120735.392500",
          "120736.882500",
          "120738.372500",
          "120739.862500",
          "120741.352500",
          "120742.842500",
          "120744.332500",
          "120745.822500",
          "120747.312500",
          "120748.802500",
          "120750.292500",
          "120751.782500",
          "120753.272500",
          "120754.762500",
          "120756.252500",
          "120757.742500",
          "120759.232500",
          "120800.722500",
          "120802.212500",
          "120803.702500",
          "120805.192500",
          "120806.682500",
          "120808.172500",
          "120809.662500",
          "120811.152500",
          "120812.642500",
          "120814.132500",
          "120815.622500",
          "120817.112500",
          "120818.602500",
          "120820.092500",
          "120821.582500",
          "120823.072500",
          "120824.562500",
          "120826.052500",
          "120827.542500",
          "120829.032500",
          "120830.522500",
          "120832.012500",
          "120833.502500",
          "120834.992500",
          "120836.482500",
          "120837.972500",
          "120839.462500",
          "120840.952500",
          "120842.442500",
          "120843.932500",
          "120845.422500",
          "120846.912500",
          "120848.402500",
          "120849.892500",
          "120851.382500",
          "120852.872500",
          "120854.362500",
          "120855.852500",
          "120857.342500",
          "120858.832500",
          "120900.322500",
          "120901.812500",
          "120903.302500",
          "120904.792500",
          "120906.282500",
          "120907.772500",
          "120909.262500",
          "120910.752500",
          "120912.242500",
          "120913.732500",
          "120915.222500",
          "120916.712500",
          "120918.202500",
          "120919.692500",
          "120921.182500",
          "120922.672500",
          "120924.162500",
          "120925.652500",
          "120927.142500",
          "120928.632500",
          "120930.122500",
          "120931.612500",
          "120933.102500",
          "120934.592500",
          "120936.082500",
          "120937.572500",
          "120939.062500",
          "120940.552500",
          "120942.042500",
          "120943.532500",
          "120945.022500",
          "120946.512500",
          "120948.002500",
          "120949.492500",
          "120950.982500",
          "120952.472500",
          "120953.962500",
          "120955.452500",
          "120956.942500",
          "120958.432500",
          "120959.922500",
          "121001.412500",
          "121002.902500",
          "121004.392500",
          "121005.882500",
          "121007.372500",
          "121008.862500",
          "121010.352500",
          "121011.842500",
          "121013.332500",
          "121014.822500",
          "121016.312500",
          "121017.802500",
          "121019.292500",
          "121020.782500",
          "121022.272500",
          "121023.762500",
          "121025.252500",
          "121026.742500",
          "121028.232500",
          "121029.722500",
          "121031.212500",
          "121032.702500",
          "121034.192500",
          "121035.682500",
          "121037.172500",
          "121038.662500",
          "121040.152500",
          "121041.642500",
          "121043.132500",
          "121044.622500",
          "121046.112500",
          "121047.602500",
          "121049.092500",
          "121050.582500",
          "121052.072500",
          "121053.562500",
          "121055.052500",
          "121056.542500",
          "121058.032500",
          "121059.522500",
          "121101.012500",
          "121102.502500",
          "121103.992500",
          "121105.482500",
          "121106.972500",
          "121108.462500",
          "121109.952500",
          "121111.442500",
          "121112.932500",
          "121114.422500",
          "121115.912500",
          "121117.402500",
          "121118.892500",
          "121120.382500",
          "121121.872500",
          "121123.362500",
          "121124.852500",
          "121126.342500",
          "121127.832500",
          "121129.322500",
          "121130.812500",
          "121132.302500",
          "121133.792500",
          "121135.282500",
          "121136.772500",
          "121138.262500",
          "121139.752500",
          "121141.242500",
          "121142.732500",
          "121144.222500",
          "121145.712500",
          "121147.202500",
          "121148.692500",
          "121150.182500",
          "121151.672500",
          "121153.162500",
          "121154.652500",
          "121156.142500",
          "121157.632500",
          "121159.122500",
          "121200.612500",
          "121202.102500",
          "121203.592500",
          "121205.082500",
          "121206.572500",
          "121208.062500",
          "121209.552500",
          "121211.042500",
          "121212.532500",
          "121214.022500",
          "121215.512500",
          "121217.002500",
          "121218.492500",
          "121219.982500",
          "121221.472500",
          "121222.962500",
          "121224.452500",
          "121225.942500",
          "121227.432500",
          "121228.922500",
          "121230.412500",
          "121231.902500",
          "121233.392500",
          "121234.882500",
          "121236.372500",
          "121237.862500",
          "121239.352500",
          "121240.842500",
          "121242.332500",
          "121243.822500",
          "121245.312500",
          "121246.802500",
          "121248.292500",
          "121249.782500",
          "121251.272500",
          "121252.762500",
          "121254.252500",
          "121255.742500",
          "121257.232500",
          "121258.722500",
          "121300.212500",
          "121301.702500",
          "121303.192500",
          "121304.682500",
          "121306.172500",
          "121307.662500",
          "121309.152500",
          "121310.642500",
          "121312.132500",
          "121313.622500",
          "121315.112500",
          "121316.602500",
          "121318.092500",
          "121319.582500",
          "121321.072500",
          "121322.562500",
          "121324.052500",
          "121325.542500",
          "121327.032500",
          "121328.522500",
          "121330.012500",
          "121331.502500",
          "121332.992500",
          "121334.482500",
          "121335.972500",
          "121337.462500",
          "121338.952500",
          "121340.442500",
          "121341.932500",
          "121343.422500",
          "121344.912500",
          "121346.402500",
          "121347.892500",
          "121349.382500",
          "121350.872500",
          "121352.362500",
          "121353.852500",
          "121355.342500",
          "121356.832500",
          "121358.322500",
          "121359.812500",
          "121401.302500",
          "121402.792500",
          "121404.282500",
          "121405.772500",
          "121407.262500",
          "121408.752500",
          "121410.242500",
          "121411.732500",
          "121413.222500",
          "121414.712500",
          "121416.202500",
          "121417.692500",
          "121419.182500",
          "121420.672500",
          "121422.162500",
          "121423.652500",
          "121425.142500",
          "121426.632500",
          "121428.122500",
          "121429.612500",
          "121431.102500",
          "121432.592500",
          "121434.082500",
          "121435.572500",
          "121437.062500",
          "121438.552500",
          "121440.042500",
          "121441.532500",
          "121443.022500",
          "121444.512500",
          "121446.002500",
          "121447.492500",
          "121448.982500",
          "121450.472500",
          "121451.962500",
          "121453.452500",
          "121454.942500",
          "121456.432500",
          "121457.922500",
          "121459.412500",
          "121500.902500",
          "121502.392500",
          "121503.882500",
          "121505.372500",
          "121506.862500",
          "121508.352500",
          "121509.842500",
          "121511.332500",
          "121512.822500",
          "121514.312500",
          "121515.802500",
          "121517.292500",
          "121518.782500",
          "121520.272500",
          "121521.762500",
          "121523.252500",
          "121524.742500",
          "121526.232500",
          "121527.722500",
          "121529.212500",
          "121530.702500",
          "121532.192500",
          "121533.682500",
          "121535.172500",
          "121536.662500",
          "121538.152500",
          "121539.642500",
          "121541.132500",
          "121542.622500",
          "121544.112500",
          "121545.602500",
          "121547.092500",
          "121548.582500",
          "121550.072500",
          "121551.562500",
          "121553.052500",
          "121554.542500",
          "121556.032500",
          "121557.522500",
          "121559.012500"
        ],
        "ContentTime": [
          "120751.501000",
          "120751.505000",
          "120751.508000",
          "120751.510000",
          "120751.513000",
          "120751.516000",
          "120751.519000",
          "120751.522000",
          "120751.524000",
          "120751.527000",
          "120751.530000",
          "120751.533000",
          "120751.536000",
          "120751.539000",
          "120751.547000",
          "120751.550000",
          "120751.553000",
          "120751.555000",
          "120751.558000",
          "120751.561000",
          "120751.564000",
          "120751.567000",
          "120751.569000",
          "120751.572000",
          "120811.457000",
          "120811.460000",
          "120811.463000",
          "120811.465000",
          "120811.468000",
          "120811.471000",
          "120811.474000",
          "120811.477000",
          "120811.480000",
          "120811.483000",
          "120811.486000",
          "120811.488000",
          "120811.491000",
          "120811.494000",
          "120811.497000",
          "120811.500000",
          "120811.503000",
          "120811.506000",
          "120811.508000",
          "120811.511000",
          "120831.457000",
          "120831.460000",
          "120831.463000",
          "120831.465000",
          "120831.468000",
          "120831.471000",
          "120831.474000",
          "120831.477000",
          "120831.480000",
          "120831.482000",
          "120831.485000",
          "120831.499000",
          "120831.501000",
          "120831.504000",
          "120831.507000",
          "120831.510000",
          "120831.513000",
          "120831.515000",
          "120831.518000",
          "120831.521000",
          "120851.457000",
          "120851.460000",
          "120851.463000",
          "120851.465000",
          "120851.468000",
          "120851.471000",
          "120851.474000",
          "120851.477000",
          "120851.480000",
          "120851.482000",
          "120851.485000",
          "120851.488000",
          "120851.491000",
          "120851.494000",
          "120851.497000",
          "120851.499000",
          "120851.502000",
          "120851.505000",
          "120851.508000",
          "120851.511000",
          "120911.457000",
          "120911.463000",
          "120911.475000",
          "120911.478000",
          "120911.481000",
          "120911.488000",
          "120911.496000",
          "120911.505000",
          "120911.513000",
          "120911.516000",
          "120911.527000",
          "120911.530000",
          "120911.539000",
          "120911.542000",
          "120911.545000",
          "120911.548000",
          "120911.551000",
          "120911.554000",
          "120911.557000",
          "120911.559000",
          "120951.457000",
          "120951.460000",
          "120951.463000",
          "120951.466000",
          "120951.470000",
          "120951.472000",
          "120951.475000",
          "120951.478000",
          "120951.481000",
          "120951.484000",
          "120951.487000",
          "120951.490000",
          "120951.493000",
          "120951.496000",
          "120951.499000",
          "120951.501000",
          "120951.504000",
          "120951.507000",
          "120951.510000",
          "120951.513000",
          "120951.516000",
          "120951.519000",
          "120951.522000",
          "120951.525000",
          "120951.528000",
          "120951.531000",
          "120951.533000",
          "121031.457000",
          "121031.460000",
          "121031.463000",
          "121031.466000",
          "121031.469000",
          "121031.471000",
          "121031.474000",
          "121031.477000",
          "121031.480000",
          "121031.483000",
          "121031.486000",
          "121031.502000",
          "121031.505000",
          "121031.508000",
          "121031.511000",
          "121031.513000",
          "121031.516000",
          "121031.519000",
          "121031.522000",
          "121031.525000",
          "121031.528000",
          "121031.531000",
          "121031.534000",
          "121031.537000",
          "121031.540000",
          "121031.542000",
          "121031.545000",
          "121111.457000",
          "121111.471000",
          "121111.474000",
          "121111.477000",
          "121111.480000",
          "121111.483000",
          "121111.485000",
          "121111.489000",
          "121111.491000",
          "121111.494000",
          "121111.497000",
          "121111.500000",
          "121111.503000",
          "121111.506000",
          "121111.509000",
          "121111.512000",
          "121111.514000",
          "121111.517000",
          "121111.520000",
          "121111.523000",
          "121111.526000",
          "121111.529000",
          "121111.532000",
          "121111.535000",
          "121111.538000",
          "121111.540000",
          "121111.543000",
          "121151.456000",
          "121151.459000",
          "121151.462000",
          "121151.465000",
          "121151.468000",
          "121151.470000",
          "121151.473000",
          "121151.476000",
          "121151.479000",
          "121151.482000",
          "121151.485000",
          "121151.488000",
          "121151.491000",
          "121151.494000",
          "121151.497000",
          "121151.499000",
          "121151.502000",
          "121151.505000",
          "121151.508000",
          "121151.511000",
          "121151.514000",
          "121151.517000",
          "121151.520000",
          "121151.523000",
          "121151.525000",
          "121151.528000",
          "121151.531000",
          "121231.457000",
          "121231.460000",
          "121231.463000",
          "121231.466000",
          "121231.469000",
          "121231.472000",
          "121231.475000",
          "121231.477000",
          "121231.480000",
          "121231.483000",
          "121231.486000",
          "121231.489000",
          "121231.492000",
          "121231.495000",
          "121231.498000",
          "121231.500000",
          "121231.503000",
          "121231.506000",
          "121231.509000",
          "121231.512000",
          "121231.515000",
          "121231.518000",
          "121231.521000",
          "121231.523000",
          "121231.526000",
          "121231.529000",
          "121231.532000",
          "121311.457000",
          "121311.460000",
          "121311.463000",
          "121311.466000",
          "121311.469000",
          "121311.471000",
          "121311.474000",
          "121311.477000",
          "121311.480000",
          "121311.483000",
          "121311.486000",
          "121311.489000",
          "121311.492000",
          "121311.495000",
          "121311.497000",
          "121311.500000",
          "121311.503000",
          "121311.506000",
