{
  "aor": 0.00025458536585365856,
  "aqi": 0.011433622609756095,
  "bids_meta": {
    "AcquisitionMatrixPE": 104,
    "AcquisitionNumber": 1,
    "AcquisitionTime": "12:17:7.662500",
    "BandwidthPerPixelPhaseEncode": 17.17,
    "BaseResolution": 104,
    "BodyPartExamined": "BRAIN",
    "CogAtlasID": "trm_4c898da401420",
    "CoilString": "HC1-7;NC1_2",
    "ConsistencyInfo": "N4_VE11C_LATEST_20160120",
    "ConversionSoftware": "dcm2niix",
    "ConversionSoftwareVersion": "v1.0.20190720  (JP2:OpenJPEG) GCC7.3.0",
    "DerivedVendorReportedEchoSpacing": 0.000560011,
    "DeviceSerialNumber": "167006",
    "DwellTime": 2.1e-06,
    "EchoTime": 0.037,
    "EchoTrainLength": 104,
    "EffectiveEchoSpacing": 0.000560011,
    "FlipAngle": 52,
    "ImageComments": "Unaliased_MB4_PE3_LB",
    "ImageOrientationPatientDICOM": [
      0.997294,
      0.0304277,
      -0.0669169,
      -0.037615,
      0.993339,
      -0.108914
    ],
    "ImageType": [
      "ORIGINAL",
      "PRIMARY",
      "M",
      "MB",
      "ND",
      "MOSAIC"
    ],
    "ImagingFrequency": 123.259,
    "InPlanePhaseEncodingDirectionDICOM": "COL",
    "InstitutionAddress": "Chemin_Queen-Mary_4565_Montreal_District_CA_H3W_1W5",
    "InstitutionName": "IUGM",
    "InstitutionalDepartmentName": "Department",
    "MRAcquisitionType": "2D",
    "MagneticFieldStrength": 3,
    "Manufacturer": "Siemens",
    "ManufacturersModelName": "Prisma_fit",
    "Modality": "MR",
    "MultibandAccelerationFactor": 4,
    "PartialFourier": 1,
    "PatientPosition": "HFS",
    "PercentPhaseFOV": 100,
    "PhaseEncodingDirection": "j-",
    "PhaseEncodingSteps": 104,
    "PhaseResolution": 1,
    "PixelBandwidth": 2290,
    "ProcedureStepDescription": "video5_generic",
    "ProtocolName": "func_task-life1",
    "PulseSequenceDetails": "%CustomerSeq%_cmrr_mbep2d_bold",
    "ReceiveCoilActiveElements": "HC1-7;NC1,2",
    "ReceiveCoilName": "HeadNeck_64",
    "ReconMatrixPE": 104,
    "RepetitionTime": 1.49,
    "SAR": 0.0339988,
    "ScanOptions": "FS",
    "ScanningSequence": "EP",
    "SequenceName": "epfid2d1_104",
    "SequenceVariant": "SK_SS",
    "SeriesDescription": "func_task-life1",
    "SeriesNumber": 13,
    "ShimSetting": [
      597,
      -7262,
      -8845,
      543,
      -42,
      -320,
      -20,
      44
    ],
    "SliceThickness": 2,
    "SliceTiming": [
      0,
      0.785,
      0.1,
      0.8825,
      0.1975,
      0.98,
      0.295,
      1.08,
      0.3925,
      1.1775,
      0.49,
      1.275,
      0.59,
      1.3725,
      0.6875,
      0,
      0.785,
      0.1,
      0.8825,
      0.1975,
      0.98,
      0.295,
      1.08,
      0.3925,
      1.1775,
      0.49,
      1.275,
      0.59,
      1.3725,
      0.6875,
      0,
      0.785,
      0.1,
      0.8825,
      0.1975,
      0.98,
      0.295,
      1.08,
      0.3925,
      1.1775,
      0.49,
      1.275,
      0.59,
      1.3725,
      0.6875,
      0,
      0.785,
      0.1,
      0.8825,
      0.1975,
      0.98,
      0.295,
      1.08,
      0.3925,
      1.1775,
      0.49,
      1.275,
      0.59,
      1.3725,
      0.6875
    ],
    "SoftwareVersions": "syngo_MR_E11",
    "SpacingBetweenSlices": 2,
    "StationName": "MRC35049",
    "TaskName": "life01",
    "TotalReadoutTime": 0.0576811,
    "TxRefAmp": 220.484,
    "WipMemBlock": "60105720-91a4-42d0-96ee-bdca810fc819||Sequence: R016 ve11c/master r/e634e98; Dec 19 2017 11:00:25 by eja",
    "dataset": "<unset>",
    "dcmmeta_affine": [
      [
        -1.9945889711380005,
        -0.07522992789745331,
        -0.12631437182426453,
        108.03447723388672
      ],
      [
        -0.060855381190776825,
        1.9866784811019897,
        -0.22227253019809723,
        -73.41963958740234
      ],
      [
        -0.13383379578590393,
        0.217827707529068,
        1.9835926294326782,
        -41.73286819458008
      ],
      [
        0.0,
        0.0,
        0.0,
        1.0
      ]
    ],
    "dcmmeta_reorient_transform": [
      [
        0.0,
        -1.0,
        0.0,
        103.0
      ],
      [
        1.0,
        0.0,
        0.0,
        0.0
      ],
      [
        0.0,
        0.0,
        1.0,
        0.0
      ],
      [
        0.0,
        0.0,
        0.0,
        1.0
      ]
    ],
    "dcmmeta_shape": [
      104,
      104,
      60,
      410
    ],
    "dcmmeta_slice_dim": 2,
    "dcmmeta_version": 0.6,
    "global": {
      "const": {
        "AcquisitionMatrix": [
          104,
          0,
          0,
          104
        ],
        "AngioFlag": "N",
        "BitsAllocated": 16,
        "BitsStored": 16,
        "BodyPartExamined": "BRAIN",
        "Columns": 832,
        "EchoNumbers": 1,
        "EchoTime": 37.0,
        "EchoTrainLength": 104,
        "FlipAngle": 52.0,
        "HighBit": 15,
        "ImageOrientationPatient": [
          0.99729448212994,
          0.03042769066564,
          -0.0669169003611,
          -0.0376149654304,
          0.99333926031603,
          -0.1089138572013
        ],
        "ImagePositionPatient": [
          -798.93248232088,
          -876.51059155903,
          108.70817866476
        ],
        "ImageType": [
          "ORIGINAL",
          "PRIMARY",
          "M",
          "MB",
          "ND",
          "MOSAIC"
        ],
        "ImagedNucleus": "1H",
        "ImagingFrequency": 123.25899,
        "InPlanePhaseEncodingDirection": "COL",
        "MRAcquisitionType": "2D",
        "MagneticFieldStrength": 3.0,
        "Manufacturer": "SIEMENS",
        "ManufacturerModelName": "Prisma_fit",
        "Modality": "MR",
        "NumberOfAverages": 1.0,
        "NumberOfPhaseEncodingSteps": 104,
        "PercentPhaseFieldOfView": 100.0,
        "PercentSampling": 100.0,
        "PerformedProcedureStepStartTime": "114702.209000",
        "PhotometricInterpretation": "MONOCHROME2",
        "PixelBandwidth": 2290.0,
        "PixelRepresentation": 0,
        "PixelSpacing": [
          2.0,
          2.0
        ],
        "ProtocolName": "func_task-life1",
        "RepetitionTime": 1490.0,
        "Rows": 832,
        "SAR": 0.03399875532714,
        "SamplesPerPixel": 1,
        "ScanOptions": "FS",
        "ScanningSequence": "EP",
        "SequenceName": "epfid2d1_104",
        "SequenceVariant": [
          "SK",
          "SS"
        ],
        "SeriesDescription": "func_task-life1",
        "SeriesNumber": 13,
        "SeriesTime": "121837.345000",
        "SliceLocation": -40.054072956706,
        "SliceThickness": 2.0,
        "SmallestImagePixelValue": 0,
        "SoftwareVersions": "syngo MR E11",
        "SpacingBetweenSlices": 2.000000000222,
        "SpecificCharacterSet": "ISO_IR 100",
        "StudyID": "1",
        "StudyTime": "114702.145000",
        "TransmitCoilName": "Body",
        "VariableFlipAngleFlag": "N",
        "WindowCenterWidthExplanation": "Algo1",
        "dBdt": 0.0
      },
      "slices": {}
    },
    "modality": "bold",
    "run_id": 2,
    "session_id": "009",
    "subject_id": "04",
    "task_id": "life01",
    "time": {
      "samples": {
        "AcquisitionNumber": [
          1,
          2,
          3,
          4,
          5,
          6,
          7,
          8,
          9,
          10,
          11,
          12,
          13,
          14,
          15,
          16,
          17,
          18,
          19,
          20,
          21,
          22,
          23,
          24,
          25,
          26,
          27,
          28,
          29,
          30,
          31,
          32,
          33,
          34,
          35,
          36,
          37,
          38,
          39,
          40,
          41,
          42,
          43,
          44,
          45,
          46,
          47,
          48,
          49,
          50,
          51,
          52,
          53,
          54,
          55,
          56,
          57,
          58,
          59,
          60,
          61,
          62,
          63,
          64,
          65,
          66,
          67,
          68,
          69,
          70,
          71,
          72,
          73,
          74,
          75,
          76,
          77,
          78,
          79,
          80,
          81,
          82,
          83,
          84,
          85,
          86,
          87,
          88,
          89,
          90,
          91,
          92,
          93,
          94,
          95,
          96,
          97,
          98,
          99,
          100,
          101,
          102,
          103,
          104,
          105,
          106,
          107,
          108,
          109,
          110,
          111,
          112,
          113,
          114,
          115,
          116,
          117,
          118,
          119,
          120,
          121,
          122,
          123,
          124,
          125,
          126,
          127,
          128,
          129,
          130,
          131,
          132,
          133,
          134,
          135,
          136,
          137,
          138,
          139,
          140,
          141,
          142,
          143,
          144,
          145,
          146,
          147,
          148,
          149,
          150,
          151,
          152,
          153,
          154,
          155,
          156,
          157,
          158,
          159,
          160,
          161,
          162,
          163,
          164,
          165,
          166,
          167,
          168,
          169,
          170,
          171,
          172,
          173,
          174,
          175,
          176,
          177,
          178,
          179,
          180,
          181,
          182,
          183,
          184,
          185,
          186,
          187,
          188,
          189,
          190,
          191,
          192,
          193,
          194,
          195,
          196,
          197,
          198,
          199,
          200,
          201,
          202,
          203,
          204,
          205,
          206,
          207,
          208,
          209,
          210,
          211,
          212,
          213,
          214,
          215,
          216,
          217,
          218,
          219,
          220,
          221,
          222,
          223,
          224,
          225,
          226,
          227,
          228,
          229,
          230,
          231,
          232,
          233,
          234,
          235,
          236,
          237,
          238,
          239,
          240,
          241,
          242,
          243,
          244,
          245,
          246,
          247,
          248,
          249,
          250,
          251,
          252,
          253,
          254,
          255,
          256,
          257,
          258,
          259,
          260,
          261,
          262,
          263,
          264,
          265,
          266,
          267,
          268,
          269,
          270,
          271,
          272,
          273,
          274,
          275,
          276,
          277,
          278,
          279,
          280,
          281,
          282,
          283,
          284,
          285,
          286,
          287,
          288,
          289,
          290,
          291,
          292,
          293,
          294,
          295,
          296,
          297,
          298,
          299,
          300,
          301,
          302,
          303,
          304,
          305,
          306,
          307,
          308,
          309,
          310,
          311,
          312,
          313,
          314,
          315,
          316,
          317,
          318,
          319,
          320,
          321,
          322,
          323,
          324,
          325,
          326,
          327,
          328,
          329,
          330,
          331,
          332,
          333,
          334,
          335,
          336,
          337,
          338,
          339,
          340,
          341,
          342,
          343,
          344,
          345,
          346,
          347,
          348,
          349,
          350,
          351,
          352,
          353,
          354,
          355,
          356,
          357,
          358,
          359,
          360,
          361,
          362,
          363,
          364,
          365,
          366,
          367,
          368,
          369,
          370,
          371,
          372,
          373,
          374,
          375,
          376,
          377,
          378,
          379,
          380,
          381,
          382,
          383,
          384,
          385,
          386,
          387,
          388,
          389,
          390,
          391,
          392,
          393,
          394,
          395,
          396,
          397,
          398,
          399,
          400,
          401,
          402,
          403,
          404,
          405,
          406,
          407,
          408,
          409,
          410
        ],
        "AcquisitionTime": [
          "121707.662500",
          "121709.152500",
          "121710.642500",
          "121712.132500",
          "121713.622500",
          "121715.112500",
          "121716.602500",
          "121718.092500",
          "121719.582500",
          "121721.072500",
          "121722.562500",
          "121724.052500",
          "121725.542500",
          "121727.032500",
          "121728.522500",
          "121730.012500",
          "121731.502500",
          "121732.992500",
          "121734.482500",
          "121735.972500",
          "121737.462500",
          "121738.952500",
          "121740.442500",
          "121741.932500",
          "121743.422500",
          "121744.912500",
          "121746.402500",
          "121747.892500",
          "121749.382500",
          "121750.872500",
          "121752.362500",
          "121753.852500",
          "121755.342500",
          "121756.832500",
          "121758.322500",
          "121759.812500",
          "121801.302500",
          "121802.792500",
          "121804.282500",
          "121805.772500",
          "121807.262500",
          "121808.752500",
          "121810.242500",
          "121811.732500",
          "121813.222500",
          "121814.712500",
          "121816.202500",
          "121817.692500",
          "121819.182500",
          "121820.672500",
          "121822.162500",
          "121823.652500",
          "121825.142500",
          "121826.632500",
          "121828.122500",
          "121829.612500",
          "121831.102500",
          "121832.592500",
          "121834.082500",
          "121835.572500",
          "121837.062500",
          "121838.552500",
          "121840.042500",
          "121841.532500",
          "121843.022500",
          "121844.512500",
          "121846.002500",
          "121847.492500",
          "121848.982500",
          "121850.472500",
          "121851.962500",
          "121853.452500",
          "121854.942500",
          "121856.432500",
          "121857.922500",
          "121859.412500",
          "121900.902500",
          "121902.392500",
          "121903.882500",
          "121905.372500",
          "121906.862500",
          "121908.352500",
          "121909.842500",
          "121911.332500",
          "121912.822500",
          "121914.312500",
          "121915.802500",
          "121917.292500",
          "121918.782500",
          "121920.272500",
          "121921.762500",
          "121923.252500",
          "121924.742500",
          "121926.232500",
          "121927.722500",
          "121929.212500",
          "121930.702500",
          "121932.192500",
          "121933.682500",
          "121935.172500",
          "121936.662500",
          "121938.152500",
          "121939.642500",
          "121941.132500",
          "121942.622500",
          "121944.112500",
          "121945.602500",
          "121947.092500",
          "121948.582500",
          "121950.072500",
          "121951.562500",
          "121953.052500",
          "121954.542500",
          "121956.032500",
          "121957.522500",
          "121959.012500",
          "122000.502500",
          "122001.992500",
          "122003.482500",
          "122004.972500",
          "122006.462500",
          "122007.952500",
          "122009.442500",
          "122010.932500",
          "122012.422500",
          "122013.912500",
          "122015.402500",
          "122016.892500",
          "122018.382500",
          "122019.872500",
          "122021.362500",
          "122022.852500",
          "122024.342500",
          "122025.832500",
          "122027.322500",
          "122028.812500",
          "122030.302500",
          "122031.792500",
          "122033.282500",
          "122034.772500",
          "122036.262500",
          "122037.752500",
          "122039.242500",
          "122040.732500",
          "122042.222500",
          "122043.712500",
          "122045.202500",
          "122046.692500",
          "122048.182500",
          "122049.672500",
          "122051.162500",
          "122052.652500",
          "122054.142500",
          "122055.632500",
          "122057.122500",
          "122058.612500",
          "122100.102500",
          "122101.592500",
          "122103.082500",
          "122104.572500",
          "122106.062500",
          "122107.552500",
          "122109.042500",
          "122110.532500",
          "122112.022500",
          "122113.512500",
          "122115.002500",
          "122116.492500",
          "122117.982500",
          "122119.472500",
          "122120.962500",
          "122122.452500",
          "122123.942500",
          "122125.432500",
          "122126.922500",
          "122128.412500",
          "122129.902500",
          "122131.392500",
          "122132.882500",
          "122134.372500",
          "122135.862500",
          "122137.352500",
          "122138.842500",
          "122140.332500",
          "122141.822500",
          "122143.312500",
          "122144.802500",
          "122146.292500",
          "122147.782500",
          "122149.272500",
          "122150.762500",
          "122152.252500",
          "122153.742500",
          "122155.232500",
          "122156.722500",
          "122158.212500",
          "122159.702500",
          "122201.192500",
          "122202.682500",
          "122204.172500",
          "122205.662500",
          "122207.152500",
          "122208.642500",
          "122210.132500",
          "122211.622500",
          "122213.112500",
          "122214.602500",
          "122216.092500",
          "122217.582500",
          "122219.072500",
          "122220.562500",
          "122222.052500",
          "122223.542500",
          "122225.032500",
          "122226.522500",
          "122228.012500",
          "122229.502500",
          "122230.992500",
          "122232.482500",
          "122233.972500",
          "122235.462500",
          "122236.952500",
          "122238.442500",
          "122239.932500",
          "122241.422500",
          "122242.912500",
          "122244.402500",
          "122245.892500",
          "122247.382500",
          "122248.872500",
          "122250.362500",
          "122251.852500",
          "122253.342500",
          "122254.832500",
          "122256.322500",
          "122257.812500",
          "122259.302500",
          "122300.792500",
          "122302.282500",
          "122303.772500",
          "122305.262500",
          "122306.752500",
          "122308.242500",
          "122309.732500",
          "122311.222500",
          "122312.712500",
          "122314.202500",
          "122315.692500",
          "122317.182500",
          "122318.672500",
          "122320.162500",
          "122321.652500",
          "122323.142500",
          "122324.632500",
          "122326.122500",
          "122327.612500",
          "122329.102500",
          "122330.592500",
          "122332.082500",
          "122333.572500",
          "122335.062500",
          "122336.552500",
          "122338.042500",
          "122339.532500",
          "122341.022500",
          "122342.512500",
          "122344.002500",
          "122345.492500",
          "122346.982500",
          "122348.472500",
          "122349.962500",
          "122351.452500",
          "122352.942500",
          "122354.432500",
          "122355.922500",
          "122357.412500",
          "122358.902500",
          "122400.392500",
          "122401.882500",
          "122403.372500",
          "122404.862500",
          "122406.352500",
          "122407.842500",
          "122409.332500",
          "122410.822500",
          "122412.312500",
          "122413.802500",
          "122415.292500",
          "122416.782500",
          "122418.272500",
          "122419.762500",
          "122421.252500",
          "122422.742500",
          "122424.232500",
          "122425.722500",
          "122427.212500",
          "122428.702500",
          "122430.192500",
          "122431.682500",
          "122433.172500",
          "122434.662500",
          "122436.152500",
          "122437.642500",
          "122439.132500",
          "122440.622500",
          "122442.112500",
          "122443.602500",
          "122445.092500",
          "122446.582500",
          "122448.072500",
          "122449.562500",
          "122451.052500",
          "122452.542500",
          "122454.032500",
          "122455.522500",
          "122457.012500",
          "122458.502500",
          "122459.992500",
          "122501.482500",
          "122502.972500",
          "122504.462500",
          "122505.952500",
          "122507.442500",
          "122508.932500",
          "122510.422500",
          "122511.912500",
          "122513.402500",
          "122514.892500",
          "122516.382500",
          "122517.872500",
          "122519.362500",
          "122520.852500",
          "122522.342500",
          "122523.832500",
          "122525.322500",
          "122526.812500",
          "122528.302500",
          "122529.792500",
          "122531.282500",
          "122532.772500",
          "122534.262500",
          "122535.752500",
          "122537.242500",
          "122538.732500",
          "122540.222500",
          "122541.712500",
          "122543.202500",
          "122544.692500",
          "122546.182500",
          "122547.672500",
          "122549.162500",
          "122550.652500",
          "122552.142500",
          "122553.632500",
          "122555.122500",
          "122556.612500",
          "122558.102500",
          "122559.592500",
          "122601.082500",
          "122602.572500",
          "122604.062500",
          "122605.552500",
          "122607.042500",
          "122608.532500",
          "122610.022500",
          "122611.512500",
          "122613.002500",
          "122614.492500",
          "122615.982500",
          "122617.472500",
          "122618.962500",
          "122620.452500",
          "122621.942500",
          "122623.432500",
          "122624.922500",
          "122626.412500",
          "122627.902500",
          "122629.392500",
          "122630.882500",
          "122632.372500",
          "122633.862500",
          "122635.352500",
          "122636.842500",
          "122638.332500",
          "122639.822500",
          "122641.312500",
          "122642.802500",
          "122644.292500",
          "122645.782500",
          "122647.272500",
          "122648.762500",
          "122650.252500",
          "122651.742500",
          "122653.232500",
          "122654.722500",
          "122656.212500",
          "122657.702500",
          "122659.192500",
          "122700.682500",
          "122702.172500",
          "122703.662500",
          "122705.152500",
          "122706.642500",
          "122708.132500",
          "122709.622500",
          "122711.112500",
          "122712.602500",
          "122714.092500",
          "122715.582500",
          "122717.072500"
        ],
        "ContentTime": [
          "121837.348000",
          "121837.351000",
          "121837.354000",
          "121837.357000",
          "121837.360000",
          "121837.363000",
          "121837.366000",
          "121837.369000",
          "121837.371000",
          "121837.374000",
          "121837.377000",
          "121837.380000",
          "121837.383000",
          "121837.390000",
          "121837.393000",
          "121837.396000",
          "121837.398000",
          "121837.401000",
          "121837.404000",
          "121837.407000",
          "121837.410000",
          "121837.413000",
          "121837.416000",
          "121837.419000",
          "121837.421000",
          "121837.424000",
          "121837.427000",
          "121837.430000",
          "121837.433000",
          "121837.436000",
          "121837.439000",
          "121837.442000",
          "121837.444000",
          "121837.447000",
          "121837.450000",
          "121857.296000",
          "121857.299000",
          "121857.302000",
          "121857.305000",
          "121857.308000",
          "121857.311000",
          "121857.314000",
          "121857.316000",
          "121857.319000",
          "121857.322000",
          "121857.326000",
          "121857.329000",
          "121857.332000",
          "121857.335000",
          "121857.337000",
          "121857.340000",
          "121857.343000",
          "121857.346000",
          "121857.351000",
          "121857.354000",
          "121917.296000",
          "121917.299000",
          "121917.302000",
          "121917.305000",
          "121917.308000",
          "121917.311000",
          "121917.313000",
          "121917.316000",
          "121917.319000",
          "121917.322000",
          "121917.325000",
          "121917.328000",
          "121917.330000",
          "121917.333000",
          "121917.336000",
          "121917.339000",
          "121917.342000",
          "121917.345000",
          "121917.348000",
          "121917.350000",
          "121937.296000",
          "121937.299000",
          "121937.302000",
          "121937.305000",
          "121937.308000",
          "121937.311000",
          "121937.313000",
          "121937.316000",
          "121937.319000",
          "121937.322000",
          "121937.325000",
          "121937.328000",
          "121937.331000",
          "121937.337000",
          "121937.339000",
          "121937.342000",
          "121937.345000",
          "121937.348000",
          "121937.351000",
          "121937.354000",
          "122017.296000",
          "122017.299000",
          "122017.302000",
          "122017.305000",
          "122017.308000",
          "122017.310000",
          "122017.314000",
          "122017.316000",
          "122017.319000",
          "122017.322000",
          "122017.325000",
          "122017.328000",
          "122017.331000",
          "122017.334000",
          "122017.337000",
          "122017.339000",
          "122017.342000",
          "122017.345000",
          "122017.349000",
          "122017.352000",
          "122017.355000",
          "122017.358000",
          "122017.361000",
          "122017.364000",
          "122017.366000",
          "122017.369000",
          "122017.372000",
          "122017.375000",
          "122017.378000",
          "122017.381000",
          "122017.384000",
          "122057.296000",
          "122057.299000",
          "122057.302000",
          "122057.312000",
          "122057.314000",
          "122057.317000",
          "122057.320000",
          "122057.323000",
          "122057.326000",
          "122057.329000",
          "122057.331000",
          "122057.334000",
          "122057.337000",
          "122057.340000",
          "122057.343000",
          "122057.346000",
          "122057.349000",
          "122057.352000",
          "122057.354000",
          "122057.357000",
          "122057.360000",
          "122057.363000",
          "122057.366000",
          "122057.369000",
          "122057.371000",
          "122057.374000",
          "122057.377000",
          "122137.296000",
          "122137.299000",
          "122137.302000",
          "122137.305000",
          "122137.308000",
          "122137.310000",
          "122137.313000",
          "122137.316000",
          "122137.319000",
          "122137.322000",
          "122137.325000",
          "122137.328000",
          "122137.331000",
          "122137.333000",
          "122137.336000",
          "122137.339000",
          "122137.342000",
          "122137.345000",
          "122137.348000",
          "122137.351000",
          "122137.354000",
          "122137.356000",
          "122137.359000",
          "122137.362000",
          "122137.365000",
          "122137.368000",
          "122137.371000",
          "122217.296000",
          "122217.299000",
          "122217.302000",
          "122217.305000",
          "122217.308000",
          "122217.311000",
          "122217.313000",
          "122217.316000",
          "122217.319000",
          "122217.322000",
          "122217.325000",
          "122217.328000",
          "122217.331000",
          "122217.333000",
          "122217.336000",
          "122217.339000",
          "122217.342000",
          "122217.345000",
          "122217.348000",
          "122217.351000",
          "122217.354000",
          "122217.356000",
          "122217.359000",
          "122217.362000",
          "122217.365000",
          "122217.368000",
          "122217.371000",
          "122257.296000",
          "122257.299000",
          "122257.302000",
