{
  "aor": 0.000896716049382716,
  "aqi": 0.010404324691358024,
  "bids_meta": {
    "AcquisitionMatrixPE": 104,
    "AcquisitionNumber": 1,
    "AcquisitionTime": "18:19:40.495000",
    "BandwidthPerPixelPhaseEncode": 17.17,
    "BaseResolution": 104,
    "BodyPartExamined": "BRAIN",
    "CogAtlasID": "trm_4c898da401420",
    "ConsistencyInfo": "N4_VE11C_LATEST_20160120",
    "ConversionSoftware": "dcm2niix",
    "ConversionSoftwareVersion": "v1.0.20171215 (OpenJPEG build) GCC7.3.0",
    "DerivedVendorReportedEchoSpacing": 0.000560011,
    "DeviceSerialNumber": "167006",
    "DwellTime": 2.1e-06,
    "EchoTime": 0.037,
    "EchoTrainLength": 104,
    "EffectiveEchoSpacing": 0.000560011,
    "FlipAngle": 52,
    "ImageComments": "Unaliased_MB4_PE3_LB",
    "ImageOrientationPatientDICOM": [
      0.997489,
      0.056385,
      0.0428609,
      -0.0426792,
      0.961468,
      -0.271584
    ],
    "ImageType": [
      "ORIGINAL",
      "PRIMARY",
      "M",
      "MB",
      "ND",
      "MOSAIC"
    ],
    "InPlanePhaseEncodingDirectionDICOM": "COL",
    "InstitutionAddress": "Chemin_Queen-Mary_4565_Montreal_District_CA_H3W_1W5",
    "InstitutionName": "IUGM",
    "InstitutionalDepartmentName": "Department",
    "MRAcquisitionType": "2D",
    "MagneticFieldStrength": 3,
    "Manufacturer": "Siemens",
    "ManufacturersModelName": "Prisma_fit",
    "Modality": "MR",
    "MultibandAccelerationFactor": 4,
    "PartialFourier": 1,
    "PatientPosition": "HFS",
    "PercentPhaseFOV": 100,
    "PhaseEncodingDirection": "j-",
    "PhaseEncodingSteps": 104,
    "PhaseResolution": 1,
    "PixelBandwidth": 2290,
    "ProcedureStepDescription": "video5_generic",
    "ProtocolName": "func_task-bourne5",
    "PulseSequenceDetails": "%CustomerSeq%_cmrr_mbep2d_bold",
    "ReceiveCoilActiveElements": "HC1-7;NC1,2",
    "ReceiveCoilName": "HeadNeck_64",
    "ReconMatrixPE": 104,
    "RepetitionTime": 1.49,
    "SAR": 0.0390121,
    "ScanOptions": "FS",
    "ScanningSequence": "EP",
    "SequenceName": "epfid2d1_104",
    "SequenceVariant": "SK_SS",
    "SeriesDescription": "func_task-bourne5",
    "SeriesNumber": 22,
    "ShimSetting": [
      632,
      -7193,
      -8845,
      680,
      110,
      60,
      -34,
      -14
    ],
    "SliceThickness": 2,
    "SliceTiming": [
      0,
      0.7825,
      0.0975,
      0.8825,
      0.195,
      0.98,
      0.2925,
      1.0775,
      0.3925,
      1.175,
      0.49,
      1.2725,
      0.5875,
      1.3725,
      0.685,
      0,
      0.7825,
      0.0975,
      0.8825,
      0.195,
      0.98,
      0.2925,
      1.0775,
      0.3925,
      1.175,
      0.49,
      1.2725,
      0.5875,
      1.3725,
      0.685,
      0,
      0.7825,
      0.0975,
      0.8825,
      0.195,
      0.98,
      0.2925,
      1.0775,
      0.3925,
      1.175,
      0.49,
      1.2725,
      0.5875,
      1.3725,
      0.685,
      0,
      0.7825,
      0.0975,
      0.8825,
      0.195,
      0.98,
      0.2925,
      1.0775,
      0.3925,
      1.175,
      0.49,
      1.2725,
      0.5875,
      1.3725,
      0.685
    ],
    "SoftwareVersions": "syngo_MR_E11",
    "SpacingBetweenSlices": 2,
    "StationName": "MRC35049",
    "TaskName": "bourne05",
    "TotalReadoutTime": 0.0576811,
    "TxRefAmp": 251.017,
    "dataset": "<unset>",
    "dcmmeta_affine": [
      [
        -1.994977355003357,
        -0.08535848557949066,
        0.11304523050785065,
        108.31427001953125
      ],
      [
        -0.11277005076408386,
        1.9229358434677124,
        -0.5381457805633545,
        -56.57414627075195
      ],
      [
        0.0857217088341713,
        0.5431683659553528,
        1.9229196310043335,
        -65.4446029663086
      ],
      [
        0.0,
        0.0,
        0.0,
        1.0
      ]
    ],
    "dcmmeta_reorient_transform": [
      [
        0.0,
        -1.0,
        0.0,
        103.0
      ],
      [
        1.0,
        0.0,
        0.0,
        0.0
      ],
      [
        0.0,
        0.0,
        1.0,
        0.0
      ],
      [
        0.0,
        0.0,
        0.0,
        1.0
      ]
    ],
    "dcmmeta_shape": [
      104,
      104,
      60,
      405
    ],
    "dcmmeta_slice_dim": 2,
    "dcmmeta_version": 0.6,
    "global": {
      "const": {
        "AcquisitionMatrix": [
          104,
          0,
          0,
          104
        ],
        "AngioFlag": "N",
        "BitsAllocated": 16,
        "BitsStored": 16,
        "BodyPartExamined": "BRAIN",
        "Columns": 832,
        "EchoNumbers": 1,
        "EchoTime": 37.0,
        "EchoTrainLength": 104,
        "FlipAngle": 52.0,
        "HighBit": 15,
        "ImageOrientationPatient": [
          0.99748868466055,
          0.05638502640534,
          0.04286085360134,
          -0.0426792435738,
          0.96146789424225,
          -0.2715841867807
        ],
        "ImagePositionPatient": [
          -794.62361891475,
          -882.48516455521,
          157.01232507657
        ],
        "ImageType": [
          "ORIGINAL",
          "PRIMARY",
          "M",
          "MB",
          "ND",
          "MOSAIC"
        ],
        "ImagedNucleus": "1H",
        "ImagingFrequency": 123.259487,
        "InPlanePhaseEncodingDirection": "COL",
        "MRAcquisitionType": "2D",
        "MagneticFieldStrength": 3.0,
        "Manufacturer": "SIEMENS",
        "ManufacturerModelName": "Prisma_fit",
        "Modality": "MR",
        "NumberOfAverages": 1.0,
        "NumberOfPhaseEncodingSteps": 104,
        "PercentPhaseFieldOfView": 100.0,
        "PercentSampling": 100.0,
        "PerformedProcedureStepStartTime": "170854.303000",
        "PhotometricInterpretation": "MONOCHROME2",
        "PixelBandwidth": 2290.0,
        "PixelRepresentation": 0,
        "PixelSpacing": [
          2.0,
          2.0
        ],
        "ProtocolName": "func_task-bourne5",
        "RepetitionTime": 1490.0,
        "Rows": 832,
        "SAR": 0.03901214249096,
        "SamplesPerPixel": 1,
        "ScanOptions": "FS",
        "ScanningSequence": "EP",
        "SequenceName": "epfid2d1_104",
        "SequenceVariant": [
          "SK",
          "SS"
        ],
        "SeriesDescription": "func_task-bourne5",
        "SeriesNumber": 22,
        "SeriesTime": "182054.703000",
        "SliceLocation": -41.577581772017,
        "SliceThickness": 2.0,
        "SmallestImagePixelValue": 0,
        "SoftwareVersions": "syngo MR E11",
        "SpacingBetweenSlices": 2.0000000074168,
        "SpecificCharacterSet": "ISO_IR 100",
        "StudyID": "1",
        "StudyTime": "170854.237000",
        "TransmitCoilName": "Body",
        "VariableFlipAngleFlag": "N",
        "WindowCenterWidthExplanation": "Algo1",
        "dBdt": 0.0
      },
      "slices": {}
    },
    "modality": "bold",
    "session_id": "001",
    "subject_id": "01",
    "task_id": "bourne05",
    "time": {
      "samples": {
        "AcquisitionNumber": [
          1,
          2,
          3,
          4,
          5,
          6,
          7,
          8,
          9,
          10,
          11,
          12,
          13,
          14,
          15,
          16,
          17,
          18,
          19,
          20,
          21,
          22,
          23,
          24,
          25,
          26,
          27,
          28,
          29,
          30,
          31,
          32,
          33,
          34,
          35,
          36,
          37,
          38,
          39,
          40,
          41,
          42,
          43,
          44,
          45,
          46,
          47,
          48,
          49,
          50,
          51,
          52,
          53,
          54,
          55,
          56,
          57,
          58,
          59,
          60,
          61,
          62,
          63,
          64,
          65,
          66,
          67,
          68,
          69,
          70,
          71,
          72,
          73,
          74,
          75,
          76,
          77,
          78,
          79,
          80,
          81,
          82,
          83,
          84,
          85,
          86,
          87,
          88,
          89,
          90,
          91,
          92,
          93,
          94,
          95,
          96,
          97,
          98,
          99,
          100,
          101,
          102,
          103,
          104,
          105,
          106,
          107,
          108,
          109,
          110,
          111,
          112,
          113,
          114,
          115,
          116,
          117,
          118,
          119,
          120,
          121,
          122,
          123,
          124,
          125,
          126,
          127,
          128,
          129,
          130,
          131,
          132,
          133,
          134,
          135,
          136,
          137,
          138,
          139,
          140,
          141,
          142,
          143,
          144,
          145,
          146,
          147,
          148,
          149,
          150,
          151,
          152,
          153,
          154,
          155,
          156,
          157,
          158,
          159,
          160,
          161,
          162,
          163,
          164,
          165,
          166,
          167,
          168,
          169,
          170,
          171,
          172,
          173,
          174,
          175,
          176,
          177,
          178,
          179,
          180,
          181,
          182,
          183,
          184,
          185,
          186,
          187,
          188,
          189,
          190,
          191,
          192,
          193,
          194,
          195,
          196,
          197,
          198,
          199,
          200,
          201,
          202,
          203,
          204,
          205,
          206,
          207,
          208,
          209,
          210,
          211,
          212,
          213,
          214,
          215,
          216,
          217,
          218,
          219,
          220,
          221,
          222,
          223,
          224,
          225,
          226,
          227,
          228,
          229,
          230,
          231,
          232,
          233,
          234,
          235,
          236,
          237,
          238,
          239,
          240,
          241,
          242,
          243,
          244,
          245,
          246,
          247,
          248,
          249,
          250,
          251,
          252,
          253,
          254,
          255,
          256,
          257,
          258,
          259,
          260,
          261,
          262,
          263,
          264,
          265,
          266,
          267,
          268,
          269,
          270,
          271,
          272,
          273,
          274,
          275,
          276,
          277,
          278,
          279,
          280,
          281,
          282,
          283,
          284,
          285,
          286,
          287,
          288,
          289,
          290,
          291,
          292,
          293,
          294,
          295,
          296,
          297,
          298,
          299,
          300,
          301,
          302,
          303,
          304,
          305,
          306,
          307,
          308,
          309,
          310,
          311,
          312,
          313,
          314,
          315,
          316,
          317,
          318,
          319,
          320,
          321,
          322,
          323,
          324,
          325,
          326,
          327,
          328,
          329,
          330,
          331,
          332,
          333,
          334,
          335,
          336,
          337,
          338,
          339,
          340,
          341,
          342,
          343,
          344,
          345,
          346,
          347,
          348,
          349,
          350,
          351,
          352,
          353,
          354,
          355,
          356,
          357,
          358,
          359,
          360,
          361,
          362,
          363,
          364,
          365,
          366,
          367,
          368,
          369,
          370,
          371,
          372,
          373,
          374,
          375,
          376,
          377,
          378,
          379,
          380,
          381,
          382,
          383,
          384,
          385,
          386,
          387,
          388,
          389,
          390,
          391,
          392,
          393,
          394,
          395,
          396,
          397,
          398,
          399,
          400,
          401,
          402,
          403,
          404,
          405
        ],
        "AcquisitionTime": [
          "181940.495000",
          "181941.985000",
          "181943.475000",
          "181944.965000",
          "181946.455000",
          "181947.945000",
          "181949.435000",
          "181950.925000",
          "181952.415000",
          "181953.905000",
          "181955.395000",
          "181956.885000",
          "181958.375000",
          "181959.865000",
          "182001.355000",
          "182002.845000",
          "182004.335000",
          "182005.825000",
          "182007.315000",
          "182008.805000",
          "182010.295000",
          "182011.785000",
          "182013.275000",
          "182014.765000",
          "182016.255000",
          "182017.745000",
          "182019.235000",
          "182020.725000",
          "182022.215000",
          "182023.705000",
          "182025.195000",
          "182026.685000",
          "182028.175000",
          "182029.665000",
          "182031.155000",
          "182032.645000",
          "182034.135000",
          "182035.625000",
          "182037.115000",
          "182038.605000",
          "182040.095000",
          "182041.585000",
          "182043.075000",
          "182044.565000",
          "182046.055000",
          "182047.545000",
          "182049.035000",
          "182050.525000",
          "182052.015000",
          "182053.505000",
          "182054.995000",
          "182056.485000",
          "182057.975000",
          "182059.465000",
          "182100.955000",
          "182102.445000",
          "182103.935000",
          "182105.425000",
          "182106.915000",
          "182108.405000",
          "182109.895000",
          "182111.385000",
          "182112.875000",
          "182114.365000",
          "182115.855000",
          "182117.345000",
          "182118.835000",
          "182120.325000",
          "182121.815000",
          "182123.305000",
          "182124.795000",
          "182126.285000",
          "182127.775000",
          "182129.265000",
          "182130.755000",
          "182132.245000",
          "182133.735000",
          "182135.225000",
          "182136.715000",
          "182138.205000",
          "182139.695000",
          "182141.185000",
          "182142.675000",
          "182144.165000",
          "182145.655000",
          "182147.145000",
          "182148.635000",
          "182150.125000",
          "182151.615000",
          "182153.105000",
          "182154.595000",
          "182156.085000",
          "182157.575000",
          "182159.065000",
          "182200.555000",
          "182202.045000",
          "182203.535000",
          "182205.025000",
          "182206.515000",
          "182208.005000",
          "182209.495000",
          "182210.985000",
          "182212.475000",
          "182213.965000",
          "182215.455000",
          "182216.945000",
          "182218.435000",
          "182219.925000",
          "182221.415000",
          "182222.905000",
          "182224.395000",
          "182225.885000",
          "182227.375000",
          "182228.865000",
          "182230.355000",
          "182231.845000",
          "182233.335000",
          "182234.825000",
          "182236.315000",
          "182237.805000",
          "182239.295000",
          "182240.785000",
          "182242.275000",
          "182243.765000",
          "182245.255000",
          "182246.745000",
          "182248.235000",
          "182249.725000",
          "182251.215000",
          "182252.705000",
          "182254.195000",
          "182255.685000",
          "182257.175000",
          "182258.665000",
          "182300.155000",
          "182301.645000",
          "182303.135000",
          "182304.625000",
          "182306.115000",
          "182307.605000",
          "182309.095000",
          "182310.585000",
          "182312.075000",
          "182313.565000",
          "182315.055000",
          "182316.545000",
          "182318.035000",
          "182319.525000",
          "182321.015000",
          "182322.505000",
          "182323.995000",
          "182325.485000",
          "182326.975000",
          "182328.465000",
          "182329.955000",
          "182331.445000",
          "182332.935000",
          "182334.425000",
          "182335.915000",
          "182337.405000",
          "182338.895000",
          "182340.385000",
          "182341.875000",
          "182343.365000",
          "182344.855000",
          "182346.345000",
          "182347.835000",
          "182349.325000",
          "182350.815000",
          "182352.305000",
          "182353.795000",
          "182355.285000",
          "182356.775000",
          "182358.265000",
          "182359.755000",
          "182401.245000",
          "182402.735000",
          "182404.225000",
          "182405.715000",
          "182407.205000",
          "182408.695000",
          "182410.185000",
          "182411.675000",
          "182413.165000",
          "182414.655000",
          "182416.145000",
          "182417.635000",
          "182419.125000",
          "182420.615000",
          "182422.105000",
          "182423.595000",
          "182425.085000",
          "182426.575000",
          "182428.065000",
          "182429.555000",
          "182431.045000",
          "182432.535000",
          "182434.025000",
          "182435.515000",
          "182437.005000",
          "182438.495000",
          "182439.985000",
          "182441.475000",
          "182442.965000",
          "182444.455000",
          "182445.945000",
          "182447.435000",
          "182448.925000",
          "182450.415000",
          "182451.905000",
          "182453.395000",
          "182454.885000",
          "182456.375000",
          "182457.865000",
          "182459.355000",
          "182500.845000",
          "182502.335000",
          "182503.825000",
          "182505.315000",
          "182506.805000",
          "182508.295000",
          "182509.785000",
          "182511.275000",
          "182512.765000",
          "182514.255000",
          "182515.745000",
          "182517.235000",
          "182518.725000",
          "182520.215000",
          "182521.705000",
          "182523.195000",
          "182524.685000",
          "182526.175000",
          "182527.665000",
          "182529.155000",
          "182530.645000",
          "182532.135000",
          "182533.625000",
          "182535.115000",
          "182536.605000",
          "182538.095000",
          "182539.585000",
          "182541.075000",
          "182542.565000",
          "182544.055000",
          "182545.545000",
          "182547.035000",
          "182548.525000",
          "182550.015000",
          "182551.505000",
          "182552.995000",
          "182554.485000",
          "182555.975000",
          "182557.465000",
          "182558.955000",
          "182600.445000",
          "182601.935000",
          "182603.425000",
          "182604.915000",
          "182606.405000",
          "182607.895000",
          "182609.385000",
          "182610.875000",
          "182612.365000",
          "182613.855000",
          "182615.345000",
          "182616.835000",
          "182618.325000",
          "182619.815000",
          "182621.305000",
          "182622.795000",
          "182624.285000",
          "182625.775000",
          "182627.265000",
          "182628.755000",
          "182630.245000",
          "182631.735000",
          "182633.225000",
          "182634.715000",
          "182636.205000",
          "182637.695000",
          "182639.185000",
          "182640.675000",
          "182642.165000",
          "182643.655000",
          "182645.145000",
          "182646.635000",
          "182648.125000",
          "182649.615000",
          "182651.105000",
          "182652.595000",
          "182654.085000",
          "182655.575000",
          "182657.065000",
          "182658.555000",
          "182700.045000",
          "182701.535000",
          "182703.025000",
          "182704.515000",
          "182706.005000",
          "182707.495000",
          "182708.985000",
          "182710.475000",
          "182711.965000",
          "182713.455000",
          "182714.945000",
          "182716.435000",
          "182717.925000",
          "182719.415000",
          "182720.905000",
          "182722.395000",
          "182723.885000",
          "182725.375000",
          "182726.865000",
          "182728.355000",
          "182729.845000",
          "182731.335000",
          "182732.825000",
          "182734.315000",
          "182735.805000",
          "182737.295000",
          "182738.785000",
          "182740.275000",
          "182741.765000",
          "182743.255000",
          "182744.745000",
          "182746.235000",
          "182747.725000",
          "182749.215000",
          "182750.705000",
          "182752.195000",
          "182753.685000",
          "182755.175000",
          "182756.665000",
          "182758.155000",
          "182759.645000",
          "182801.135000",
          "182802.625000",
          "182804.115000",
          "182805.605000",
          "182807.095000",
          "182808.585000",
          "182810.075000",
          "182811.565000",
          "182813.055000",
          "182814.545000",
          "182816.035000",
          "182817.525000",
          "182819.015000",
          "182820.505000",
          "182821.995000",
          "182823.485000",
          "182824.975000",
          "182826.465000",
          "182827.955000",
          "182829.445000",
          "182830.935000",
          "182832.425000",
          "182833.915000",
          "182835.405000",
          "182836.895000",
          "182838.385000",
          "182839.875000",
          "182841.365000",
          "182842.855000",
          "182844.345000",
          "182845.835000",
          "182847.325000",
          "182848.815000",
          "182850.305000",
          "182851.795000",
          "182853.285000",
          "182854.775000",
          "182856.265000",
          "182857.755000",
          "182859.245000",
          "182900.735000",
          "182902.225000",
          "182903.715000",
          "182905.205000",
          "182906.695000",
          "182908.185000",
          "182909.675000",
          "182911.165000",
          "182912.655000",
          "182914.145000",
          "182915.635000",
          "182917.125000",
          "182918.615000",
          "182920.105000",
          "182921.595000",
          "182923.085000",
          "182924.575000",
          "182926.065000",
          "182927.555000",
          "182929.045000",
          "182930.535000",
          "182932.025000",
          "182933.515000",
          "182935.005000",
          "182936.495000",
          "182937.985000",
          "182939.475000",
          "182940.965000",
          "182942.455000"
        ],
        "ContentTime": [
          "182054.705000",
          "182054.709000",
          "182054.715000",
          "182054.718000",
          "182054.721000",
          "182054.723000",
          "182054.726000",
          "182054.729000",
          "182054.732000",
          "182054.738000",
          "182054.741000",
          "182054.744000",
          "182054.747000",
          "182054.750000",
          "182054.753000",
          "182054.756000",
          "182054.758000",
          "182054.761000",
          "182054.764000",
          "182054.767000",
          "182054.770000",
          "182114.667000",
          "182114.670000",
          "182114.673000",
          "182114.675000",
          "182114.678000",
          "182114.681000",
          "182114.684000",
          "182114.687000",
          "182114.689000",
          "182114.692000",
          "182114.695000",
          "182114.698000",
          "182114.701000",
          "182114.703000",
          "182114.706000",
          "182114.709000",
          "182114.712000",
          "182114.715000",
          "182114.718000",
          "182114.720000",
          "182134.667000",
          "182134.670000",
          "182134.672000",
          "182134.675000",
          "182134.678000",
          "182134.681000",
          "182134.690000",
          "182134.693000",
          "182134.696000",
          "182134.698000",
          "182134.701000",
          "182134.704000",
          "182134.707000",
          "182134.710000",
          "182134.712000",
          "182134.715000",
          "182134.718000",
          "182134.721000",
          "182134.723000",
          "182134.726000",
          "182154.668000",
          "182154.671000",
          "182154.673000",
          "182154.676000",
          "182154.679000",
          "182154.682000",
          "182154.685000",
          "182154.687000",
          "182154.690000",
          "182154.693000",
          "182154.696000",
          "182154.699000",
          "182154.701000",
          "182154.704000",
          "182154.707000",
          "182154.710000",
          "182154.714000",
          "182154.717000",
          "182154.720000",
          "182154.723000",
          "182154.726000",
          "182214.668000",
          "182214.671000",
          "182214.674000",
          "182214.676000",
          "182214.679000",
          "182214.682000",
          "182214.685000",
          "182214.688000",
          "182214.691000",
          "182214.694000",
          "182214.696000",
          "182214.699000",
          "182214.702000",
          "182214.705000",
          "182214.708000",
          "182214.710000",
          "182214.713000",
          "182214.716000",
          "182214.719000",
          "182214.722000",
          "182254.668000",
          "182254.671000",
          "182254.674000",
          "182254.676000",
          "182254.679000",
          "182254.682000",
          "182254.690000",
          "182254.692000",
          "182254.695000",
          "182254.698000",
          "182254.701000",
          "182254.704000",
          "182254.706000",
          "182254.709000",
          "182254.712000",
          "182254.715000",
          "182254.718000",
          "182254.721000",
          "182254.723000",
          "182254.726000",
          "182254.729000",
          "182254.732000",
          "182254.734000",
          "182254.737000",
          "182254.740000",
          "182254.743000",
          "182254.746000",
          "182254.748000",
          "182334.668000",
          "182334.671000",
          "182334.676000",
          "182334.679000",
          "182334.682000",
          "182334.685000",
          "182334.688000",
          "182334.691000",
          "182334.693000",
          "182334.696000",
          "182334.699000",
          "182334.702000",
          "182334.715000",
          "182334.718000",
          "182334.721000",
          "182334.724000",
          "182334.727000",
          "182334.729000",
          "182334.732000",
          "182334.735000",
          "182334.738000",
          "182334.741000",
          "182334.743000",
          "182334.746000",
          "182334.749000",
          "182334.752000",
          "182414.668000",
          "182414.671000",
          "182414.674000",
          "182414.677000",
          "182414.679000",
          "182414.682000",
          "182414.685000",
          "182414.688000",
          "182414.691000",
          "182414.694000",
          "182414.696000",
          "182414.699000",
          "182414.702000",
          "182414.705000",
          "182414.708000",
          "182414.711000",
          "182414.714000",
          "182414.716000",
          "182414.719000",
          "182414.722000",
          "182414.725000",
          "182414.728000",
          "182414.730000",
          "182414.733000",
          "182414.736000",
          "182414.739000",
          "182414.742000",
          "182454.668000",
          "182454.671000",
          "182454.674000",
          "182454.677000",
          "182454.679000",
          "182454.682000",
          "182454.685000",
          "182454.688000",
          "182454.691000",
          "182454.694000",
          "182454.696000",
          "182454.699000",
          "182454.702000",
          "182454.705000",
          "182454.708000",
          "182454.711000",
          "182454.714000",
          "182454.716000",
          "182454.719000",
          "182454.722000",
          "182454.725000",
          "182454.728000",
          "182454.731000",
          "182454.734000",
          "182454.736000",
          "182454.739000",
          "182454.742000",
          "182534.667000",
          "182534.670000",
          "182534.673000",
          "182534.676000",
          "182534.678000",
          "182534.682000",
          "182534.684000",
          "182534.687000",
          "182534.690000",
          "182534.693000",
          "182534.696000",
          "182534.699000",
          "182534.702000",
          "182534.705000",
          "182534.708000",
