{
  "aor": 0.0007795555555555557,
  "aqi": 0.006161009679012347,
  "bids_meta": {
    "AcquisitionMatrixPE": 104,
    "AcquisitionNumber": 1,
    "AcquisitionTime": "17:24:16.420000",
    "BandwidthPerPixelPhaseEncode": 17.17,
    "BaseResolution": 104,
    "BodyPartExamined": "BRAIN",
    "CogAtlasID": "trm_4c898da401420",
    "ConsistencyInfo": "N4_VE11C_LATEST_20160120",
    "ConversionSoftware": "dcm2niix",
    "ConversionSoftwareVersion": "v1.0.20171215 (OpenJPEG build) GCC7.3.0",
    "DerivedVendorReportedEchoSpacing": 0.000560011,
    "DeviceSerialNumber": "167006",
    "DwellTime": 2.1e-06,
    "EchoTime": 0.037,
    "EchoTrainLength": 104,
    "EffectiveEchoSpacing": 0.000560011,
    "FlipAngle": 52,
    "ImageComments": "Unaliased_MB4_PE3_LB",
    "ImageOrientationPatientDICOM": [
      0.996723,
      0.0725261,
      0.0358107,
      -0.0602638,
      0.96117,
      -0.269295
    ],
    "ImageType": [
      "ORIGINAL",
      "PRIMARY",
      "M",
      "MB",
      "ND",
      "MOSAIC"
    ],
    "InPlanePhaseEncodingDirectionDICOM": "COL",
    "InstitutionAddress": "Chemin_Queen-Mary_4565_Montreal_District_CA_H3W_1W5",
    "InstitutionName": "IUGM",
    "InstitutionalDepartmentName": "Department",
    "MRAcquisitionType": "2D",
    "MagneticFieldStrength": 3,
    "Manufacturer": "Siemens",
    "ManufacturersModelName": "Prisma_fit",
    "Modality": "MR",
    "MultibandAccelerationFactor": 4,
    "PartialFourier": 1,
    "PatientPosition": "HFS",
    "PercentPhaseFOV": 100,
    "PhaseEncodingDirection": "j-",
    "PhaseEncodingSteps": 104,
    "PhaseResolution": 1,
    "PixelBandwidth": 2290,
    "ProcedureStepDescription": "video5_generic",
    "ProtocolName": "func_task-bourne1",
    "PulseSequenceDetails": "%CustomerSeq%_cmrr_mbep2d_bold",
    "ReceiveCoilActiveElements": "HC1-7;NC1,2",
    "ReceiveCoilName": "HeadNeck_64",
    "ReconMatrixPE": 104,
    "RepetitionTime": 1.49,
    "SAR": 0.0399744,
    "ScanOptions": "FS",
    "ScanningSequence": "EP",
    "SequenceName": "epfid2d1_104",
    "SequenceVariant": "SK_SS",
    "SeriesDescription": "func_task-bourne1",
    "SeriesNumber": 7,
    "ShimSetting": [
      638,
      -7195,
      -8828,
      702,
      123,
      40,
      -40,
      -12
    ],
    "SliceThickness": 2,
    "SliceTiming": [
      0,
      0.785,
      0.0975,
      0.8825,
      0.1975,
      0.98,
      0.295,
      1.0775,
      0.3925,
      1.1775,
      0.49,
      1.275,
      0.5875,
      1.3725,
      0.6875,
      0,
      0.785,
      0.0975,
      0.8825,
      0.1975,
      0.98,
      0.295,
      1.0775,
      0.3925,
      1.1775,
      0.49,
      1.275,
      0.5875,
      1.3725,
      0.6875,
      0,
      0.785,
      0.0975,
      0.8825,
      0.1975,
      0.98,
      0.295,
      1.0775,
      0.3925,
      1.1775,
      0.49,
      1.275,
      0.5875,
      1.3725,
      0.6875,
      0,
      0.785,
      0.0975,
      0.8825,
      0.1975,
      0.98,
      0.295,
      1.0775,
      0.3925,
      1.1775,
      0.49,
      1.275,
      0.5875,
      1.3725,
      0.6875
    ],
    "SoftwareVersions": "syngo_MR_E11",
    "SpacingBetweenSlices": 2,
    "StationName": "MRC35049",
    "TaskName": "bourne01",
    "TotalReadoutTime": 0.0576811,
    "TxRefAmp": 254.737,
    "dataset": "<unset>",
    "dcmmeta_affine": [
      [
        -1.9934468269348145,
        -0.12052757292985916,
        0.10790229588747025,
        110.01319885253906
      ],
      [
        -0.14505226910114288,
        1.9223408699035645,
        -0.5325087308883667,
        -55.06992721557617
      ],
      [
        0.07162149995565414,
        0.5385896563529968,
        1.9247835874557495,
        -60.57136154174805
      ],
      [
        0.0,
        0.0,
        0.0,
        1.0
      ]
    ],
    "dcmmeta_reorient_transform": [
      [
        0.0,
        -1.0,
        0.0,
        103.0
      ],
      [
        1.0,
        0.0,
        0.0,
        0.0
      ],
      [
        0.0,
        0.0,
        1.0,
        0.0
      ],
      [
        0.0,
        0.0,
        0.0,
        1.0
      ]
    ],
    "dcmmeta_shape": [
      104,
      104,
      60,
      405
    ],
    "dcmmeta_slice_dim": 2,
    "dcmmeta_version": 0.6,
    "global": {
      "const": {
        "AcquisitionMatrix": [
          104,
          0,
          0,
          104
        ],
        "AngioFlag": "N",
        "BitsAllocated": 16,
        "BitsStored": 16,
        "BodyPartExamined": "BRAIN",
        "Columns": 832,
        "EchoNumbers": 1,
        "EchoTime": 37.0,
        "EchoTrainLength": 104,
        "FlipAngle": 52.0,
        "HighBit": 15,
        "ImageOrientationPatient": [
          0.99672340704523,
          0.07252613365188,
          0.03581074958241,
          -0.0602637847825,
          0.96117041950955,
          -0.2692948215312
        ],
        "ImagePositionPatient": [
          -779.34146167868,
          -895.46227096933,
          164.87977676155
        ],
        "ImageType": [
          "ORIGINAL",
          "PRIMARY",
          "M",
          "MB",
          "ND",
          "MOSAIC"
        ],
        "ImagedNucleus": "1H",
        "ImagingFrequency": 123.259467,
        "InPlanePhaseEncodingDirection": "COL",
        "MRAcquisitionType": "2D",
        "MagneticFieldStrength": 3.0,
        "Manufacturer": "SIEMENS",
        "ManufacturerModelName": "Prisma_fit",
        "Modality": "MR",
        "NumberOfAverages": 1.0,
        "NumberOfPhaseEncodingSteps": 104,
        "PercentPhaseFieldOfView": 100.0,
        "PercentSampling": 100.0,
        "PerformedProcedureStepStartTime": "170854.303000",
        "PhotometricInterpretation": "MONOCHROME2",
        "PixelBandwidth": 2290.0,
        "PixelRepresentation": 0,
        "PixelSpacing": [
          2.0,
          2.0
        ],
        "ProtocolName": "func_task-bourne1",
        "RepetitionTime": 1490.0,
        "Rows": 832,
        "SAR": 0.03997435587613,
        "SamplesPerPixel": 1,
        "ScanOptions": "FS",
        "ScanningSequence": "EP",
        "SequenceName": "epfid2d1_104",
        "SequenceVariant": [
          "SK",
          "SS"
        ],
        "SeriesDescription": "func_task-bourne1",
        "SeriesNumber": 7,
        "SeriesTime": "172545.261000",
        "SliceLocation": -37.695432313974,
        "SliceThickness": 2.0,
        "SmallestImagePixelValue": 0,
        "SoftwareVersions": "syngo MR E11",
        "SpacingBetweenSlices": 2.0000000456859,
        "SpecificCharacterSet": "ISO_IR 100",
        "StudyID": "1",
        "StudyTime": "170854.237000",
        "TransmitCoilName": "Body",
        "VariableFlipAngleFlag": "N",
        "WindowCenterWidthExplanation": "Algo1",
        "dBdt": 0.0
      },
      "slices": {}
    },
    "modality": "bold",
    "session_id": "001",
    "subject_id": "01",
    "task_id": "bourne01",
    "time": {
      "samples": {
        "AcquisitionNumber": [
          1,
          2,
          3,
          4,
          5,
          6,
          7,
          8,
          9,
          10,
          11,
          12,
          13,
          14,
          15,
          16,
          17,
          18,
          19,
          20,
          21,
          22,
          23,
          24,
          25,
          26,
          27,
          28,
          29,
          30,
          31,
          32,
          33,
          34,
          35,
          36,
          37,
          38,
          39,
          40,
          41,
          42,
          43,
          44,
          45,
          46,
          47,
          48,
          49,
          50,
          51,
          52,
          53,
          54,
          55,
          56,
          57,
          58,
          59,
          60,
          61,
          62,
          63,
          64,
          65,
          66,
          67,
          68,
          69,
          70,
          71,
          72,
          73,
          74,
          75,
          76,
          77,
          78,
          79,
          80,
          81,
          82,
          83,
          84,
          85,
          86,
          87,
          88,
          89,
          90,
          91,
          92,
          93,
          94,
          95,
          96,
          97,
          98,
          99,
          100,
          101,
          102,
          103,
          104,
          105,
          106,
          107,
          108,
          109,
          110,
          111,
          112,
          113,
          114,
          115,
          116,
          117,
          118,
          119,
          120,
          121,
          122,
          123,
          124,
          125,
          126,
          127,
          128,
          129,
          130,
          131,
          132,
          133,
          134,
          135,
          136,
          137,
          138,
          139,
          140,
          141,
          142,
          143,
          144,
          145,
          146,
          147,
          148,
          149,
          150,
          151,
          152,
          153,
          154,
          155,
          156,
          157,
          158,
          159,
          160,
          161,
          162,
          163,
          164,
          165,
          166,
          167,
          168,
          169,
          170,
          171,
          172,
          173,
          174,
          175,
          176,
          177,
          178,
          179,
          180,
          181,
          182,
          183,
          184,
          185,
          186,
          187,
          188,
          189,
          190,
          191,
          192,
          193,
          194,
          195,
          196,
          197,
          198,
          199,
          200,
          201,
          202,
          203,
          204,
          205,
          206,
          207,
          208,
          209,
          210,
          211,
          212,
          213,
          214,
          215,
          216,
          217,
          218,
          219,
          220,
          221,
          222,
          223,
          224,
          225,
          226,
          227,
          228,
          229,
          230,
          231,
          232,
          233,
          234,
          235,
          236,
          237,
          238,
          239,
          240,
          241,
          242,
          243,
          244,
          245,
          246,
          247,
          248,
          249,
          250,
          251,
          252,
          253,
          254,
          255,
          256,
          257,
          258,
          259,
          260,
          261,
          262,
          263,
          264,
          265,
          266,
          267,
          268,
          269,
          270,
          271,
          272,
          273,
          274,
          275,
          276,
          277,
          278,
          279,
          280,
          281,
          282,
          283,
          284,
          285,
          286,
          287,
          288,
          289,
          290,
          291,
          292,
          293,
          294,
          295,
          296,
          297,
          298,
          299,
          300,
          301,
          302,
          303,
          304,
          305,
          306,
          307,
          308,
          309,
          310,
          311,
          312,
          313,
          314,
          315,
          316,
          317,
          318,
          319,
          320,
          321,
          322,
          323,
          324,
          325,
          326,
          327,
          328,
          329,
          330,
          331,
          332,
          333,
          334,
          335,
          336,
          337,
          338,
          339,
          340,
          341,
          342,
          343,
          344,
          345,
          346,
          347,
          348,
          349,
          350,
          351,
          352,
          353,
          354,
          355,
          356,
          357,
          358,
          359,
          360,
          361,
          362,
          363,
          364,
          365,
          366,
          367,
          368,
          369,
          370,
          371,
          372,
          373,
          374,
          375,
          376,
          377,
          378,
          379,
          380,
          381,
          382,
          383,
          384,
          385,
          386,
          387,
          388,
          389,
          390,
          391,
          392,
          393,
          394,
          395,
          396,
          397,
          398,
          399,
          400,
          401,
          402,
          403,
          404,
          405
        ],
        "AcquisitionTime": [
          "172416.420000",
          "172417.910000",
          "172419.400000",
          "172420.890000",
          "172422.380000",
          "172423.870000",
          "172425.360000",
          "172426.850000",
          "172428.340000",
          "172429.830000",
          "172431.320000",
          "172432.810000",
          "172434.300000",
          "172435.790000",
          "172437.280000",
          "172438.770000",
          "172440.260000",
          "172441.750000",
          "172443.240000",
          "172444.730000",
          "172446.220000",
          "172447.710000",
          "172449.200000",
          "172450.690000",
          "172452.180000",
          "172453.670000",
          "172455.160000",
          "172456.650000",
          "172458.140000",
          "172459.630000",
          "172501.120000",
          "172502.610000",
          "172504.100000",
          "172505.590000",
          "172507.080000",
          "172508.570000",
          "172510.060000",
          "172511.550000",
          "172513.040000",
          "172514.530000",
          "172516.020000",
          "172517.510000",
          "172519.000000",
          "172520.490000",
          "172521.980000",
          "172523.470000",
          "172524.960000",
          "172526.450000",
          "172527.940000",
          "172529.430000",
          "172530.920000",
          "172532.410000",
          "172533.900000",
          "172535.390000",
          "172536.880000",
          "172538.370000",
          "172539.860000",
          "172541.350000",
          "172542.840000",
          "172544.330000",
          "172545.820000",
          "172547.310000",
          "172548.800000",
          "172550.290000",
          "172551.780000",
          "172553.270000",
          "172554.760000",
          "172556.250000",
          "172557.740000",
          "172559.230000",
          "172600.720000",
          "172602.210000",
          "172603.700000",
          "172605.190000",
          "172606.680000",
          "172608.170000",
          "172609.660000",
          "172611.150000",
          "172612.640000",
          "172614.130000",
          "172615.620000",
          "172617.110000",
          "172618.600000",
          "172620.090000",
          "172621.580000",
          "172623.070000",
          "172624.560000",
          "172626.050000",
          "172627.540000",
          "172629.030000",
          "172630.520000",
          "172632.010000",
          "172633.500000",
          "172634.990000",
          "172636.480000",
          "172637.970000",
          "172639.460000",
          "172640.950000",
          "172642.440000",
          "172643.930000",
          "172645.420000",
          "172646.910000",
          "172648.400000",
          "172649.890000",
          "172651.380000",
          "172652.870000",
          "172654.360000",
          "172655.850000",
          "172657.340000",
          "172658.830000",
          "172700.320000",
          "172701.810000",
          "172703.300000",
          "172704.790000",
          "172706.280000",
          "172707.770000",
          "172709.260000",
          "172710.750000",
          "172712.240000",
          "172713.730000",
          "172715.220000",
          "172716.710000",
          "172718.200000",
          "172719.690000",
          "172721.180000",
          "172722.670000",
          "172724.160000",
          "172725.650000",
          "172727.140000",
          "172728.630000",
          "172730.120000",
          "172731.610000",
          "172733.100000",
          "172734.590000",
          "172736.080000",
          "172737.570000",
          "172739.060000",
          "172740.550000",
          "172742.040000",
          "172743.530000",
          "172745.020000",
          "172746.510000",
          "172748.000000",
          "172749.490000",
          "172750.980000",
          "172752.470000",
          "172753.960000",
          "172755.450000",
          "172756.940000",
          "172758.430000",
          "172759.920000",
          "172801.410000",
          "172802.900000",
          "172804.390000",
          "172805.880000",
          "172807.370000",
          "172808.860000",
          "172810.350000",
          "172811.840000",
          "172813.330000",
          "172814.820000",
          "172816.310000",
          "172817.800000",
          "172819.290000",
          "172820.780000",
          "172822.270000",
          "172823.760000",
          "172825.250000",
          "172826.740000",
          "172828.230000",
          "172829.720000",
          "172831.210000",
          "172832.700000",
          "172834.190000",
          "172835.680000",
          "172837.170000",
          "172838.660000",
          "172840.150000",
          "172841.640000",
          "172843.130000",
          "172844.620000",
          "172846.110000",
          "172847.600000",
          "172849.090000",
          "172850.580000",
          "172852.070000",
          "172853.560000",
          "172855.050000",
          "172856.540000",
          "172858.030000",
          "172859.520000",
          "172901.010000",
          "172902.500000",
          "172903.990000",
          "172905.480000",
          "172906.970000",
          "172908.460000",
          "172909.950000",
          "172911.440000",
          "172912.930000",
          "172914.420000",
          "172915.910000",
          "172917.400000",
          "172918.890000",
          "172920.380000",
          "172921.870000",
          "172923.360000",
          "172924.850000",
          "172926.340000",
          "172927.830000",
          "172929.320000",
          "172930.810000",
          "172932.300000",
          "172933.790000",
          "172935.280000",
          "172936.770000",
          "172938.260000",
          "172939.750000",
          "172941.240000",
          "172942.730000",
          "172944.220000",
          "172945.710000",
          "172947.200000",
          "172948.690000",
          "172950.180000",
          "172951.670000",
          "172953.160000",
          "172954.650000",
          "172956.140000",
          "172957.630000",
          "172959.120000",
          "173000.610000",
          "173002.100000",
          "173003.590000",
          "173005.080000",
          "173006.570000",
          "173008.060000",
          "173009.550000",
          "173011.040000",
          "173012.530000",
          "173014.020000",
          "173015.510000",
          "173017.000000",
          "173018.490000",
          "173019.980000",
          "173021.470000",
          "173022.960000",
          "173024.450000",
          "173025.940000",
          "173027.430000",
          "173028.920000",
          "173030.410000",
          "173031.900000",
          "173033.390000",
          "173034.880000",
          "173036.370000",
          "173037.860000",
          "173039.350000",
          "173040.840000",
          "173042.330000",
          "173043.820000",
          "173045.310000",
          "173046.800000",
          "173048.290000",
          "173049.780000",
          "173051.270000",
          "173052.760000",
          "173054.250000",
          "173055.740000",
          "173057.230000",
          "173058.720000",
          "173100.210000",
          "173101.700000",
          "173103.190000",
          "173104.680000",
          "173106.170000",
          "173107.660000",
          "173109.150000",
          "173110.640000",
          "173112.130000",
          "173113.620000",
          "173115.110000",
          "173116.600000",
          "173118.090000",
          "173119.580000",
          "173121.070000",
          "173122.560000",
          "173124.050000",
          "173125.540000",
          "173127.030000",
          "173128.520000",
          "173130.010000",
          "173131.500000",
          "173132.990000",
          "173134.480000",
          "173135.970000",
          "173137.460000",
          "173138.950000",
          "173140.440000",
          "173141.930000",
          "173143.420000",
          "173144.910000",
          "173146.400000",
          "173147.890000",
          "173149.380000",
          "173150.870000",
          "173152.360000",
          "173153.850000",
          "173155.340000",
          "173156.830000",
          "173158.320000",
          "173159.810000",
          "173201.300000",
          "173202.790000",
          "173204.280000",
          "173205.770000",
          "173207.260000",
          "173208.750000",
          "173210.240000",
          "173211.730000",
          "173213.220000",
          "173214.710000",
          "173216.200000",
          "173217.690000",
          "173219.180000",
          "173220.670000",
          "173222.160000",
          "173223.650000",
          "173225.140000",
          "173226.630000",
          "173228.120000",
          "173229.610000",
          "173231.100000",
          "173232.590000",
          "173234.080000",
          "173235.570000",
          "173237.060000",
          "173238.550000",
          "173240.040000",
          "173241.530000",
          "173243.020000",
          "173244.510000",
          "173246.000000",
          "173247.490000",
          "173248.980000",
          "173250.470000",
          "173251.960000",
          "173253.450000",
          "173254.940000",
          "173256.430000",
          "173257.920000",
          "173259.410000",
          "173300.900000",
          "173302.390000",
          "173303.880000",
          "173305.370000",
          "173306.860000",
          "173308.350000",
          "173309.840000",
          "173311.330000",
          "173312.820000",
          "173314.310000",
          "173315.800000",
          "173317.290000",
          "173318.780000",
          "173320.270000",
          "173321.760000",
          "173323.250000",
          "173324.740000",
          "173326.230000",
          "173327.720000",
          "173329.210000",
          "173330.700000",
          "173332.190000",
          "173333.680000",
          "173335.170000",
          "173336.660000",
          "173338.150000",
          "173339.640000",
          "173341.130000",
          "173342.620000",
          "173344.110000",
          "173345.600000",
          "173347.090000",
          "173348.580000",
          "173350.070000",
          "173351.560000",
          "173353.050000",
          "173354.540000",
          "173356.030000",
          "173357.520000",
          "173359.010000",
          "173400.500000",
          "173401.990000",
          "173403.480000",
          "173404.970000",
          "173406.460000",
          "173407.950000",
          "173409.440000",
          "173410.930000",
          "173412.420000",
          "173413.910000",
          "173415.400000",
          "173416.890000",
          "173418.380000"
        ],
        "ContentTime": [
          "172545.263000",
          "172545.267000",
          "172545.269000",
          "172545.272000",
          "172545.275000",
          "172545.280000",
          "172545.283000",
          "172545.286000",
          "172545.288000",
          "172545.291000",
          "172545.294000",
          "172545.297000",
          "172545.300000",
          "172545.302000",
          "172545.305000",
          "172545.308000",
          "172545.311000",
          "172545.314000",
          "172545.317000",
          "172545.319000",
          "172545.322000",
          "172545.325000",
          "172545.328000",
          "172545.330000",
          "172545.338000",
          "172545.341000",
          "172545.344000",
          "172545.347000",
          "172545.349000",
          "172545.352000",
          "172545.355000",
          "172545.358000",
          "172545.361000",
          "172545.364000",
          "172545.366000",
          "172605.215000",
          "172605.218000",
          "172605.221000",
          "172605.223000",
          "172605.226000",
          "172605.229000",
          "172605.232000",
          "172605.235000",
          "172605.237000",
          "172605.240000",
          "172605.243000",
          "172605.246000",
          "172605.249000",
          "172605.268000",
          "172605.271000",
          "172605.274000",
          "172605.276000",
          "172605.279000",
          "172605.282000",
          "172605.285000",
          "172625.215000",
          "172625.218000",
          "172625.220000",
          "172625.223000",
          "172625.226000",
          "172625.229000",
          "172625.232000",
          "172625.234000",
          "172625.237000",
          "172625.240000",
          "172625.243000",
          "172625.246000",
          "172625.248000",
          "172625.251000",
          "172625.254000",
          "172625.257000",
          "172625.260000",
          "172625.262000",
          "172625.265000",
          "172625.268000",
          "172645.215000",
          "172645.218000",
          "172645.221000",
          "172645.224000",
          "172645.226000",
          "172645.229000",
          "172645.232000",
          "172645.235000",
          "172645.238000",
          "172645.241000",
          "172645.243000",
          "172645.246000",
          "172645.249000",
          "172645.252000",
          "172645.255000",
          "172645.258000",
          "172645.260000",
          "172645.263000",
          "172645.266000",
          "172645.269000",
          "172725.216000",
          "172725.219000",
          "172725.222000",
          "172725.224000",
          "172725.227000",
          "172725.230000",
          "172725.233000",
          "172725.236000",
          "172725.238000",
          "172725.241000",
          "172725.244000",
          "172725.247000",
          "172725.250000",
          "172725.252000",
          "172725.255000",
          "172725.258000",
          "172725.261000",
          "172725.264000",
          "172725.266000",
          "172725.269000",
          "172725.277000",
          "172725.280000",
          "172725.283000",
          "172725.286000",
          "172725.289000",
          "172725.299000",
          "172725.302000",
          "172725.305000",
          "172725.308000",
          "172725.311000",
          "172725.314000",
          "172805.215000",
          "172805.218000",
          "172805.221000",
          "172805.223000",
          "172805.226000",
          "172805.229000",
          "172805.232000",
          "172805.235000",
          "172805.238000",
          "172805.240000",
          "172805.243000",
          "172805.246000",
          "172805.249000",
          "172805.252000",
          "172805.255000",
          "172805.257000",
          "172805.260000",
          "172805.263000",
          "172805.266000",
          "172805.269000",
          "172805.272000",
          "172805.274000",
          "172805.277000",
          "172805.280000",
          "172805.283000",
          "172805.285000",
          "172805.288000",
          "172845.215000",
          "172845.218000",
          "172845.221000",
          "172845.223000",
          "172845.226000",
          "172845.229000",
          "172845.232000",
          "172845.235000",
          "172845.238000",
          "172845.240000",
          "172845.243000",
          "172845.246000",
          "172845.249000",
          "172845.252000",
          "172845.255000",
          "172845.257000",
          "172845.260000",
          "172845.263000",
          "172845.266000",
          "172845.269000",
          "172845.271000",
          "172845.274000",
          "172845.277000",
          "172845.280000",
          "172845.283000",
          "172845.286000",
          "172845.289000",
          "172925.215000",
          "172925.218000",
          "172925.221000",
          "172925.223000",
          "172925.226000",
          "172925.229000",
          "172925.232000",
          "172925.235000",
          "172925.237000",
          "172925.240000",
          "172925.243000",
          "172925.246000",
          "172925.249000",
          "172925.256000",
          "172925.259000",
          "172925.262000",
          "172925.265000",
          "172925.267000",
          "172925.270000",
          "172925.273000",
          "172925.276000",
          "172925.279000",
          "172925.282000",
          "172925.284000",
          "172925.287000",
          "172925.290000",
          "172925.293000",
          "173005.215000",
          "173005.218000",
          "173005.221000",
          "173005.224000",
          "173005.227000",
          "173005.229000",
          "173005.232000",
          "173005.235000",
          "173005.238000",
          "173005.241000",
          "173005.244000",
          "173005.247000",
          "173005.249000",
          "173005.252000",
          "173005.255000",
          "173005.258000",
          "173005.261000",
          "173005.264000",
