{
  "aor": 0.0003490617283950617,
  "aqi": 0.006127304814814814,
  "bids_meta": {
    "AcquisitionMatrixPE": 104,
    "AcquisitionNumber": 1,
    "AcquisitionTime": "18:09:0.222500",
    "BandwidthPerPixelPhaseEncode": 17.17,
    "BaseResolution": 104,
    "BodyPartExamined": "BRAIN",
    "CogAtlasID": "trm_4c898da401420",
    "ConsistencyInfo": "N4_VE11C_LATEST_20160120",
    "ConversionSoftware": "dcm2niix",
    "ConversionSoftwareVersion": "v1.0.20171215 (OpenJPEG build) GCC7.3.0",
    "DerivedVendorReportedEchoSpacing": 0.000560011,
    "DeviceSerialNumber": "167006",
    "DwellTime": 2.1e-06,
    "EchoTime": 0.037,
    "EchoTrainLength": 104,
    "EffectiveEchoSpacing": 0.000560011,
    "FlipAngle": 52,
    "ImageComments": "Unaliased_MB4_PE3_LB",
    "ImageOrientationPatientDICOM": [
      0.997489,
      0.056385,
      0.0428609,
      -0.0426792,
      0.961468,
      -0.271584
    ],
    "ImageType": [
      "ORIGINAL",
      "PRIMARY",
      "M",
      "MB",
      "ND",
      "MOSAIC"
    ],
    "InPlanePhaseEncodingDirectionDICOM": "COL",
    "InstitutionAddress": "Chemin_Queen-Mary_4565_Montreal_District_CA_H3W_1W5",
    "InstitutionName": "IUGM",
    "InstitutionalDepartmentName": "Department",
    "MRAcquisitionType": "2D",
    "MagneticFieldStrength": 3,
    "Manufacturer": "Siemens",
    "ManufacturersModelName": "Prisma_fit",
    "Modality": "MR",
    "MultibandAccelerationFactor": 4,
    "PartialFourier": 1,
    "PatientPosition": "HFS",
    "PercentPhaseFOV": 100,
    "PhaseEncodingDirection": "j-",
    "PhaseEncodingSteps": 104,
    "PhaseResolution": 1,
    "PixelBandwidth": 2290,
    "ProcedureStepDescription": "video5_generic",
    "ProtocolName": "func_task-bourne4",
    "PulseSequenceDetails": "%CustomerSeq%_cmrr_mbep2d_bold",
    "ReceiveCoilActiveElements": "HC1-7;NC1,2",
    "ReceiveCoilName": "HeadNeck_64",
    "ReconMatrixPE": 104,
    "RepetitionTime": 1.49,
    "SAR": 0.0390121,
    "ScanOptions": "FS",
    "ScanningSequence": "EP",
    "SequenceName": "epfid2d1_104",
    "SequenceVariant": "SK_SS",
    "SeriesDescription": "func_task-bourne4",
    "SeriesNumber": 20,
    "ShimSetting": [
      632,
      -7193,
      -8845,
      680,
      110,
      60,
      -34,
      -14
    ],
    "SliceThickness": 2,
    "SliceTiming": [
      0,
      0.7825,
      0.0975,
      0.88,
      0.195,
      0.98,
      0.2925,
      1.0775,
      0.39,
      1.175,
      0.49,
      1.2725,
      0.5875,
      1.37,
      0.685,
      0,
      0.7825,
      0.0975,
      0.88,
      0.195,
      0.98,
      0.2925,
      1.0775,
      0.39,
      1.175,
      0.49,
      1.2725,
      0.5875,
      1.37,
      0.685,
      0,
      0.7825,
      0.0975,
      0.88,
      0.195,
      0.98,
      0.2925,
      1.0775,
      0.39,
      1.175,
      0.49,
      1.2725,
      0.5875,
      1.37,
      0.685,
      0,
      0.7825,
      0.0975,
      0.88,
      0.195,
      0.98,
      0.2925,
      1.0775,
      0.39,
      1.175,
      0.49,
      1.2725,
      0.5875,
      1.37,
      0.685
    ],
    "SoftwareVersions": "syngo_MR_E11",
    "SpacingBetweenSlices": 2,
    "StationName": "MRC35049",
    "TaskName": "bourne04",
    "TotalReadoutTime": 0.0576811,
    "TxRefAmp": 251.017,
    "dataset": "<unset>",
    "dcmmeta_affine": [
      [
        -1.994977355003357,
        -0.08535848557949066,
        0.11304523050785065,
        108.31427001953125
      ],
      [
        -0.11277005076408386,
        1.9229358434677124,
        -0.5381457805633545,
        -56.57414627075195
      ],
      [
        0.0857217088341713,
        0.5431683659553528,
        1.9229196310043335,
        -65.4446029663086
      ],
      [
        0.0,
        0.0,
        0.0,
        1.0
      ]
    ],
    "dcmmeta_reorient_transform": [
      [
        0.0,
        -1.0,
        0.0,
        103.0
      ],
      [
        1.0,
        0.0,
        0.0,
        0.0
      ],
      [
        0.0,
        0.0,
        1.0,
        0.0
      ],
      [
        0.0,
        0.0,
        0.0,
        1.0
      ]
    ],
    "dcmmeta_shape": [
      104,
      104,
      60,
      405
    ],
    "dcmmeta_slice_dim": 2,
    "dcmmeta_version": 0.6,
    "global": {
      "const": {
        "AcquisitionMatrix": [
          104,
          0,
          0,
          104
        ],
        "AngioFlag": "N",
        "BitsAllocated": 16,
        "BitsStored": 16,
        "BodyPartExamined": "BRAIN",
        "Columns": 832,
        "EchoNumbers": 1,
        "EchoTime": 37.0,
        "EchoTrainLength": 104,
        "FlipAngle": 52.0,
        "HighBit": 15,
        "ImageOrientationPatient": [
          0.99748868466055,
          0.05638502640534,
          0.04286085360134,
          -0.0426792435738,
          0.96146789424225,
          -0.2715841867807
        ],
        "ImagePositionPatient": [
          -794.62361891475,
          -882.48516455521,
          157.01232507657
        ],
        "ImageType": [
          "ORIGINAL",
          "PRIMARY",
          "M",
          "MB",
          "ND",
          "MOSAIC"
        ],
        "ImagedNucleus": "1H",
        "ImagingFrequency": 123.259484,
        "InPlanePhaseEncodingDirection": "COL",
        "MRAcquisitionType": "2D",
        "MagneticFieldStrength": 3.0,
        "Manufacturer": "SIEMENS",
        "ManufacturerModelName": "Prisma_fit",
        "Modality": "MR",
        "NumberOfAverages": 1.0,
        "NumberOfPhaseEncodingSteps": 104,
        "PercentPhaseFieldOfView": 100.0,
        "PercentSampling": 100.0,
        "PerformedProcedureStepStartTime": "170854.303000",
        "PhotometricInterpretation": "MONOCHROME2",
        "PixelBandwidth": 2290.0,
        "PixelRepresentation": 0,
        "PixelSpacing": [
          2.0,
          2.0
        ],
        "ProtocolName": "func_task-bourne4",
        "RepetitionTime": 1490.0,
        "Rows": 832,
        "SAR": 0.03901214249096,
        "SamplesPerPixel": 1,
        "ScanOptions": "FS",
        "ScanningSequence": "EP",
        "SequenceName": "epfid2d1_104",
        "SequenceVariant": [
          "SK",
          "SS"
        ],
        "SeriesDescription": "func_task-bourne4",
        "SeriesNumber": 20,
        "SeriesTime": "181033.402000",
        "SliceLocation": -41.577581772017,
        "SliceThickness": 2.0,
        "SmallestImagePixelValue": 0,
        "SoftwareVersions": "syngo MR E11",
        "SpacingBetweenSlices": 2.0000000074168,
        "SpecificCharacterSet": "ISO_IR 100",
        "StudyID": "1",
        "StudyTime": "170854.237000",
        "TransmitCoilName": "Body",
        "VariableFlipAngleFlag": "N",
        "WindowCenterWidthExplanation": "Algo1",
        "dBdt": 0.0
      },
      "slices": {}
    },
    "modality": "bold",
    "session_id": "001",
    "subject_id": "01",
    "task_id": "bourne04",
    "time": {
      "samples": {
        "AcquisitionNumber": [
          1,
          2,
          3,
          4,
          5,
          6,
          7,
          8,
          9,
          10,
          11,
          12,
          13,
          14,
          15,
          16,
          17,
          18,
          19,
          20,
          21,
          22,
          23,
          24,
          25,
          26,
          27,
          28,
          29,
          30,
          31,
          32,
          33,
          34,
          35,
          36,
          37,
          38,
          39,
          40,
          41,
          42,
          43,
          44,
          45,
          46,
          47,
          48,
          49,
          50,
          51,
          52,
          53,
          54,
          55,
          56,
          57,
          58,
          59,
          60,
          61,
          62,
          63,
          64,
          65,
          66,
          67,
          68,
          69,
          70,
          71,
          72,
          73,
          74,
          75,
          76,
          77,
          78,
          79,
          80,
          81,
          82,
          83,
          84,
          85,
          86,
          87,
          88,
          89,
          90,
          91,
          92,
          93,
          94,
          95,
          96,
          97,
          98,
          99,
          100,
          101,
          102,
          103,
          104,
          105,
          106,
          107,
          108,
          109,
          110,
          111,
          112,
          113,
          114,
          115,
          116,
          117,
          118,
          119,
          120,
          121,
          122,
          123,
          124,
          125,
          126,
          127,
          128,
          129,
          130,
          131,
          132,
          133,
          134,
          135,
          136,
          137,
          138,
          139,
          140,
          141,
          142,
          143,
          144,
          145,
          146,
          147,
          148,
          149,
          150,
          151,
          152,
          153,
          154,
          155,
          156,
          157,
          158,
          159,
          160,
          161,
          162,
          163,
          164,
          165,
          166,
          167,
          168,
          169,
          170,
          171,
          172,
          173,
          174,
          175,
          176,
          177,
          178,
          179,
          180,
          181,
          182,
          183,
          184,
          185,
          186,
          187,
          188,
          189,
          190,
          191,
          192,
          193,
          194,
          195,
          196,
          197,
          198,
          199,
          200,
          201,
          202,
          203,
          204,
          205,
          206,
          207,
          208,
          209,
          210,
          211,
          212,
          213,
          214,
          215,
          216,
          217,
          218,
          219,
          220,
          221,
          222,
          223,
          224,
          225,
          226,
          227,
          228,
          229,
          230,
          231,
          232,
          233,
          234,
          235,
          236,
          237,
          238,
          239,
          240,
          241,
          242,
          243,
          244,
          245,
          246,
          247,
          248,
          249,
          250,
          251,
          252,
          253,
          254,
          255,
          256,
          257,
          258,
          259,
          260,
          261,
          262,
          263,
          264,
          265,
          266,
          267,
          268,
          269,
          270,
          271,
          272,
          273,
          274,
          275,
          276,
          277,
          278,
          279,
          280,
          281,
          282,
          283,
          284,
          285,
          286,
          287,
          288,
          289,
          290,
          291,
          292,
          293,
          294,
          295,
          296,
          297,
          298,
          299,
          300,
          301,
          302,
          303,
          304,
          305,
          306,
          307,
          308,
          309,
          310,
          311,
          312,
          313,
          314,
          315,
          316,
          317,
          318,
          319,
          320,
          321,
          322,
          323,
          324,
          325,
          326,
          327,
          328,
          329,
          330,
          331,
          332,
          333,
          334,
          335,
          336,
          337,
          338,
          339,
          340,
          341,
          342,
          343,
          344,
          345,
          346,
          347,
          348,
          349,
          350,
          351,
          352,
          353,
          354,
          355,
          356,
          357,
          358,
          359,
          360,
          361,
          362,
          363,
          364,
          365,
          366,
          367,
          368,
          369,
          370,
          371,
          372,
          373,
          374,
          375,
          376,
          377,
          378,
          379,
          380,
          381,
          382,
          383,
          384,
          385,
          386,
          387,
          388,
          389,
          390,
          391,
          392,
          393,
          394,
          395,
          396,
          397,
          398,
          399,
          400,
          401,
          402,
          403,
          404,
          405
        ],
        "AcquisitionTime": [
          "180900.222500",
          "180901.712500",
          "180903.202500",
          "180904.692500",
          "180906.182500",
          "180907.672500",
          "180909.162500",
          "180910.652500",
          "180912.142500",
          "180913.632500",
          "180915.122500",
          "180916.612500",
          "180918.102500",
          "180919.592500",
          "180921.082500",
          "180922.572500",
          "180924.062500",
          "180925.552500",
          "180927.042500",
          "180928.532500",
          "180930.022500",
          "180931.512500",
          "180933.002500",
          "180934.492500",
          "180935.982500",
          "180937.472500",
          "180938.962500",
          "180940.452500",
          "180941.942500",
          "180943.432500",
          "180944.922500",
          "180946.412500",
          "180947.902500",
          "180949.392500",
          "180950.882500",
          "180952.372500",
          "180953.862500",
          "180955.352500",
          "180956.842500",
          "180958.332500",
          "180959.822500",
          "181001.312500",
          "181002.802500",
          "181004.292500",
          "181005.782500",
          "181007.272500",
          "181008.762500",
          "181010.252500",
          "181011.742500",
          "181013.232500",
          "181014.722500",
          "181016.212500",
          "181017.702500",
          "181019.192500",
          "181020.682500",
          "181022.172500",
          "181023.662500",
          "181025.152500",
          "181026.642500",
          "181028.132500",
          "181029.622500",
          "181031.112500",
          "181032.602500",
          "181034.092500",
          "181035.582500",
          "181037.072500",
          "181038.562500",
          "181040.052500",
          "181041.542500",
          "181043.032500",
          "181044.522500",
          "181046.012500",
          "181047.502500",
          "181048.992500",
          "181050.482500",
          "181051.972500",
          "181053.462500",
          "181054.952500",
          "181056.442500",
          "181057.932500",
          "181059.422500",
          "181100.912500",
          "181102.402500",
          "181103.892500",
          "181105.382500",
          "181106.872500",
          "181108.362500",
          "181109.852500",
          "181111.342500",
          "181112.832500",
          "181114.322500",
          "181115.812500",
          "181117.302500",
          "181118.792500",
          "181120.282500",
          "181121.772500",
          "181123.262500",
          "181124.752500",
          "181126.242500",
          "181127.732500",
          "181129.222500",
          "181130.712500",
          "181132.202500",
          "181133.692500",
          "181135.182500",
          "181136.672500",
          "181138.162500",
          "181139.652500",
          "181141.142500",
          "181142.632500",
          "181144.122500",
          "181145.612500",
          "181147.102500",
          "181148.592500",
          "181150.082500",
          "181151.572500",
          "181153.062500",
          "181154.552500",
          "181156.042500",
          "181157.532500",
          "181159.022500",
          "181200.512500",
          "181202.002500",
          "181203.492500",
          "181204.982500",
          "181206.472500",
          "181207.962500",
          "181209.452500",
          "181210.942500",
          "181212.432500",
          "181213.922500",
          "181215.412500",
          "181216.902500",
          "181218.392500",
          "181219.882500",
          "181221.372500",
          "181222.862500",
          "181224.352500",
          "181225.842500",
          "181227.332500",
          "181228.822500",
          "181230.312500",
          "181231.802500",
          "181233.292500",
          "181234.782500",
          "181236.272500",
          "181237.762500",
          "181239.252500",
          "181240.742500",
          "181242.232500",
          "181243.722500",
          "181245.212500",
          "181246.702500",
          "181248.192500",
          "181249.682500",
          "181251.172500",
          "181252.662500",
          "181254.152500",
          "181255.642500",
          "181257.132500",
          "181258.622500",
          "181300.112500",
          "181301.602500",
          "181303.092500",
          "181304.582500",
          "181306.072500",
          "181307.562500",
          "181309.052500",
          "181310.542500",
          "181312.032500",
          "181313.522500",
          "181315.012500",
          "181316.502500",
          "181317.992500",
          "181319.482500",
          "181320.972500",
          "181322.462500",
          "181323.952500",
          "181325.442500",
          "181326.932500",
          "181328.422500",
          "181329.912500",
          "181331.402500",
          "181332.892500",
          "181334.382500",
          "181335.872500",
          "181337.362500",
          "181338.852500",
          "181340.342500",
          "181341.832500",
          "181343.322500",
          "181344.812500",
          "181346.302500",
          "181347.792500",
          "181349.282500",
          "181350.772500",
          "181352.262500",
          "181353.752500",
          "181355.242500",
          "181356.732500",
          "181358.222500",
          "181359.712500",
          "181401.202500",
          "181402.692500",
          "181404.182500",
          "181405.672500",
          "181407.162500",
          "181408.652500",
          "181410.142500",
          "181411.632500",
          "181413.122500",
          "181414.612500",
          "181416.102500",
          "181417.592500",
          "181419.082500",
          "181420.572500",
          "181422.062500",
          "181423.552500",
          "181425.042500",
          "181426.532500",
          "181428.022500",
          "181429.512500",
          "181431.002500",
          "181432.492500",
          "181433.982500",
          "181435.472500",
          "181436.962500",
          "181438.452500",
          "181439.942500",
          "181441.432500",
          "181442.922500",
          "181444.412500",
          "181445.902500",
          "181447.392500",
          "181448.882500",
          "181450.372500",
          "181451.862500",
          "181453.352500",
          "181454.842500",
          "181456.332500",
          "181457.822500",
          "181459.312500",
          "181500.802500",
          "181502.292500",
          "181503.782500",
          "181505.272500",
          "181506.762500",
          "181508.252500",
          "181509.742500",
          "181511.232500",
          "181512.722500",
          "181514.212500",
          "181515.702500",
          "181517.192500",
          "181518.682500",
          "181520.172500",
          "181521.662500",
          "181523.152500",
          "181524.642500",
          "181526.132500",
          "181527.622500",
          "181529.112500",
          "181530.602500",
          "181532.092500",
          "181533.582500",
          "181535.072500",
          "181536.562500",
          "181538.052500",
          "181539.542500",
          "181541.032500",
          "181542.522500",
          "181544.012500",
          "181545.502500",
          "181546.992500",
          "181548.482500",
          "181549.972500",
          "181551.462500",
          "181552.952500",
          "181554.442500",
          "181555.932500",
          "181557.422500",
          "181558.912500",
          "181600.402500",
          "181601.892500",
          "181603.382500",
          "181604.872500",
          "181606.362500",
          "181607.852500",
          "181609.342500",
          "181610.832500",
          "181612.322500",
          "181613.812500",
          "181615.302500",
          "181616.792500",
          "181618.282500",
          "181619.772500",
          "181621.262500",
          "181622.752500",
          "181624.242500",
          "181625.732500",
          "181627.222500",
          "181628.712500",
          "181630.202500",
          "181631.692500",
          "181633.182500",
          "181634.672500",
          "181636.162500",
          "181637.652500",
          "181639.142500",
          "181640.632500",
          "181642.122500",
          "181643.612500",
          "181645.102500",
          "181646.592500",
          "181648.082500",
          "181649.572500",
          "181651.062500",
          "181652.552500",
          "181654.042500",
          "181655.532500",
          "181657.022500",
          "181658.512500",
          "181700.002500",
          "181701.492500",
          "181702.982500",
          "181704.472500",
          "181705.962500",
          "181707.452500",
          "181708.942500",
          "181710.432500",
          "181711.922500",
          "181713.412500",
          "181714.902500",
          "181716.392500",
          "181717.882500",
          "181719.372500",
          "181720.862500",
          "181722.352500",
          "181723.842500",
          "181725.332500",
          "181726.822500",
          "181728.312500",
          "181729.802500",
          "181731.292500",
          "181732.782500",
          "181734.272500",
          "181735.762500",
          "181737.252500",
          "181738.742500",
          "181740.232500",
          "181741.722500",
          "181743.212500",
          "181744.702500",
          "181746.192500",
          "181747.682500",
          "181749.172500",
          "181750.662500",
          "181752.152500",
          "181753.642500",
          "181755.132500",
          "181756.622500",
          "181758.112500",
          "181759.602500",
          "181801.092500",
          "181802.582500",
          "181804.072500",
          "181805.562500",
          "181807.052500",
          "181808.542500",
          "181810.032500",
          "181811.522500",
          "181813.012500",
          "181814.502500",
          "181815.992500",
          "181817.482500",
          "181818.972500",
          "181820.462500",
          "181821.952500",
          "181823.442500",
          "181824.932500",
          "181826.422500",
          "181827.912500",
          "181829.402500",
          "181830.892500",
          "181832.382500",
          "181833.872500",
          "181835.362500",
          "181836.852500",
          "181838.342500",
          "181839.832500",
          "181841.322500",
          "181842.812500",
          "181844.302500",
          "181845.792500",
          "181847.282500",
          "181848.772500",
          "181850.262500",
          "181851.752500",
          "181853.242500",
          "181854.732500",
          "181856.222500",
          "181857.712500",
          "181859.202500",
          "181900.692500",
          "181902.182500"
        ],
        "ContentTime": [
          "181033.405000",
          "181033.408000",
          "181033.411000",
          "181033.414000",
          "181033.420000",
          "181033.423000",
          "181033.426000",
          "181033.428000",
          "181033.431000",
          "181033.434000",
          "181033.437000",
          "181033.440000",
          "181033.443000",
          "181033.446000",
          "181033.449000",
          "181033.451000",
          "181033.454000",
          "181033.457000",
          "181033.460000",
          "181033.463000",
          "181033.466000",
          "181033.469000",
          "181033.472000",
          "181033.483000",
          "181033.485000",
          "181033.488000",
          "181033.491000",
          "181033.494000",
          "181033.497000",
          "181033.500000",
          "181033.502000",
          "181033.505000",
          "181033.508000",
          "181033.511000",
          "181033.513000",
          "181033.516000",
          "181033.519000",
          "181033.522000",
          "181053.374000",
          "181053.377000",
          "181053.380000",
          "181053.383000",
          "181053.385000",
          "181053.388000",
          "181053.397000",
          "181053.400000",
          "181053.402000",
          "181053.405000",
          "181053.408000",
          "181053.413000",
          "181053.416000",
          "181053.419000",
          "181053.422000",
          "181053.425000",
          "181053.428000",
          "181053.430000",
          "181053.433000",
          "181053.436000",
          "181113.373000",
          "181113.376000",
          "181113.379000",
          "181113.381000",
          "181113.384000",
          "181113.387000",
          "181113.390000",
          "181113.393000",
          "181113.396000",
          "181113.399000",
          "181113.402000",
          "181113.405000",
          "181113.407000",
          "181113.410000",
          "181113.413000",
          "181113.416000",
          "181113.419000",
          "181113.422000",
          "181113.425000",
          "181113.428000",
          "181133.373000",
          "181133.376000",
          "181133.379000",
          "181133.382000",
          "181133.390000",
          "181133.393000",
          "181133.396000",
          "181133.398000",
          "181133.401000",
          "181133.404000",
          "181133.407000",
          "181133.410000",
          "181133.413000",
          "181133.415000",
          "181133.418000",
          "181133.421000",
          "181133.424000",
          "181133.427000",
          "181133.429000",
          "181133.432000",
          "181213.373000",
          "181213.376000",
          "181213.379000",
          "181213.382000",
          "181213.385000",
          "181213.387000",
          "181213.390000",
          "181213.393000",
          "181213.396000",
          "181213.399000",
          "181213.401000",
          "181213.404000",
          "181213.407000",
          "181213.410000",
          "181213.413000",
          "181213.416000",
          "181213.418000",
          "181213.421000",
          "181213.424000",
          "181213.431000",
          "181213.434000",
          "181213.437000",
          "181213.440000",
          "181213.443000",
          "181213.445000",
          "181213.448000",
          "181213.451000",
          "181213.454000",
          "181213.457000",
          "181213.459000",
          "181213.462000",
          "181253.374000",
          "181253.377000",
          "181253.380000",
          "181253.383000",
          "181253.385000",
          "181253.388000",
          "181253.391000",
          "181253.394000",
          "181253.397000",
          "181253.400000",
          "181253.402000",
          "181253.405000",
          "181253.408000",
          "181253.411000",
          "181253.414000",
          "181253.417000",
          "181253.419000",
          "181253.422000",
          "181253.425000",
          "181253.428000",
          "181253.431000",
          "181253.434000",
          "181253.436000",
          "181253.439000",
          "181253.442000",
          "181253.445000",
          "181253.448000",
          "181333.373000",
          "181333.376000",
          "181333.379000",
          "181333.382000",
          "181333.384000",
          "181333.387000",
          "181333.390000",
          "181333.393000",
          "181333.396000",
          "181333.398000",
          "181333.403000",
          "181333.406000",
          "181333.409000",
          "181333.427000",
          "181333.429000",
          "181333.432000",
          "181333.435000",
          "181333.438000",
          "181333.441000",
          "181333.443000",
          "181333.446000",
          "181333.449000",
          "181333.452000",
          "181333.455000",
          "181333.465000",
          "181333.468000",
          "181413.373000",
          "181413.376000",
          "181413.379000",
          "181413.382000",
          "181413.384000",
          "181413.387000",
          "181413.390000",
          "181413.393000",
          "181413.395000",
          "181413.398000",
          "181413.401000",
          "181413.404000",
          "181413.407000",
          "181413.410000",
          "181413.412000",
          "181413.415000",
          "181413.418000",
          "181413.421000",
          "181413.424000",
          "181413.427000",
          "181413.429000",
          "181413.432000",
          "181413.435000",
          "181413.438000",
          "181413.441000",
          "181413.443000",
          "181413.446000",
          "181453.373000",
          "181453.376000",
          "181453.379000",
          "181453.381000",
          "181453.384000",
          "181453.387000",
          "181453.390000",
          "181453.393000",
          "181453.396000",
          "181453.398000",
          "181453.401000",
          "181453.404000",
          "181453.407000",
          "181453.410000",
          "181453.413000",
          "181453.415000",
          "181453.418000",
