{
  "aor": 0.0015096543209876542,
  "aqi": 0.005833125530864197,
  "bids_meta": {
    "AcquisitionMatrixPE": 104,
    "AcquisitionNumber": 1,
    "AcquisitionTime": "12:06:6.630000",
    "BandwidthPerPixelPhaseEncode": 17.17,
    "BaseResolution": 104,
    "BodyPartExamined": "BRAIN",
    "CogAtlasID": "trm_4c898da401420",
    "ConsistencyInfo": "N4_VE11C_LATEST_20160120",
    "ConversionSoftware": "dcm2niix",
    "ConversionSoftwareVersion": "v1.0.20171215 (OpenJPEG build) GCC7.3.0",
    "DerivedVendorReportedEchoSpacing": 0.000560011,
    "DeviceSerialNumber": "167006",
    "DwellTime": 2.1e-06,
    "EchoTime": 0.037,
    "EchoTrainLength": 104,
    "EffectiveEchoSpacing": 0.000560011,
    "FlipAngle": 52,
    "ImageComments": "Unaliased_MB4_PE3_LB",
    "ImageOrientationPatientDICOM": [
      0.996737,
      0.0436737,
      -0.0678813,
      -0.0552027,
      0.982387,
      -0.178519
    ],
    "ImageType": [
      "ORIGINAL",
      "PRIMARY",
      "M",
      "MB",
      "ND",
      "MOSAIC"
    ],
    "InPlanePhaseEncodingDirectionDICOM": "COL",
    "InstitutionAddress": "Chemin_Queen-Mary_4565_Montreal_District_CA_H3W_1W5",
    "InstitutionName": "IUGM",
    "InstitutionalDepartmentName": "Department",
    "MRAcquisitionType": "2D",
    "MagneticFieldStrength": 3,
    "Manufacturer": "Siemens",
    "ManufacturersModelName": "Prisma_fit",
    "Modality": "MR",
    "MultibandAccelerationFactor": 4,
    "PartialFourier": 1,
    "PatientPosition": "HFS",
    "PercentPhaseFOV": 100,
    "PhaseEncodingDirection": "j-",
    "PhaseEncodingSteps": 104,
    "PhaseResolution": 1,
    "PixelBandwidth": 2290,
    "ProcedureStepDescription": "video5_generic",
    "ProtocolName": "func_task-wolf11",
    "PulseSequenceDetails": "%CustomerSeq%_cmrr_mbep2d_bold",
    "ReceiveCoilActiveElements": "HC1-7;NC1,2",
    "ReceiveCoilName": "HeadNeck_64",
    "ReconMatrixPE": 104,
    "RepetitionTime": 1.49,
    "SAR": 0.0319274,
    "ScanOptions": "FS",
    "ScanningSequence": "EP",
    "SequenceName": "epfid2d1_104",
    "SequenceVariant": "SK_SS",
    "SeriesDescription": "func_task-wolf11",
    "SeriesNumber": 16,
    "ShimSetting": [
      607,
      -7219,
      -8892,
      590,
      -32,
      -248,
      1,
      44
    ],
    "SliceThickness": 2,
    "SliceTiming": [
      0,
      0.7825,
      0.0975,
      0.8825,
      0.195,
      0.98,
      0.2925,
      1.0775,
      0.3925,
      1.175,
      0.49,
      1.2725,
      0.5875,
      1.3725,
      0.685,
      0,
      0.7825,
      0.0975,
      0.8825,
      0.195,
      0.98,
      0.2925,
      1.0775,
      0.3925,
      1.175,
      0.49,
      1.2725,
      0.5875,
      1.3725,
      0.685,
      0,
      0.7825,
      0.0975,
      0.8825,
      0.195,
      0.98,
      0.2925,
      1.0775,
      0.3925,
      1.175,
      0.49,
      1.2725,
      0.5875,
      1.3725,
      0.685,
      0,
      0.7825,
      0.0975,
      0.8825,
      0.195,
      0.98,
      0.2925,
      1.0775,
      0.3925,
      1.175,
      0.49,
      1.2725,
      0.5875,
      1.3725,
      0.685
    ],
    "SoftwareVersions": "syngo_MR_E11",
    "SpacingBetweenSlices": 2,
    "StationName": "MRC35049",
    "TaskName": "wolf11",
    "TotalReadoutTime": 0.0576811,
    "TxRefAmp": 219.149,
    "dataset": "<unset>",
    "dcmmeta_affine": [
      [
        -1.9934741258621216,
        -0.11040543764829636,
        -0.11777826398611069,
        109.93209838867188
      ],
      [
        -0.08734743297100067,
        1.9647732973098755,
        -0.3633677363395691,
        -70.38414001464844
      ],
      [
        -0.13576267659664154,
        0.3570382595062256,
        1.963184118270874,
        -65.69282531738281
      ],
      [
        0.0,
        0.0,
        0.0,
        1.0
      ]
    ],
    "dcmmeta_reorient_transform": [
      [
        0.0,
        -1.0,
        0.0,
        103.0
      ],
      [
        1.0,
        0.0,
        0.0,
        0.0
      ],
      [
        0.0,
        0.0,
        1.0,
        0.0
      ],
      [
        0.0,
        0.0,
        0.0,
        1.0
      ]
    ],
    "dcmmeta_shape": [
      104,
      104,
      60,
      406
    ],
    "dcmmeta_slice_dim": 2,
    "dcmmeta_version": 0.6,
    "global": {
      "const": {
        "AcquisitionMatrix": [
          104,
          0,
          0,
          104
        ],
        "AngioFlag": "N",
        "BitsAllocated": 16,
        "BitsStored": 16,
        "BodyPartExamined": "BRAIN",
        "Columns": 832,
        "EchoNumbers": 1,
        "EchoTime": 37.0,
        "EchoTrainLength": 104,
        "FlipAngle": 52.0,
        "HighBit": 15,
        "ImageOrientationPatient": [
          0.99673704146365,
          0.04367371744339,
          -0.067881341906,
          -0.0552027205416,
          0.98238667480254,
          -0.1785191329108
        ],
        "ImagePositionPatient": [
          -783.99732097214,
          -878.9594794724,
          150.46166553711
        ],
        "ImageType": [
          "ORIGINAL",
          "PRIMARY",
          "M",
          "MB",
          "ND",
          "MOSAIC"
        ],
        "ImagedNucleus": "1H",
        "ImagingFrequency": 123.259306,
        "InPlanePhaseEncodingDirection": "COL",
        "MRAcquisitionType": "2D",
        "MagneticFieldStrength": 3.0,
        "Manufacturer": "SIEMENS",
        "ManufacturerModelName": "Prisma_fit",
        "Modality": "MR",
        "NumberOfAverages": 1.0,
        "NumberOfPhaseEncodingSteps": 104,
        "PercentPhaseFieldOfView": 100.0,
        "PercentSampling": 100.0,
        "PerformedProcedureStepStartTime": "113553.746000",
        "PhotometricInterpretation": "MONOCHROME2",
        "PixelBandwidth": 2290.0,
        "PixelRepresentation": 0,
        "PixelSpacing": [
          2.0,
          2.0
        ],
        "ProtocolName": "func_task-wolf11",
        "RepetitionTime": 1490.0,
        "Rows": 832,
        "SAR": 0.03192736667626,
        "SamplesPerPixel": 1,
        "ScanOptions": "FS",
        "ScanningSequence": "EP",
        "SequenceName": "epfid2d1_104",
        "SequenceVariant": [
          "SK",
          "SS"
        ],
        "SeriesDescription": "func_task-wolf11",
        "SeriesNumber": 16,
        "SeriesTime": "120703.354000",
        "SliceLocation": -58.169697061938,
        "SliceThickness": 2.0,
        "SmallestImagePixelValue": 0,
        "SoftwareVersions": "syngo MR E11",
        "SpacingBetweenSlices": 1.9999999719385,
        "SpecificCharacterSet": "ISO_IR 100",
        "StudyID": "1",
        "StudyTime": "113553.680000",
        "TransmitCoilName": "Body",
        "VariableFlipAngleFlag": "N",
        "WindowCenterWidthExplanation": "Algo1",
        "dBdt": 0.0
      },
      "slices": {}
    },
    "modality": "bold",
    "session_id": "003",
    "subject_id": "04",
    "task_id": "wolf11",
    "time": {
      "samples": {
        "AcquisitionNumber": [
          1,
          2,
          3,
          4,
          5,
          6,
          7,
          8,
          9,
          10,
          11,
          12,
          13,
          14,
          15,
          16,
          17,
          18,
          19,
          20,
          21,
          22,
          23,
          24,
          25,
          26,
          27,
          28,
          29,
          30,
          31,
          32,
          33,
          34,
          35,
          36,
          37,
          38,
          39,
          40,
          41,
          42,
          43,
          44,
          45,
          46,
          47,
          48,
          49,
          50,
          51,
          52,
          53,
          54,
          55,
          56,
          57,
          58,
          59,
          60,
          61,
          62,
          63,
          64,
          65,
          66,
          67,
          68,
          69,
          70,
          71,
          72,
          73,
          74,
          75,
          76,
          77,
          78,
          79,
          80,
          81,
          82,
          83,
          84,
          85,
          86,
          87,
          88,
          89,
          90,
          91,
          92,
          93,
          94,
          95,
          96,
          97,
          98,
          99,
          100,
          101,
          102,
          103,
          104,
          105,
          106,
          107,
          108,
          109,
          110,
          111,
          112,
          113,
          114,
          115,
          116,
          117,
          118,
          119,
          120,
          121,
          122,
          123,
          124,
          125,
          126,
          127,
          128,
          129,
          130,
          131,
          132,
          133,
          134,
          135,
          136,
          137,
          138,
          139,
          140,
          141,
          142,
          143,
          144,
          145,
          146,
          147,
          148,
          149,
          150,
          151,
          152,
          153,
          154,
          155,
          156,
          157,
          158,
          159,
          160,
          161,
          162,
          163,
          164,
          165,
          166,
          167,
          168,
          169,
          170,
          171,
          172,
          173,
          174,
          175,
          176,
          177,
          178,
          179,
          180,
          181,
          182,
          183,
          184,
          185,
          186,
          187,
          188,
          189,
          190,
          191,
          192,
          193,
          194,
          195,
          196,
          197,
          198,
          199,
          200,
          201,
          202,
          203,
          204,
          205,
          206,
          207,
          208,
          209,
          210,
          211,
          212,
          213,
          214,
          215,
          216,
          217,
          218,
          219,
          220,
          221,
          222,
          223,
          224,
          225,
          226,
          227,
          228,
          229,
          230,
          231,
          232,
          233,
          234,
          235,
          236,
          237,
          238,
          239,
          240,
          241,
          242,
          243,
          244,
          245,
          246,
          247,
          248,
          249,
          250,
          251,
          252,
          253,
          254,
          255,
          256,
          257,
          258,
          259,
          260,
          261,
          262,
          263,
          264,
          265,
          266,
          267,
          268,
          269,
          270,
          271,
          272,
          273,
          274,
          275,
          276,
          277,
          278,
          279,
          280,
          281,
          282,
          283,
          284,
          285,
          286,
          287,
          288,
          289,
          290,
          291,
          292,
          293,
          294,
          295,
          296,
          297,
          298,
          299,
          300,
          301,
          302,
          303,
          304,
          305,
          306,
          307,
          308,
          309,
          310,
          311,
          312,
          313,
          314,
          315,
          316,
          317,
          318,
          319,
          320,
          321,
          322,
          323,
          324,
          325,
          326,
          327,
          328,
          329,
          330,
          331,
          332,
          333,
          334,
          335,
          336,
          337,
          338,
          339,
          340,
          341,
          342,
          343,
          344,
          345,
          346,
          347,
          348,
          349,
          350,
          351,
          352,
          353,
          354,
          355,
          356,
          357,
          358,
          359,
          360,
          361,
          362,
          363,
          364,
          365,
          366,
          367,
          368,
          369,
          370,
          371,
          372,
          373,
          374,
          375,
          376,
          377,
          378,
          379,
          380,
          381,
          382,
          383,
          384,
          385,
          386,
          387,
          388,
          389,
          390,
          391,
          392,
          393,
          394,
          395,
          396,
          397,
          398,
          399,
          400,
          401,
          402,
          403,
          404,
          405,
          406
        ],
        "AcquisitionTime": [
          "120606.630000",
          "120608.120000",
          "120609.610000",
          "120611.100000",
          "120612.590000",
          "120614.080000",
          "120615.570000",
          "120617.060000",
          "120618.550000",
          "120620.040000",
          "120621.530000",
          "120623.020000",
          "120624.510000",
          "120626.000000",
          "120627.490000",
          "120628.980000",
          "120630.470000",
          "120631.960000",
          "120633.450000",
          "120634.940000",
          "120636.430000",
          "120637.920000",
          "120639.410000",
          "120640.900000",
          "120642.390000",
          "120643.880000",
          "120645.370000",
          "120646.860000",
          "120648.350000",
          "120649.840000",
          "120651.330000",
          "120652.820000",
          "120654.310000",
          "120655.800000",
          "120657.290000",
          "120658.780000",
          "120700.270000",
          "120701.760000",
          "120703.250000",
          "120704.740000",
          "120706.230000",
          "120707.720000",
          "120709.210000",
          "120710.700000",
          "120712.190000",
          "120713.680000",
          "120715.170000",
          "120716.660000",
          "120718.150000",
          "120719.640000",
          "120721.130000",
          "120722.620000",
          "120724.110000",
          "120725.600000",
          "120727.090000",
          "120728.580000",
          "120730.070000",
          "120731.560000",
          "120733.050000",
          "120734.540000",
          "120736.030000",
          "120737.520000",
          "120739.010000",
          "120740.500000",
          "120741.990000",
          "120743.480000",
          "120744.970000",
          "120746.460000",
          "120747.950000",
          "120749.440000",
          "120750.930000",
          "120752.420000",
          "120753.910000",
          "120755.400000",
          "120756.890000",
          "120758.380000",
          "120759.870000",
          "120801.360000",
          "120802.850000",
          "120804.340000",
          "120805.830000",
          "120807.320000",
          "120808.810000",
          "120810.300000",
          "120811.790000",
          "120813.280000",
          "120814.770000",
          "120816.260000",
          "120817.750000",
          "120819.240000",
          "120820.730000",
          "120822.220000",
          "120823.710000",
          "120825.200000",
          "120826.690000",
          "120828.180000",
          "120829.670000",
          "120831.160000",
          "120832.650000",
          "120834.140000",
          "120835.630000",
          "120837.120000",
          "120838.610000",
          "120840.100000",
          "120841.590000",
          "120843.080000",
          "120844.570000",
          "120846.060000",
          "120847.550000",
          "120849.040000",
          "120850.530000",
          "120852.020000",
          "120853.510000",
          "120855.000000",
          "120856.490000",
          "120857.980000",
          "120859.470000",
          "120900.960000",
          "120902.450000",
          "120903.940000",
          "120905.430000",
          "120906.920000",
          "120908.410000",
          "120909.900000",
          "120911.390000",
          "120912.880000",
          "120914.370000",
          "120915.860000",
          "120917.350000",
          "120918.840000",
          "120920.330000",
          "120921.820000",
          "120923.310000",
          "120924.800000",
          "120926.290000",
          "120927.780000",
          "120929.270000",
          "120930.760000",
          "120932.250000",
          "120933.740000",
          "120935.230000",
          "120936.720000",
          "120938.210000",
          "120939.700000",
          "120941.190000",
          "120942.680000",
          "120944.170000",
          "120945.660000",
          "120947.150000",
          "120948.640000",
          "120950.130000",
          "120951.620000",
          "120953.110000",
          "120954.600000",
          "120956.090000",
          "120957.580000",
          "120959.070000",
          "121000.560000",
          "121002.050000",
          "121003.540000",
          "121005.030000",
          "121006.520000",
          "121008.010000",
          "121009.500000",
          "121010.990000",
          "121012.480000",
          "121013.970000",
          "121015.460000",
          "121016.950000",
          "121018.440000",
          "121019.930000",
          "121021.420000",
          "121022.910000",
          "121024.400000",
          "121025.890000",
          "121027.380000",
          "121028.870000",
          "121030.360000",
          "121031.850000",
          "121033.340000",
          "121034.830000",
          "121036.320000",
          "121037.810000",
          "121039.300000",
          "121040.790000",
          "121042.280000",
          "121043.770000",
          "121045.260000",
          "121046.750000",
          "121048.240000",
          "121049.730000",
          "121051.220000",
          "121052.710000",
          "121054.200000",
          "121055.690000",
          "121057.180000",
          "121058.670000",
          "121100.160000",
          "121101.650000",
          "121103.140000",
          "121104.630000",
          "121106.120000",
          "121107.610000",
          "121109.100000",
          "121110.590000",
          "121112.080000",
          "121113.570000",
          "121115.060000",
          "121116.550000",
          "121118.040000",
          "121119.530000",
          "121121.020000",
          "121122.510000",
          "121124.000000",
          "121125.490000",
          "121126.980000",
          "121128.470000",
          "121129.960000",
          "121131.450000",
          "121132.940000",
          "121134.430000",
          "121135.920000",
          "121137.410000",
          "121138.900000",
          "121140.390000",
          "121141.880000",
          "121143.370000",
          "121144.860000",
          "121146.350000",
          "121147.840000",
          "121149.330000",
          "121150.820000",
          "121152.310000",
          "121153.800000",
          "121155.290000",
          "121156.780000",
          "121158.270000",
          "121159.760000",
          "121201.250000",
          "121202.740000",
          "121204.230000",
          "121205.720000",
          "121207.210000",
          "121208.700000",
          "121210.190000",
          "121211.680000",
          "121213.170000",
          "121214.660000",
          "121216.150000",
          "121217.640000",
          "121219.130000",
          "121220.620000",
          "121222.110000",
          "121223.600000",
          "121225.090000",
          "121226.580000",
          "121228.070000",
          "121229.560000",
          "121231.050000",
          "121232.540000",
          "121234.030000",
          "121235.520000",
          "121237.010000",
          "121238.500000",
          "121239.990000",
          "121241.480000",
          "121242.970000",
          "121244.460000",
          "121245.950000",
          "121247.440000",
          "121248.930000",
          "121250.420000",
          "121251.910000",
          "121253.400000",
          "121254.890000",
          "121256.380000",
          "121257.870000",
          "121259.360000",
          "121300.850000",
          "121302.340000",
          "121303.830000",
          "121305.320000",
          "121306.810000",
          "121308.300000",
          "121309.790000",
          "121311.280000",
          "121312.770000",
          "121314.260000",
          "121315.750000",
          "121317.240000",
          "121318.730000",
          "121320.220000",
          "121321.710000",
          "121323.200000",
          "121324.690000",
          "121326.180000",
          "121327.670000",
          "121329.160000",
          "121330.650000",
          "121332.140000",
          "121333.630000",
          "121335.120000",
          "121336.610000",
          "121338.100000",
          "121339.590000",
          "121341.080000",
          "121342.570000",
          "121344.060000",
          "121345.550000",
          "121347.040000",
          "121348.530000",
          "121350.020000",
          "121351.510000",
          "121353.000000",
          "121354.490000",
          "121355.980000",
          "121357.470000",
          "121358.960000",
          "121400.450000",
          "121401.940000",
          "121403.430000",
          "121404.920000",
          "121406.410000",
          "121407.900000",
          "121409.390000",
          "121410.880000",
          "121412.370000",
          "121413.860000",
          "121415.350000",
          "121416.840000",
          "121418.330000",
          "121419.820000",
          "121421.310000",
          "121422.800000",
          "121424.290000",
          "121425.780000",
          "121427.270000",
          "121428.760000",
          "121430.250000",
          "121431.740000",
          "121433.230000",
          "121434.720000",
          "121436.210000",
          "121437.700000",
          "121439.190000",
          "121440.680000",
          "121442.170000",
          "121443.660000",
          "121445.150000",
          "121446.640000",
          "121448.130000",
          "121449.620000",
          "121451.110000",
          "121452.600000",
          "121454.090000",
          "121455.580000",
          "121457.070000",
          "121458.560000",
          "121500.050000",
          "121501.540000",
          "121503.030000",
          "121504.520000",
          "121506.010000",
          "121507.500000",
          "121508.990000",
          "121510.480000",
          "121511.970000",
          "121513.460000",
          "121514.950000",
          "121516.440000",
          "121517.930000",
          "121519.420000",
          "121520.910000",
          "121522.400000",
          "121523.890000",
          "121525.380000",
          "121526.870000",
          "121528.360000",
          "121529.850000",
          "121531.340000",
          "121532.830000",
          "121534.320000",
          "121535.810000",
          "121537.300000",
          "121538.790000",
          "121540.280000",
          "121541.770000",
          "121543.260000",
          "121544.750000",
          "121546.240000",
          "121547.730000",
          "121549.220000",
          "121550.710000",
          "121552.200000",
          "121553.690000",
          "121555.180000",
          "121556.670000",
          "121558.160000",
          "121559.650000",
          "121601.140000",
          "121602.630000",
          "121604.120000",
          "121605.610000",
          "121607.100000",
          "121608.590000",
          "121610.080000"
        ],
        "ContentTime": [
          "120703.356000",
          "120703.360000",
          "120703.363000",
          "120723.316000",
          "120723.319000",
          "120723.322000",
          "120723.325000",
          "120723.328000",
          "120723.330000",
          "120723.333000",
          "120723.336000",
          "120723.339000",
          "120723.342000",
          "120723.345000",
          "120723.351000",
          "120723.354000",
          "120723.357000",
          "120723.360000",
          "120723.363000",
          "120723.366000",
          "120723.369000",
          "120723.371000",
          "120723.374000",
          "120723.377000",
          "120743.316000",
          "120743.319000",
          "120743.322000",
          "120743.325000",
          "120743.327000",
          "120743.330000",
          "120743.333000",
          "120743.336000",
          "120743.339000",
          "120743.342000",
          "120743.345000",
          "120743.347000",
          "120743.350000",
          "120743.353000",
          "120743.356000",
          "120743.359000",
          "120743.362000",
          "120743.365000",
          "120743.376000",
          "120743.379000",
          "120803.316000",
          "120803.319000",
          "120803.322000",
          "120803.325000",
          "120803.327000",
          "120803.330000",
          "120803.333000",
          "120803.336000",
          "120803.339000",
          "120803.342000",
          "120803.352000",
          "120803.355000",
          "120803.358000",
          "120803.361000",
          "120803.364000",
          "120803.367000",
          "120803.370000",
          "120803.372000",
          "120803.375000",
          "120803.378000",
          "120823.316000",
          "120823.327000",
          "120823.330000",
          "120823.333000",
          "120823.336000",
          "120823.339000",
          "120823.342000",
          "120823.345000",
          "120823.348000",
          "120823.351000",
          "120823.354000",
          "120823.357000",
          "120823.360000",
          "120823.363000",
          "120823.366000",
          "120823.369000",
          "120823.372000",
          "120823.374000",
          "120823.377000",
          "120823.380000",
          "120843.316000",
          "120843.319000",
          "120843.322000",
          "120843.325000",
          "120843.328000",
          "120843.331000",
          "120843.334000",
          "120843.337000",
          "120843.339000",
          "120843.342000",
          "120843.345000",
          "120843.348000",
          "120843.351000",
          "120843.354000",
          "120843.357000",
          "120843.360000",
          "120843.363000",
          "120843.366000",
          "120843.369000",
          "120843.373000",
          "120923.315000",
          "120923.318000",
          "120923.337000",
          "120923.340000",
          "120923.343000",
          "120923.354000",
          "120923.357000",
          "120923.360000",
          "120923.363000",
          "120923.366000",
          "120923.378000",
          "120923.382000",
          "120923.390000",
          "120923.400000",
          "120923.412000",
          "120923.415000",
          "120923.423000",
          "120923.426000",
          "120923.429000",
          "120923.439000",
          "120923.442000",
          "120923.445000",
          "120923.448000",
          "120923.451000",
          "120923.454000",
          "120923.457000",
          "120923.460000",
          "121003.316000",
          "121003.319000",
          "121003.322000",
          "121003.325000",
          "121003.328000",
          "121003.331000",
          "121003.335000",
          "121003.338000",
          "121003.340000",
          "121003.343000",
          "121003.346000",
          "121003.349000",
          "121003.352000",
          "121003.355000",
          "121003.358000",
          "121003.361000",
          "121003.364000",
          "121003.367000",
          "121003.370000",
          "121003.373000",
          "121003.376000",
          "121003.379000",
          "121003.382000",
          "121003.385000",
          "121003.388000",
          "121003.391000",
          "121003.394000",
          "121043.316000",
          "121043.319000",
          "121043.322000",
          "121043.325000",
          "121043.328000",
          "121043.331000",
          "121043.334000",
          "121043.337000",
          "121043.340000",
          "121043.343000",
          "121043.346000",
          "121043.349000",
          "121043.352000",
          "121043.355000",
          "121043.358000",
          "121043.361000",
          "121043.364000",
          "121043.367000",
          "121043.370000",
          "121043.373000",
          "121043.376000",
          "121043.378000",
          "121043.381000",
          "121043.384000",
          "121043.387000",
          "121043.390000",
          "121043.394000",
          "121123.315000",
          "121123.318000",
          "121123.321000",
          "121123.324000",
          "121123.327000",
          "121123.330000",
          "121123.333000",
          "121123.336000",
          "121123.339000",
          "121123.342000",
          "121123.353000",
          "121123.356000",
          "121123.359000",
          "121123.362000",
          "121123.365000",
          "121123.368000",
          "121123.371000",
          "121123.373000",
          "121123.377000",
          "121123.379000",
          "121123.382000",
          "121123.385000",
          "121123.388000",
          "121123.391000",
          "121123.394000",
          "121123.397000",
          "121123.400000",
          "121203.316000",
          "121203.319000",
          "121203.322000",
          "121203.325000",
          "121203.328000",
          "121203.331000",
          "121203.334000",
          "121203.337000",
          "121203.340000",
          "121203.343000",
          "121203.346000",
