{
  "aor": 0.00021878411910669976,
  "aqi": 0.00523522841191067,
  "bids_meta": {
    "AcquisitionMatrixPE": 104,
    "AcquisitionNumber": 1,
    "AcquisitionTime": "12:39:40.860000",
    "BandwidthPerPixelPhaseEncode": 17.17,
    "BaseResolution": 104,
    "BodyPartExamined": "BRAIN",
    "CogAtlasID": "trm_4c898da401420",
    "ConsistencyInfo": "N4_VE11C_LATEST_20160120",
    "ConversionSoftware": "dcm2niix",
    "ConversionSoftwareVersion": "v1.0.20171215 (OpenJPEG build) GCC7.3.0",
    "DerivedVendorReportedEchoSpacing": 0.000560011,
    "DeviceSerialNumber": "167006",
    "DwellTime": 2.1e-06,
    "EchoTime": 0.037,
    "EchoTrainLength": 104,
    "EffectiveEchoSpacing": 0.000560011,
    "FlipAngle": 52,
    "ImageComments": "Unaliased_MB4_PE3_LB",
    "ImageOrientationPatientDICOM": [
      0.995898,
      0.062325,
      -0.0655994,
      -0.0754063,
      0.972365,
      -0.220953
    ],
    "ImageType": [
      "ORIGINAL",
      "PRIMARY",
      "M",
      "MB",
      "ND",
      "MOSAIC"
    ],
    "InPlanePhaseEncodingDirectionDICOM": "COL",
    "InstitutionAddress": "Chemin_Queen-Mary_4565_Montreal_District_CA_H3W_1W5",
    "InstitutionName": "IUGM",
    "InstitutionalDepartmentName": "Department",
    "MRAcquisitionType": "2D",
    "MagneticFieldStrength": 3,
    "Manufacturer": "Siemens",
    "ManufacturersModelName": "Prisma_fit",
    "Modality": "MR",
    "MultibandAccelerationFactor": 4,
    "PartialFourier": 1,
    "PatientPosition": "HFS",
    "PercentPhaseFOV": 100,
    "PhaseEncodingDirection": "j-",
    "PhaseEncodingSteps": 104,
    "PhaseResolution": 1,
    "PixelBandwidth": 2290,
    "ProcedureStepDescription": "video5_generic",
    "ProtocolName": "func_task-wolf13",
    "PulseSequenceDetails": "%CustomerSeq%_cmrr_mbep2d_bold",
    "ReceiveCoilActiveElements": "HC1-7;NC1,2",
    "ReceiveCoilName": "HeadNeck_64",
    "ReconMatrixPE": 104,
    "RepetitionTime": 1.49,
    "SAR": 0.0339371,
    "ScanOptions": "FS",
    "ScanningSequence": "EP",
    "SequenceName": "epfid2d1_104",
    "SequenceVariant": "SK_SS",
    "SeriesDescription": "func_task-wolf13",
    "SeriesNumber": 27,
    "ShimSetting": [
      608,
      -7213,
      -8906,
      570,
      -25,
      -223,
      -6,
      30
    ],
    "SliceThickness": 2,
    "SliceTiming": [
      0,
      0.7825,
      0.0975,
      0.88,
      0.195,
      0.98,
      0.2925,
      1.0775,
      0.39,
      1.175,
      0.49,
      1.2725,
      0.5875,
      1.37,
      0.685,
      0,
      0.7825,
      0.0975,
      0.88,
      0.195,
      0.98,
      0.2925,
      1.0775,
      0.39,
      1.175,
      0.49,
      1.2725,
      0.5875,
      1.37,
      0.685,
      0,
      0.7825,
      0.0975,
      0.88,
      0.195,
      0.98,
      0.2925,
      1.0775,
      0.39,
      1.175,
      0.49,
      1.2725,
      0.5875,
      1.37,
      0.685,
      0,
      0.7825,
      0.0975,
      0.88,
      0.195,
      0.98,
      0.2925,
      1.0775,
      0.39,
      1.175,
      0.49,
      1.2725,
      0.5875,
      1.37,
      0.685
    ],
    "SoftwareVersions": "syngo_MR_E11",
    "SpacingBetweenSlices": 2,
    "StationName": "MRC35049",
    "TaskName": "wolf13",
    "TotalReadoutTime": 0.0576811,
    "TxRefAmp": 222.607,
    "dataset": "<unset>",
    "dcmmeta_affine": [
      [
        -1.991795539855957,
        -0.15081267058849335,
        -0.10003144294023514,
        111.62803649902344
      ],
      [
        -0.12464994192123413,
        1.9447300434112549,
        -0.44998592138290405,
        -65.13790893554688
      ],
      [
        -0.13119886815547943,
        0.44190552830696106,
        1.946151614189148,
        -69.8478012084961
      ],
      [
        0.0,
        0.0,
        0.0,
        1.0
      ]
    ],
    "dcmmeta_reorient_transform": [
      [
        0.0,
        -1.0,
        0.0,
        103.0
      ],
      [
        1.0,
        0.0,
        0.0,
        0.0
      ],
      [
        0.0,
        0.0,
        1.0,
        0.0
      ],
      [
        0.0,
        0.0,
        0.0,
        1.0
      ]
    ],
    "dcmmeta_shape": [
      104,
      104,
      60,
      406
    ],
    "dcmmeta_slice_dim": 2,
    "dcmmeta_version": 0.6,
    "global": {
      "const": {
        "AcquisitionMatrix": [
          104,
          0,
          0,
          104
        ],
        "AngioFlag": "N",
        "BitsAllocated": 16,
        "BitsStored": 16,
        "BodyPartExamined": "BRAIN",
        "Columns": 832,
        "EchoNumbers": 1,
        "EchoTime": 37.0,
        "EchoTrainLength": 104,
        "FlipAngle": 52.0,
        "HighBit": 15,
        "ImageOrientationPatient": [
          0.99589774191376,
          0.0623249691992,
          -0.0655994349472,
          -0.0754063333007,
          0.97236503596622,
          -0.2209527590426
        ],
        "ImagePositionPatient": [
          -766.21207575716,
          -888.42360964248,
          184.27846412638
        ],
        "ImageType": [
          "ORIGINAL",
          "PRIMARY",
          "M",
          "MB",
          "ND",
          "MOSAIC"
        ],
        "ImagedNucleus": "1H",
        "ImagingFrequency": 123.259316,
        "InPlanePhaseEncodingDirection": "COL",
        "MRAcquisitionType": "2D",
        "MagneticFieldStrength": 3.0,
        "Manufacturer": "SIEMENS",
        "ManufacturerModelName": "Prisma_fit",
        "Modality": "MR",
        "NumberOfAverages": 1.0,
        "NumberOfPhaseEncodingSteps": 104,
        "PercentPhaseFieldOfView": 100.0,
        "PercentSampling": 100.0,
        "PerformedProcedureStepStartTime": "113553.746000",
        "PhotometricInterpretation": "MONOCHROME2",
        "PixelBandwidth": 2290.0,
        "PixelRepresentation": 0,
        "PixelSpacing": [
          2.0,
          2.0
        ],
        "ProtocolName": "func_task-wolf13",
        "RepetitionTime": 1490.0,
        "Rows": 832,
        "SAR": 0.03393714830859,
        "SamplesPerPixel": 1,
        "ScanOptions": "FS",
        "ScanningSequence": "EP",
        "SequenceName": "epfid2d1_104",
        "SequenceVariant": [
          "SK",
          "SS"
        ],
        "SeriesDescription": "func_task-wolf13",
        "SeriesNumber": 27,
        "SeriesTime": "124108.956000",
        "SliceLocation": -58.894793072067,
        "SliceThickness": 2.0,
        "SmallestImagePixelValue": 0,
        "SoftwareVersions": "syngo MR E11",
        "SpacingBetweenSlices": 1.9999999836932,
        "SpecificCharacterSet": "ISO_IR 100",
        "StudyID": "1",
        "StudyTime": "113553.680000",
        "TransmitCoilName": "Body",
        "VariableFlipAngleFlag": "N",
        "WindowCenterWidthExplanation": "Algo1",
        "dBdt": 0.0
      },
      "slices": {}
    },
    "modality": "bold",
    "session_id": "003",
    "subject_id": "04",
    "task_id": "wolf13",
    "time": {
      "samples": {
        "AcquisitionNumber": [
          1,
          2,
          3,
          4,
          5,
          6,
          7,
          8,
          9,
          10,
          11,
          12,
          13,
          14,
          15,
          16,
          17,
          18,
          19,
          20,
          21,
          22,
          23,
          24,
          25,
          26,
          27,
          28,
          29,
          30,
          31,
          32,
          33,
          34,
          35,
          36,
          37,
          38,
          39,
          40,
          41,
          42,
          43,
          44,
          45,
          46,
          47,
          48,
          49,
          50,
          51,
          52,
          53,
          54,
          55,
          56,
          57,
          58,
          59,
          60,
          61,
          62,
          63,
          64,
          65,
          66,
          67,
          68,
          69,
          70,
          71,
          72,
          73,
          74,
          75,
          76,
          77,
          78,
          79,
          80,
          81,
          82,
          83,
          84,
          85,
          86,
          87,
          88,
          89,
          90,
          91,
          92,
          93,
          94,
          95,
          96,
          97,
          98,
          99,
          100,
          101,
          102,
          103,
          104,
          105,
          106,
          107,
          108,
          109,
          110,
          111,
          112,
          113,
          114,
          115,
          116,
          117,
          118,
          119,
          120,
          121,
          122,
          123,
          124,
          125,
          126,
          127,
          128,
          129,
          130,
          131,
          132,
          133,
          134,
          135,
          136,
          137,
          138,
          139,
          140,
          141,
          142,
          143,
          144,
          145,
          146,
          147,
          148,
          149,
          150,
          151,
          152,
          153,
          154,
          155,
          156,
          157,
          158,
          159,
          160,
          161,
          162,
          163,
          164,
          165,
          166,
          167,
          168,
          169,
          170,
          171,
          172,
          173,
          174,
          175,
          176,
          177,
          178,
          179,
          180,
          181,
          182,
          183,
          184,
          185,
          186,
          187,
          188,
          189,
          190,
          191,
          192,
          193,
          194,
          195,
          196,
          197,
          198,
          199,
          200,
          201,
          202,
          203,
          204,
          205,
          206,
          207,
          208,
          209,
          210,
          211,
          212,
          213,
          214,
          215,
          216,
          217,
          218,
          219,
          220,
          221,
          222,
          223,
          224,
          225,
          226,
          227,
          228,
          229,
          230,
          231,
          232,
          233,
          234,
          235,
          236,
          237,
          238,
          239,
          240,
          241,
          242,
          243,
          244,
          245,
          246,
          247,
          248,
          249,
          250,
          251,
          252,
          253,
          254,
          255,
          256,
          257,
          258,
          259,
          260,
          261,
          262,
          263,
          264,
          265,
          266,
          267,
          268,
          269,
          270,
          271,
          272,
          273,
          274,
          275,
          276,
          277,
          278,
          279,
          280,
          281,
          282,
          283,
          284,
          285,
          286,
          287,
          288,
          289,
          290,
          291,
          292,
          293,
          294,
          295,
          296,
          297,
          298,
          299,
          300,
          301,
          302,
          303,
          304,
          305,
          306,
          307,
          308,
          309,
          310,
          311,
          312,
          313,
          314,
          315,
          316,
          317,
          318,
          319,
          320,
          321,
          322,
          323,
          324,
          325,
          326,
          327,
          328,
          329,
          330,
          331,
          332,
          333,
          334,
          335,
          336,
          337,
          338,
          339,
          340,
          341,
          342,
          343,
          344,
          345,
          346,
          347,
          348,
          349,
          350,
          351,
          352,
          353,
          354,
          355,
          356,
          357,
          358,
          359,
          360,
          361,
          362,
          363,
          364,
          365,
          366,
          367,
          368,
          369,
          370,
          371,
          372,
          373,
          374,
          375,
          376,
          377,
          378,
          379,
          380,
          381,
          382,
          383,
          384,
          385,
          386,
          387,
          388,
          389,
          390,
          391,
          392,
          393,
          394,
          395,
          396,
          397,
          398,
          399,
          400,
          401,
          402,
          403,
          404,
          405,
          406
        ],
        "AcquisitionTime": [
          "123940.860000",
          "123942.350000",
          "123943.840000",
          "123945.330000",
          "123946.820000",
          "123948.310000",
          "123949.800000",
          "123951.290000",
          "123952.780000",
          "123954.270000",
          "123955.760000",
          "123957.250000",
          "123958.740000",
          "124000.230000",
          "124001.720000",
          "124003.210000",
          "124004.700000",
          "124006.190000",
          "124007.680000",
          "124009.170000",
          "124010.660000",
          "124012.150000",
          "124013.640000",
          "124015.130000",
          "124016.620000",
          "124018.110000",
          "124019.600000",
          "124021.090000",
          "124022.580000",
          "124024.070000",
          "124025.560000",
          "124027.050000",
          "124028.540000",
          "124030.030000",
          "124031.520000",
          "124033.010000",
          "124034.500000",
          "124035.990000",
          "124037.480000",
          "124038.970000",
          "124040.460000",
          "124041.950000",
          "124043.440000",
          "124044.930000",
          "124046.420000",
          "124047.910000",
          "124049.400000",
          "124050.890000",
          "124052.380000",
          "124053.870000",
          "124055.360000",
          "124056.850000",
          "124058.340000",
          "124059.830000",
          "124101.320000",
          "124102.810000",
          "124104.300000",
          "124105.790000",
          "124107.280000",
          "124108.770000",
          "124110.260000",
          "124111.750000",
          "124113.240000",
          "124114.730000",
          "124116.220000",
          "124117.710000",
          "124119.200000",
          "124120.690000",
          "124122.180000",
          "124123.670000",
          "124125.160000",
          "124126.650000",
          "124128.140000",
          "124129.630000",
          "124131.120000",
          "124132.610000",
          "124134.100000",
          "124135.590000",
          "124137.080000",
          "124138.570000",
          "124140.060000",
          "124141.550000",
          "124143.040000",
          "124144.530000",
          "124146.020000",
          "124147.510000",
          "124149.000000",
          "124150.490000",
          "124151.980000",
          "124153.470000",
          "124154.960000",
          "124156.450000",
          "124157.940000",
          "124159.430000",
          "124200.920000",
          "124202.410000",
          "124203.900000",
          "124205.390000",
          "124206.880000",
          "124208.370000",
          "124209.860000",
          "124211.350000",
          "124212.840000",
          "124214.330000",
          "124215.820000",
          "124217.310000",
          "124218.800000",
          "124220.290000",
          "124221.780000",
          "124223.270000",
          "124224.760000",
          "124226.250000",
          "124227.740000",
          "124229.230000",
          "124230.720000",
          "124232.210000",
          "124233.700000",
          "124235.190000",
          "124236.680000",
          "124238.170000",
          "124239.660000",
          "124241.150000",
          "124242.640000",
          "124244.130000",
          "124245.620000",
          "124247.110000",
          "124248.600000",
          "124250.090000",
          "124251.580000",
          "124253.070000",
          "124254.560000",
          "124256.050000",
          "124257.540000",
          "124259.030000",
          "124300.520000",
          "124302.010000",
          "124303.500000",
          "124304.990000",
          "124306.480000",
          "124307.970000",
          "124309.460000",
          "124310.950000",
          "124312.440000",
          "124313.930000",
          "124315.420000",
          "124316.910000",
          "124318.400000",
          "124319.890000",
          "124321.380000",
          "124322.870000",
          "124324.360000",
          "124325.850000",
          "124327.340000",
          "124328.830000",
          "124330.320000",
          "124331.810000",
          "124333.300000",
          "124334.790000",
          "124336.280000",
          "124337.770000",
          "124339.260000",
          "124340.750000",
          "124342.240000",
          "124343.730000",
          "124345.220000",
          "124346.710000",
          "124348.200000",
          "124349.690000",
          "124351.180000",
          "124352.670000",
          "124354.160000",
          "124355.650000",
          "124357.140000",
          "124358.630000",
          "124400.120000",
          "124401.610000",
          "124403.100000",
          "124404.590000",
          "124406.080000",
          "124407.570000",
          "124409.060000",
          "124410.550000",
          "124412.040000",
          "124413.530000",
          "124415.020000",
          "124416.510000",
          "124418.000000",
          "124419.490000",
          "124420.980000",
          "124422.470000",
          "124423.960000",
          "124425.450000",
          "124426.940000",
          "124428.430000",
          "124429.920000",
          "124431.410000",
          "124432.900000",
          "124434.390000",
          "124435.880000",
          "124437.370000",
          "124438.860000",
          "124440.350000",
          "124441.840000",
          "124443.330000",
          "124444.820000",
          "124446.310000",
          "124447.800000",
          "124449.290000",
          "124450.780000",
          "124452.270000",
          "124453.760000",
          "124455.250000",
          "124456.740000",
          "124458.230000",
          "124459.720000",
          "124501.210000",
          "124502.700000",
          "124504.190000",
          "124505.680000",
          "124507.170000",
          "124508.660000",
          "124510.150000",
          "124511.640000",
          "124513.130000",
          "124514.620000",
          "124516.110000",
          "124517.600000",
          "124519.090000",
          "124520.580000",
          "124522.070000",
          "124523.560000",
          "124525.050000",
          "124526.540000",
          "124528.030000",
          "124529.520000",
          "124531.010000",
          "124532.500000",
          "124533.990000",
          "124535.480000",
          "124536.970000",
          "124538.460000",
          "124539.950000",
          "124541.440000",
          "124542.930000",
          "124544.420000",
          "124545.910000",
          "124547.400000",
          "124548.890000",
          "124550.380000",
          "124551.870000",
          "124553.360000",
          "124554.850000",
          "124556.340000",
          "124557.830000",
          "124559.320000",
          "124600.810000",
          "124602.300000",
          "124603.790000",
          "124605.280000",
          "124606.770000",
          "124608.260000",
          "124609.750000",
          "124611.240000",
          "124612.730000",
          "124614.220000",
          "124615.710000",
          "124617.200000",
          "124618.690000",
          "124620.180000",
          "124621.670000",
          "124623.160000",
          "124624.650000",
          "124626.140000",
          "124627.630000",
          "124629.120000",
          "124630.610000",
          "124632.100000",
          "124633.590000",
          "124635.080000",
          "124636.570000",
          "124638.060000",
          "124639.550000",
          "124641.040000",
          "124642.530000",
          "124644.020000",
          "124645.510000",
          "124647.000000",
          "124648.490000",
          "124649.980000",
          "124651.470000",
          "124652.960000",
          "124654.450000",
          "124655.940000",
          "124657.430000",
          "124658.920000",
          "124700.410000",
          "124701.900000",
          "124703.390000",
          "124704.880000",
          "124706.370000",
          "124707.860000",
          "124709.350000",
          "124710.840000",
          "124712.330000",
          "124713.820000",
          "124715.310000",
          "124716.800000",
          "124718.290000",
          "124719.780000",
          "124721.270000",
          "124722.760000",
          "124724.250000",
          "124725.740000",
          "124727.230000",
          "124728.720000",
          "124730.210000",
          "124731.700000",
          "124733.190000",
          "124734.680000",
          "124736.170000",
          "124737.660000",
          "124739.150000",
          "124740.640000",
          "124742.130000",
          "124743.620000",
          "124745.110000",
          "124746.600000",
          "124748.090000",
          "124749.580000",
          "124751.070000",
          "124752.560000",
          "124754.050000",
          "124755.540000",
          "124757.030000",
          "124758.520000",
          "124800.010000",
          "124801.500000",
          "124802.990000",
          "124804.480000",
          "124805.970000",
          "124807.460000",
          "124808.950000",
          "124810.440000",
          "124811.930000",
          "124813.420000",
          "124814.910000",
          "124816.400000",
          "124817.890000",
          "124819.380000",
          "124820.870000",
          "124822.360000",
          "124823.850000",
          "124825.340000",
          "124826.830000",
          "124828.320000",
          "124829.810000",
          "124831.300000",
          "124832.790000",
          "124834.280000",
          "124835.770000",
          "124837.260000",
          "124838.750000",
          "124840.240000",
          "124841.730000",
          "124843.220000",
          "124844.710000",
          "124846.200000",
          "124847.690000",
          "124849.180000",
          "124850.670000",
          "124852.160000",
          "124853.650000",
          "124855.140000",
          "124856.630000",
          "124858.120000",
          "124859.610000",
          "124901.100000",
          "124902.590000",
          "124904.080000",
          "124905.570000",
          "124907.060000",
          "124908.550000",
          "124910.040000",
          "124911.530000",
          "124913.020000",
          "124914.510000",
          "124916.000000",
          "124917.490000",
          "124918.980000",
          "124920.470000",
          "124921.960000",
          "124923.450000",
          "124924.940000",
          "124926.430000",
          "124927.920000",
          "124929.410000",
          "124930.900000",
          "124932.390000",
          "124933.880000",
          "124935.370000",
          "124936.860000",
          "124938.350000",
          "124939.840000",
          "124941.330000",
          "124942.820000",
          "124944.310000"
        ],
        "ContentTime": [
          "124108.958000",
          "124108.962000",
          "124108.965000",
          "124108.968000",
          "124108.971000",
          "124108.974000",
          "124108.977000",
          "124108.980000",
          "124108.983000",
          "124108.986000",
          "124108.988000",
          "124108.992000",
          "124108.995000",
          "124109.002000",
          "124109.005000",
          "124109.008000",
          "124109.011000",
          "124109.013000",
          "124109.016000",
          "124109.019000",
          "124109.022000",
          "124109.025000",
          "124109.028000",
          "124109.031000",
          "124109.034000",
          "124109.037000",
          "124109.043000",
          "124109.046000",
          "124109.049000",
          "124109.052000",
          "124109.054000",
          "124109.057000",
          "124109.060000",
          "124128.906000",
          "124128.909000",
          "124128.912000",
          "124128.915000",
          "124128.918000",
          "124128.921000",
          "124128.924000",
          "124128.926000",
          "124128.929000",
          "124128.932000",
          "124128.935000",
          "124128.938000",
          "124128.941000",
          "124128.944000",
          "124128.947000",
          "124128.950000",
          "124128.953000",
          "124128.956000",
          "124128.959000",
          "124128.962000",
          "124148.906000",
          "124148.909000",
          "124148.912000",
          "124148.915000",
          "124148.918000",
          "124148.921000",
          "124148.924000",
          "124148.926000",
          "124148.929000",
          "124148.932000",
          "124148.935000",
          "124148.938000",
          "124148.941000",
          "124148.944000",
          "124148.947000",
          "124148.950000",
          "124148.953000",
          "124148.956000",
          "124148.959000",
          "124148.962000",
          "124208.906000",
          "124208.909000",
          "124208.912000",
          "124208.924000",
          "124208.927000",
          "124208.930000",
          "124208.933000",
          "124208.936000",
          "124208.939000",
          "124208.942000",
          "124208.944000",
          "124208.947000",
          "124208.950000",
          "124208.953000",
          "124208.956000",
          "124208.959000",
          "124208.962000",
          "124208.965000",
          "124208.968000",
          "124208.971000",
          "124208.974000",
          "124248.906000",
          "124248.909000",
          "124248.912000",
          "124248.915000",
          "124248.918000",
          "124248.921000",
          "124248.927000",
          "124248.930000",
          "124248.933000",
          "124248.936000",
          "124248.939000",
          "124248.942000",
          "124248.945000",
          "124248.948000",
          "124248.951000",
          "124248.954000",
          "124248.957000",
          "124248.960000",
          "124248.963000",
          "124248.966000",
          "124248.968000",
          "124248.971000",
          "124248.974000",
          "124248.977000",
          "124248.980000",
          "124248.983000",
          "124248.986000",
          "124248.989000",
          "124248.992000",
          "124248.995000",
          "124248.998000",
          "124249.002000",
          "124328.905000",
          "124328.908000",
          "124328.911000",
          "124328.914000",
          "124328.917000",
          "124328.920000",
          "124328.923000",
          "124328.926000",
          "124328.929000",
          "124328.932000",
          "124328.935000",
          "124328.938000",
          "124328.943000",
          "124328.946000",
          "124328.949000",
          "124328.952000",
          "124328.955000",
          "124328.959000",
          "124328.962000",
          "124328.965000",
          "124328.968000",
          "124328.971000",
          "124328.974000",
          "124328.977000",
          "124328.980000",
          "124328.983000",
          "124408.906000",
          "124408.909000",
          "124408.912000",
          "124408.915000",
          "124408.918000",
          "124408.921000",
          "124408.924000",
          "124408.927000",
          "124408.930000",
          "124408.933000",
          "124408.935000",
          "124408.939000",
          "124408.942000",
          "124408.944000",
          "124408.947000",
          "124408.958000",
          "124408.961000",
          "124408.964000",
          "124408.967000",
          "124408.970000",
          "124408.973000",
          "124408.975000",
          "124408.978000",
          "124408.982000",
          "124408.984000",
          "124408.987000",
          "124408.990000",
          "124448.906000",
          "124448.909000",
          "124448.912000",
          "124448.915000",
          "124448.918000",
          "124448.921000",
          "124448.924000",
          "124448.927000",
          "124448.930000",
          "124448.933000",
          "124448.936000",
          "124448.939000",
          "124448.942000",
          "124448.945000",
          "124448.948000",
          "124448.951000",
          "124448.968000",
          "124448.971000",
          "124448.974000",
          "124448.977000",
          "124448.980000",
          "124448.983000",
          "124448.986000",
          "124448.989000",
          "124448.992000",
          "124448.995000",
          "124448.998000",
          "124528.906000",
          "124528.909000",
          "124528.912000",
          "124528.915000",
          "124528.918000",
          "124528.921000",
          "124528.924000",
          "124528.927000",
          "124528.930000",
          "124528.933000",
          "124528.936000",
          "124528.939000",
          "124528.942000",
          "124528.952000",
          "124528.955000",
          "124528.958000",
          "124528.961000",
          "124528.964000",
