{
  "aor": 0.0002105925925925926,
  "aqi": 0.005145496765432099,
  "bids_meta": {
    "AcquisitionMatrixPE": 104,
    "AcquisitionNumber": 1,
    "AcquisitionTime": "12:50:13.212500",
    "BandwidthPerPixelPhaseEncode": 17.17,
    "BaseResolution": 104,
    "BodyPartExamined": "BRAIN",
    "CogAtlasID": "trm_4c898da401420",
    "ConsistencyInfo": "N4_VE11C_LATEST_20160120",
    "ConversionSoftware": "dcm2niix",
    "ConversionSoftwareVersion": "v1.0.20171215 (OpenJPEG build) GCC7.3.0",
    "DerivedVendorReportedEchoSpacing": 0.000560011,
    "DeviceSerialNumber": "167006",
    "DwellTime": 2.1e-06,
    "EchoTime": 0.037,
    "EchoTrainLength": 104,
    "EffectiveEchoSpacing": 0.000560011,
    "FlipAngle": 52,
    "ImageComments": "Unaliased_MB4_PE3_LB",
    "ImageOrientationPatientDICOM": [
      0.995898,
      0.062325,
      -0.0655994,
      -0.0754063,
      0.972365,
      -0.220953
    ],
    "ImageType": [
      "ORIGINAL",
      "PRIMARY",
      "M",
      "MB",
      "ND",
      "MOSAIC"
    ],
    "InPlanePhaseEncodingDirectionDICOM": "COL",
    "InstitutionAddress": "Chemin_Queen-Mary_4565_Montreal_District_CA_H3W_1W5",
    "InstitutionName": "IUGM",
    "InstitutionalDepartmentName": "Department",
    "MRAcquisitionType": "2D",
    "MagneticFieldStrength": 3,
    "Manufacturer": "Siemens",
    "ManufacturersModelName": "Prisma_fit",
    "Modality": "MR",
    "MultibandAccelerationFactor": 4,
    "PartialFourier": 1,
    "PatientPosition": "HFS",
    "PercentPhaseFOV": 100,
    "PhaseEncodingDirection": "j-",
    "PhaseEncodingSteps": 104,
    "PhaseResolution": 1,
    "PixelBandwidth": 2290,
    "ProcedureStepDescription": "video5_generic",
    "ProtocolName": "func_task-wolf14",
    "PulseSequenceDetails": "%CustomerSeq%_cmrr_mbep2d_bold",
    "ReceiveCoilActiveElements": "HC1-7;NC1,2",
    "ReceiveCoilName": "HeadNeck_64",
    "ReconMatrixPE": 104,
    "RepetitionTime": 1.49,
    "SAR": 0.0339371,
    "ScanOptions": "FS",
    "ScanningSequence": "EP",
    "SequenceName": "epfid2d1_104",
    "SequenceVariant": "SK_SS",
    "SeriesDescription": "func_task-wolf14",
    "SeriesNumber": 29,
    "ShimSetting": [
      608,
      -7213,
      -8906,
      570,
      -25,
      -223,
      -6,
      30
    ],
    "SliceThickness": 2,
    "SliceTiming": [
      0,
      0.7825,
      0.0975,
      0.8825,
      0.195,
      0.98,
      0.2925,
      1.0775,
      0.3925,
      1.175,
      0.49,
      1.2725,
      0.5875,
      1.3725,
      0.685,
      0,
      0.7825,
      0.0975,
      0.8825,
      0.195,
      0.98,
      0.2925,
      1.0775,
      0.3925,
      1.175,
      0.49,
      1.2725,
      0.5875,
      1.3725,
      0.685,
      0,
      0.7825,
      0.0975,
      0.8825,
      0.195,
      0.98,
      0.2925,
      1.0775,
      0.3925,
      1.175,
      0.49,
      1.2725,
      0.5875,
      1.3725,
      0.685,
      0,
      0.7825,
      0.0975,
      0.8825,
      0.195,
      0.98,
      0.2925,
      1.0775,
      0.3925,
      1.175,
      0.49,
      1.2725,
      0.5875,
      1.3725,
      0.685
    ],
    "SoftwareVersions": "syngo_MR_E11",
    "SpacingBetweenSlices": 2,
    "StationName": "MRC35049",
    "TaskName": "wolf14",
    "TotalReadoutTime": 0.0576811,
    "TxRefAmp": 222.607,
    "dataset": "<unset>",
    "dcmmeta_affine": [
      [
        -1.991795539855957,
        -0.15081267058849335,
        -0.10003144294023514,
        111.62803649902344
      ],
      [
        -0.12464994192123413,
        1.9447300434112549,
        -0.44998592138290405,
        -65.13790893554688
      ],
      [
        -0.13119886815547943,
        0.44190552830696106,
        1.946151614189148,
        -69.8478012084961
      ],
      [
        0.0,
        0.0,
        0.0,
        1.0
      ]
    ],
    "dcmmeta_reorient_transform": [
      [
        0.0,
        -1.0,
        0.0,
        103.0
      ],
      [
        1.0,
        0.0,
        0.0,
        0.0
      ],
      [
        0.0,
        0.0,
        1.0,
        0.0
      ],
      [
        0.0,
        0.0,
        0.0,
        1.0
      ]
    ],
    "dcmmeta_shape": [
      104,
      104,
      60,
      406
    ],
    "dcmmeta_slice_dim": 2,
    "dcmmeta_version": 0.6,
    "global": {
      "const": {
        "AcquisitionMatrix": [
          104,
          0,
          0,
          104
        ],
        "AngioFlag": "N",
        "BitsAllocated": 16,
        "BitsStored": 16,
        "BodyPartExamined": "BRAIN",
        "Columns": 832,
        "EchoNumbers": 1,
        "EchoTime": 37.0,
        "EchoTrainLength": 104,
        "FlipAngle": 52.0,
        "HighBit": 15,
        "ImageOrientationPatient": [
          0.99589774191376,
          0.0623249691992,
          -0.0655994349472,
          -0.0754063333007,
          0.97236503596622,
          -0.2209527590426
        ],
        "ImagePositionPatient": [
          -766.21207575716,
          -888.42360964248,
          184.27846412638
        ],
        "ImageType": [
          "ORIGINAL",
          "PRIMARY",
          "M",
          "MB",
          "ND",
          "MOSAIC"
        ],
        "ImagedNucleus": "1H",
        "ImagingFrequency": 123.25932,
        "InPlanePhaseEncodingDirection": "COL",
        "MRAcquisitionType": "2D",
        "MagneticFieldStrength": 3.0,
        "Manufacturer": "SIEMENS",
        "ManufacturerModelName": "Prisma_fit",
        "Modality": "MR",
        "NumberOfAverages": 1.0,
        "NumberOfPhaseEncodingSteps": 104,
        "PercentPhaseFieldOfView": 100.0,
        "PercentSampling": 100.0,
        "PerformedProcedureStepStartTime": "113553.746000",
        "PhotometricInterpretation": "MONOCHROME2",
        "PixelBandwidth": 2290.0,
        "PixelRepresentation": 0,
        "PixelSpacing": [
          2.0,
          2.0
        ],
        "ProtocolName": "func_task-wolf14",
        "RepetitionTime": 1490.0,
        "Rows": 832,
        "SAR": 0.03393714830859,
        "SamplesPerPixel": 1,
        "ScanOptions": "FS",
        "ScanningSequence": "EP",
        "SequenceName": "epfid2d1_104",
        "SequenceVariant": [
          "SK",
          "SS"
        ],
        "SeriesDescription": "func_task-wolf14",
        "SeriesNumber": 29,
        "SeriesTime": "125129.602000",
        "SliceLocation": -58.894793072067,
        "SliceThickness": 2.0,
        "SmallestImagePixelValue": 0,
        "SoftwareVersions": "syngo MR E11",
        "SpacingBetweenSlices": 1.9999999836932,
        "SpecificCharacterSet": "ISO_IR 100",
        "StudyID": "1",
        "StudyTime": "113553.680000",
        "TransmitCoilName": "Body",
        "VariableFlipAngleFlag": "N",
        "WindowCenterWidthExplanation": "Algo1",
        "dBdt": 0.0
      },
      "slices": {}
    },
    "modality": "bold",
    "session_id": "003",
    "subject_id": "04",
    "task_id": "wolf14",
    "time": {
      "samples": {
        "AcquisitionNumber": [
          1,
          2,
          3,
          4,
          5,
          6,
          7,
          8,
          9,
          10,
          11,
          12,
          13,
          14,
          15,
          16,
          17,
          18,
          19,
          20,
          21,
          22,
          23,
          24,
          25,
          26,
          27,
          28,
          29,
          30,
          31,
          32,
          33,
          34,
          35,
          36,
          37,
          38,
          39,
          40,
          41,
          42,
          43,
          44,
          45,
          46,
          47,
          48,
          49,
          50,
          51,
          52,
          53,
          54,
          55,
          56,
          57,
          58,
          59,
          60,
          61,
          62,
          63,
          64,
          65,
          66,
          67,
          68,
          69,
          70,
          71,
          72,
          73,
          74,
          75,
          76,
          77,
          78,
          79,
          80,
          81,
          82,
          83,
          84,
          85,
          86,
          87,
          88,
          89,
          90,
          91,
          92,
          93,
          94,
          95,
          96,
          97,
          98,
          99,
          100,
          101,
          102,
          103,
          104,
          105,
          106,
          107,
          108,
          109,
          110,
          111,
          112,
          113,
          114,
          115,
          116,
          117,
          118,
          119,
          120,
          121,
          122,
          123,
          124,
          125,
          126,
          127,
          128,
          129,
          130,
          131,
          132,
          133,
          134,
          135,
          136,
          137,
          138,
          139,
          140,
          141,
          142,
          143,
          144,
          145,
          146,
          147,
          148,
          149,
          150,
          151,
          152,
          153,
          154,
          155,
          156,
          157,
          158,
          159,
          160,
          161,
          162,
          163,
          164,
          165,
          166,
          167,
          168,
          169,
          170,
          171,
          172,
          173,
          174,
          175,
          176,
          177,
          178,
          179,
          180,
          181,
          182,
          183,
          184,
          185,
          186,
          187,
          188,
          189,
          190,
          191,
          192,
          193,
          194,
          195,
          196,
          197,
          198,
          199,
          200,
          201,
          202,
          203,
          204,
          205,
          206,
          207,
          208,
          209,
          210,
          211,
          212,
          213,
          214,
          215,
          216,
          217,
          218,
          219,
          220,
          221,
          222,
          223,
          224,
          225,
          226,
          227,
          228,
          229,
          230,
          231,
          232,
          233,
          234,
          235,
          236,
          237,
          238,
          239,
          240,
          241,
          242,
          243,
          244,
          245,
          246,
          247,
          248,
          249,
          250,
          251,
          252,
          253,
          254,
          255,
          256,
          257,
          258,
          259,
          260,
          261,
          262,
          263,
          264,
          265,
          266,
          267,
          268,
          269,
          270,
          271,
          272,
          273,
          274,
          275,
          276,
          277,
          278,
          279,
          280,
          281,
          282,
          283,
          284,
          285,
          286,
          287,
          288,
          289,
          290,
          291,
          292,
          293,
          294,
          295,
          296,
          297,
          298,
          299,
          300,
          301,
          302,
          303,
          304,
          305,
          306,
          307,
          308,
          309,
          310,
          311,
          312,
          313,
          314,
          315,
          316,
          317,
          318,
          319,
          320,
          321,
          322,
          323,
          324,
          325,
          326,
          327,
          328,
          329,
          330,
          331,
          332,
          333,
          334,
          335,
          336,
          337,
          338,
          339,
          340,
          341,
          342,
          343,
          344,
          345,
          346,
          347,
          348,
          349,
          350,
          351,
          352,
          353,
          354,
          355,
          356,
          357,
          358,
          359,
          360,
          361,
          362,
          363,
          364,
          365,
          366,
          367,
          368,
          369,
          370,
          371,
          372,
          373,
          374,
          375,
          376,
          377,
          378,
          379,
          380,
          381,
          382,
          383,
          384,
          385,
          386,
          387,
          388,
          389,
          390,
          391,
          392,
          393,
          394,
          395,
          396,
          397,
          398,
          399,
          400,
          401,
          402,
          403,
          404,
          405,
          406
        ],
        "AcquisitionTime": [
          "125013.212500",
          "125014.702500",
          "125016.192500",
          "125017.682500",
          "125019.172500",
          "125020.662500",
          "125022.152500",
          "125023.642500",
          "125025.132500",
          "125026.622500",
          "125028.112500",
          "125029.602500",
          "125031.092500",
          "125032.582500",
          "125034.072500",
          "125035.562500",
          "125037.052500",
          "125038.542500",
          "125040.032500",
          "125041.522500",
          "125043.012500",
          "125044.502500",
          "125045.992500",
          "125047.482500",
          "125048.972500",
          "125050.462500",
          "125051.952500",
          "125053.442500",
          "125054.932500",
          "125056.422500",
          "125057.912500",
          "125059.402500",
          "125100.892500",
          "125102.382500",
          "125103.872500",
          "125105.362500",
          "125106.852500",
          "125108.342500",
          "125109.832500",
          "125111.322500",
          "125112.812500",
          "125114.302500",
          "125115.792500",
          "125117.282500",
          "125118.772500",
          "125120.262500",
          "125121.752500",
          "125123.242500",
          "125124.732500",
          "125126.222500",
          "125127.712500",
          "125129.202500",
          "125130.692500",
          "125132.182500",
          "125133.672500",
          "125135.162500",
          "125136.652500",
          "125138.142500",
          "125139.632500",
          "125141.122500",
          "125142.612500",
          "125144.102500",
          "125145.592500",
          "125147.082500",
          "125148.572500",
          "125150.062500",
          "125151.552500",
          "125153.042500",
          "125154.532500",
          "125156.022500",
          "125157.512500",
          "125159.002500",
          "125200.492500",
          "125201.982500",
          "125203.472500",
          "125204.962500",
          "125206.452500",
          "125207.942500",
          "125209.432500",
          "125210.922500",
          "125212.412500",
          "125213.902500",
          "125215.392500",
          "125216.882500",
          "125218.372500",
          "125219.862500",
          "125221.352500",
          "125222.842500",
          "125224.332500",
          "125225.822500",
          "125227.312500",
          "125228.802500",
          "125230.292500",
          "125231.782500",
          "125233.272500",
          "125234.762500",
          "125236.252500",
          "125237.742500",
          "125239.232500",
          "125240.722500",
          "125242.212500",
          "125243.702500",
          "125245.192500",
          "125246.682500",
          "125248.172500",
          "125249.662500",
          "125251.152500",
          "125252.642500",
          "125254.132500",
          "125255.622500",
          "125257.112500",
          "125258.602500",
          "125300.092500",
          "125301.582500",
          "125303.072500",
          "125304.562500",
          "125306.052500",
          "125307.542500",
          "125309.032500",
          "125310.522500",
          "125312.012500",
          "125313.502500",
          "125314.992500",
          "125316.482500",
          "125317.972500",
          "125319.462500",
          "125320.952500",
          "125322.442500",
          "125323.932500",
          "125325.422500",
          "125326.912500",
          "125328.402500",
          "125329.892500",
          "125331.382500",
          "125332.872500",
          "125334.362500",
          "125335.852500",
          "125337.342500",
          "125338.832500",
          "125340.322500",
          "125341.812500",
          "125343.302500",
          "125344.792500",
          "125346.282500",
          "125347.772500",
          "125349.262500",
          "125350.752500",
          "125352.242500",
          "125353.732500",
          "125355.222500",
          "125356.712500",
          "125358.202500",
          "125359.692500",
          "125401.182500",
          "125402.672500",
          "125404.162500",
          "125405.652500",
          "125407.142500",
          "125408.632500",
          "125410.122500",
          "125411.612500",
          "125413.102500",
          "125414.592500",
          "125416.082500",
          "125417.572500",
          "125419.062500",
          "125420.552500",
          "125422.042500",
          "125423.532500",
          "125425.022500",
          "125426.512500",
          "125428.002500",
          "125429.492500",
          "125430.982500",
          "125432.472500",
          "125433.962500",
          "125435.452500",
          "125436.942500",
          "125438.432500",
          "125439.922500",
          "125441.412500",
          "125442.902500",
          "125444.392500",
          "125445.882500",
          "125447.372500",
          "125448.862500",
          "125450.352500",
          "125451.842500",
          "125453.332500",
          "125454.822500",
          "125456.312500",
          "125457.802500",
          "125459.292500",
          "125500.782500",
          "125502.272500",
          "125503.762500",
          "125505.252500",
          "125506.742500",
          "125508.232500",
          "125509.722500",
          "125511.212500",
          "125512.702500",
          "125514.192500",
          "125515.682500",
          "125517.172500",
          "125518.662500",
          "125520.152500",
          "125521.642500",
          "125523.132500",
          "125524.622500",
          "125526.112500",
          "125527.602500",
          "125529.092500",
          "125530.582500",
          "125532.072500",
          "125533.562500",
          "125535.052500",
          "125536.542500",
          "125538.032500",
          "125539.522500",
          "125541.012500",
          "125542.502500",
          "125543.992500",
          "125545.482500",
          "125546.972500",
          "125548.462500",
          "125549.952500",
          "125551.442500",
          "125552.932500",
          "125554.422500",
          "125555.912500",
          "125557.402500",
          "125558.892500",
          "125600.382500",
          "125601.872500",
          "125603.362500",
          "125604.852500",
          "125606.342500",
          "125607.832500",
          "125609.322500",
          "125610.812500",
          "125612.302500",
          "125613.792500",
          "125615.282500",
          "125616.772500",
          "125618.262500",
          "125619.752500",
          "125621.242500",
          "125622.732500",
          "125624.222500",
          "125625.712500",
          "125627.202500",
          "125628.692500",
          "125630.182500",
          "125631.672500",
          "125633.162500",
          "125634.652500",
          "125636.142500",
          "125637.632500",
          "125639.122500",
          "125640.612500",
          "125642.102500",
          "125643.592500",
          "125645.082500",
          "125646.572500",
          "125648.062500",
          "125649.552500",
          "125651.042500",
          "125652.532500",
          "125654.022500",
          "125655.512500",
          "125657.002500",
          "125658.492500",
          "125659.982500",
          "125701.472500",
          "125702.962500",
          "125704.452500",
          "125705.942500",
          "125707.432500",
          "125708.922500",
          "125710.412500",
          "125711.902500",
          "125713.392500",
          "125714.882500",
          "125716.372500",
          "125717.862500",
          "125719.352500",
          "125720.842500",
          "125722.332500",
          "125723.822500",
          "125725.312500",
          "125726.802500",
          "125728.292500",
          "125729.782500",
          "125731.272500",
          "125732.762500",
          "125734.252500",
          "125735.742500",
          "125737.232500",
          "125738.722500",
          "125740.212500",
          "125741.702500",
          "125743.192500",
          "125744.682500",
          "125746.172500",
          "125747.662500",
          "125749.152500",
          "125750.642500",
          "125752.132500",
          "125753.622500",
          "125755.112500",
          "125756.602500",
          "125758.092500",
          "125759.582500",
          "125801.072500",
          "125802.562500",
          "125804.052500",
          "125805.542500",
          "125807.032500",
          "125808.522500",
          "125810.012500",
          "125811.502500",
          "125812.992500",
          "125814.482500",
          "125815.972500",
          "125817.462500",
          "125818.952500",
          "125820.442500",
          "125821.932500",
          "125823.422500",
          "125824.912500",
          "125826.402500",
          "125827.892500",
          "125829.382500",
          "125830.872500",
          "125832.362500",
          "125833.852500",
          "125835.342500",
          "125836.832500",
          "125838.322500",
          "125839.812500",
          "125841.302500",
          "125842.792500",
          "125844.282500",
          "125845.772500",
          "125847.262500",
          "125848.752500",
          "125850.242500",
          "125851.732500",
          "125853.222500",
          "125854.712500",
          "125856.202500",
          "125857.692500",
          "125859.182500",
          "125900.672500",
          "125902.162500",
          "125903.652500",
          "125905.142500",
          "125906.632500",
          "125908.122500",
          "125909.612500",
          "125911.102500",
          "125912.592500",
          "125914.082500",
          "125915.572500",
          "125917.062500",
          "125918.552500",
          "125920.042500",
          "125921.532500",
          "125923.022500",
          "125924.512500",
          "125926.002500",
          "125927.492500",
          "125928.982500",
          "125930.472500",
          "125931.962500",
          "125933.452500",
          "125934.942500",
          "125936.432500",
          "125937.922500",
          "125939.412500",
          "125940.902500",
          "125942.392500",
          "125943.882500",
          "125945.372500",
          "125946.862500",
          "125948.352500",
          "125949.842500",
          "125951.332500",
          "125952.822500",
          "125954.312500",
          "125955.802500",
          "125957.292500",
          "125958.782500",
          "130000.272500",
          "130001.762500",
          "130003.252500",
          "130004.742500",
          "130006.232500",
          "130007.722500",
          "130009.212500",
          "130010.702500",
          "130012.192500",
          "130013.682500",
          "130015.172500",
          "130016.662500"
        ],
        "ContentTime": [
          "125129.604000",
          "125129.608000",
          "125129.611000",
          "125129.614000",
          "125129.617000",
          "125129.620000",
          "125129.623000",
          "125129.626000",
          "125129.629000",
          "125129.631000",
          "125129.634000",
          "125129.637000",
          "125129.640000",
          "125129.643000",
          "125129.646000",
          "125129.649000",
          "125129.652000",
          "125129.655000",
          "125129.665000",
          "125129.668000",
          "125129.670000",
          "125129.682000",
          "125149.530000",
          "125149.533000",
          "125149.536000",
          "125149.539000",
          "125149.542000",
          "125149.545000",
          "125149.548000",
          "125149.551000",
          "125149.554000",
          "125149.557000",
          "125149.560000",
          "125149.563000",
          "125149.566000",
          "125149.569000",
          "125149.572000",
          "125149.575000",
          "125149.588000",
          "125149.590000",
          "125149.593000",
          "125149.596000",
          "125209.530000",
          "125209.533000",
          "125209.536000",
          "125209.539000",
          "125209.542000",
          "125209.545000",
          "125209.547000",
          "125209.551000",
          "125209.553000",
          "125209.556000",
          "125209.560000",
          "125209.563000",
          "125209.566000",
          "125209.569000",
          "125209.571000",
          "125209.575000",
          "125209.577000",
          "125209.580000",
          "125209.589000",
          "125209.592000",
          "125229.530000",
          "125229.533000",
          "125229.536000",
          "125229.539000",
          "125229.542000",
          "125229.545000",
          "125229.548000",
          "125229.551000",
          "125229.554000",
          "125229.557000",
          "125229.560000",
          "125229.563000",
          "125229.566000",
          "125229.569000",
          "125229.572000",
          "125229.576000",
          "125229.579000",
          "125229.582000",
          "125229.584000",
          "125229.587000",
          "125249.530000",
          "125249.533000",
          "125249.536000",
          "125249.539000",
          "125249.542000",
          "125249.545000",
          "125249.548000",
          "125249.551000",
          "125249.554000",
          "125249.557000",
          "125249.560000",
          "125249.563000",
          "125249.565000",
          "125249.569000",
          "125249.571000",
          "125249.574000",
          "125249.577000",
          "125249.580000",
          "125249.583000",
          "125249.586000",
          "125249.590000",
          "125329.530000",
          "125329.533000",
          "125329.536000",
          "125329.539000",
          "125329.542000",
          "125329.545000",
          "125329.548000",
          "125329.551000",
          "125329.554000",
          "125329.557000",
          "125329.560000",
          "125329.563000",
          "125329.566000",
          "125329.569000",
          "125329.571000",
          "125329.574000",
          "125329.577000",
          "125329.580000",
          "125329.583000",
          "125329.588000",
          "125329.591000",
          "125329.594000",
          "125329.597000",
          "125329.600000",
          "125329.603000",
          "125329.606000",
          "125329.609000",
          "125329.612000",
          "125409.530000",
          "125409.533000",
          "125409.537000",
          "125409.540000",
          "125409.542000",
          "125409.545000",
          "125409.549000",
          "125409.551000",
          "125409.554000",
          "125409.557000",
          "125409.560000",
          "125409.563000",
          "125409.566000",
          "125409.569000",
          "125409.572000",
          "125409.575000",
          "125409.578000",
          "125409.581000",
          "125409.584000",
          "125409.587000",
          "125409.590000",
          "125409.593000",
          "125409.596000",
          "125409.599000",
          "125409.602000",
          "125409.619000",
          "125449.530000",
          "125449.533000",
          "125449.536000",
          "125449.539000",
          "125449.542000",
          "125449.545000",
          "125449.548000",
          "125449.551000",
          "125449.554000",
          "125449.557000",
          "125449.560000",
          "125449.563000",
          "125449.566000",
          "125449.569000",
          "125449.572000",
          "125449.575000",
          "125449.578000",
          "125449.581000",
          "125449.584000",
          "125449.586000",
          "125449.590000",
          "125449.593000",
          "125449.595000",
          "125449.598000",
          "125449.601000",
          "125449.604000",
          "125449.607000",
          "125529.531000",
          "125529.534000",
          "125529.537000",
          "125529.540000",
          "125529.543000",
          "125529.546000",
          "125529.549000",
          "125529.552000",
          "125529.555000",
          "125529.558000",
          "125529.561000",
          "125529.564000",
          "125529.567000",
          "125529.570000",
          "125529.573000",
          "125529.576000",
          "125529.578000",
          "125529.581000",
          "125529.584000",
          "125529.587000",
          "125529.590000",
          "125529.593000",
          "125529.596000",
          "125529.599000",
          "125529.602000",
          "125529.605000",
          "125529.608000",
          "125609.530000",
          "125609.533000",
          "125609.536000",
          "125609.539000",
          "125609.542000",
          "125609.545000",
          "125609.548000",
          "125609.551000",
          "125609.554000",
          "125609.557000",
          "125609.560000",
          "125609.563000",
