{
  "aor": 0.00022282178217821778,
  "aqi": 0.005866150767326732,
  "bids_meta": {
    "AcquisitionMatrixPE": 104,
    "AcquisitionNumber": 1,
    "AcquisitionTime": "12:29:8.932500",
    "BandwidthPerPixelPhaseEncode": 17.17,
    "BaseResolution": 104,
    "BodyPartExamined": "BRAIN",
    "CogAtlasID": "trm_4c898da401420",
    "ConsistencyInfo": "N4_VE11C_LATEST_20160120",
    "ConversionSoftware": "dcm2niix",
    "ConversionSoftwareVersion": "v1.0.20171215 (OpenJPEG build) GCC7.3.0",
    "DerivedVendorReportedEchoSpacing": 0.000560011,
    "DeviceSerialNumber": "167006",
    "DwellTime": 2.1e-06,
    "EchoTime": 0.037,
    "EchoTrainLength": 104,
    "EffectiveEchoSpacing": 0.000560011,
    "FlipAngle": 52,
    "ImageComments": "Unaliased_MB4_PE3_LB",
    "ImageOrientationPatientDICOM": [
      0.995898,
      0.062325,
      -0.0655994,
      -0.0754063,
      0.972365,
      -0.220953
    ],
    "ImageType": [
      "ORIGINAL",
      "PRIMARY",
      "M",
      "MB",
      "ND",
      "MOSAIC"
    ],
    "InPlanePhaseEncodingDirectionDICOM": "COL",
    "InstitutionAddress": "Chemin_Queen-Mary_4565_Montreal_District_CA_H3W_1W5",
    "InstitutionName": "IUGM",
    "InstitutionalDepartmentName": "Department",
    "MRAcquisitionType": "2D",
    "MagneticFieldStrength": 3,
    "Manufacturer": "Siemens",
    "ManufacturersModelName": "Prisma_fit",
    "Modality": "MR",
    "MultibandAccelerationFactor": 4,
    "PartialFourier": 1,
    "PatientPosition": "HFS",
    "PercentPhaseFOV": 100,
    "PhaseEncodingDirection": "j-",
    "PhaseEncodingSteps": 104,
    "PhaseResolution": 1,
    "PixelBandwidth": 2290,
    "ProcedureStepDescription": "video5_generic",
    "ProtocolName": "func_task-wolf12",
    "PulseSequenceDetails": "%CustomerSeq%_cmrr_mbep2d_bold",
    "ReceiveCoilActiveElements": "HC1-7;NC1,2",
    "ReceiveCoilName": "HeadNeck_64",
    "ReconMatrixPE": 104,
    "RepetitionTime": 1.49,
    "SAR": 0.0339371,
    "ScanOptions": "FS",
    "ScanningSequence": "EP",
    "SequenceName": "epfid2d1_104",
    "SequenceVariant": "SK_SS",
    "SeriesDescription": "func_task-wolf12",
    "SeriesNumber": 25,
    "ShimSetting": [
      609,
      -7213,
      -8904,
      586,
      -21,
      -225,
      -9,
      28
    ],
    "SliceThickness": 2,
    "SliceTiming": [
      0,
      0.7825,
      0.0975,
      0.88,
      0.195,
      0.98,
      0.2925,
      1.0775,
      0.39,
      1.175,
      0.49,
      1.2725,
      0.5875,
      1.37,
      0.685,
      0,
      0.7825,
      0.0975,
      0.88,
      0.195,
      0.98,
      0.2925,
      1.0775,
      0.39,
      1.175,
      0.49,
      1.2725,
      0.5875,
      1.37,
      0.685,
      0,
      0.7825,
      0.0975,
      0.88,
      0.195,
      0.98,
      0.2925,
      1.0775,
      0.39,
      1.175,
      0.49,
      1.2725,
      0.5875,
      1.37,
      0.685,
      0,
      0.7825,
      0.0975,
      0.88,
      0.195,
      0.98,
      0.2925,
      1.0775,
      0.39,
      1.175,
      0.49,
      1.2725,
      0.5875,
      1.37,
      0.685
    ],
    "SoftwareVersions": "syngo_MR_E11",
    "SpacingBetweenSlices": 2,
    "StationName": "MRC35049",
    "TaskName": "wolf12",
    "TotalReadoutTime": 0.0576811,
    "TxRefAmp": 222.607,
    "dataset": "<unset>",
    "dcmmeta_affine": [
      [
        -1.991795539855957,
        -0.15081267058849335,
        -0.10003144294023514,
        111.62803649902344
      ],
      [
        -0.12464994192123413,
        1.9447300434112549,
        -0.44998592138290405,
        -65.13790893554688
      ],
      [
        -0.13119886815547943,
        0.44190552830696106,
        1.946151614189148,
        -69.8478012084961
      ],
      [
        0.0,
        0.0,
        0.0,
        1.0
      ]
    ],
    "dcmmeta_reorient_transform": [
      [
        0.0,
        -1.0,
        0.0,
        103.0
      ],
      [
        1.0,
        0.0,
        0.0,
        0.0
      ],
      [
        0.0,
        0.0,
        1.0,
        0.0
      ],
      [
        0.0,
        0.0,
        0.0,
        1.0
      ]
    ],
    "dcmmeta_shape": [
      104,
      104,
      60,
      406
    ],
    "dcmmeta_slice_dim": 2,
    "dcmmeta_version": 0.6,
    "global": {
      "const": {
        "AcquisitionMatrix": [
          104,
          0,
          0,
          104
        ],
        "AngioFlag": "N",
        "BitsAllocated": 16,
        "BitsStored": 16,
        "BodyPartExamined": "BRAIN",
        "Columns": 832,
        "EchoNumbers": 1,
        "EchoTime": 37.0,
        "EchoTrainLength": 104,
        "FlipAngle": 52.0,
        "HighBit": 15,
        "ImageOrientationPatient": [
          0.99589774191376,
          0.0623249691992,
          -0.0655994349472,
          -0.0754063333007,
          0.97236503596622,
          -0.2209527590426
        ],
        "ImagePositionPatient": [
          -766.21207575716,
          -888.42360964248,
          184.27846412638
        ],
        "ImageType": [
          "ORIGINAL",
          "PRIMARY",
          "M",
          "MB",
          "ND",
          "MOSAIC"
        ],
        "ImagedNucleus": "1H",
        "ImagingFrequency": 123.259308,
        "InPlanePhaseEncodingDirection": "COL",
        "MRAcquisitionType": "2D",
        "MagneticFieldStrength": 3.0,
        "Manufacturer": "SIEMENS",
        "ManufacturerModelName": "Prisma_fit",
        "Modality": "MR",
        "NumberOfAverages": 1.0,
        "NumberOfPhaseEncodingSteps": 104,
        "PercentPhaseFieldOfView": 100.0,
        "PercentSampling": 100.0,
        "PerformedProcedureStepStartTime": "113553.746000",
        "PhotometricInterpretation": "MONOCHROME2",
        "PixelBandwidth": 2290.0,
        "PixelRepresentation": 0,
        "PixelSpacing": [
          2.0,
          2.0
        ],
        "ProtocolName": "func_task-wolf12",
        "RepetitionTime": 1490.0,
        "Rows": 832,
        "SAR": 0.03393714830859,
        "SamplesPerPixel": 1,
        "ScanOptions": "FS",
        "ScanningSequence": "EP",
        "SequenceName": "epfid2d1_104",
        "SequenceVariant": [
          "SK",
          "SS"
        ],
        "SeriesDescription": "func_task-wolf12",
        "SeriesNumber": 25,
        "SeriesTime": "123039.056000",
        "SliceLocation": -58.894793072067,
        "SliceThickness": 2.0,
        "SmallestImagePixelValue": 0,
        "SoftwareVersions": "syngo MR E11",
        "SpacingBetweenSlices": 1.9999999836932,
        "SpecificCharacterSet": "ISO_IR 100",
        "StudyID": "1",
        "StudyTime": "113553.680000",
        "TransmitCoilName": "Body",
        "VariableFlipAngleFlag": "N",
        "WindowCenterWidthExplanation": "Algo1",
        "dBdt": 0.0
      },
      "slices": {}
    },
    "modality": "bold",
    "session_id": "003",
    "subject_id": "04",
    "task_id": "wolf12",
    "time": {
      "samples": {
        "AcquisitionNumber": [
          1,
          2,
          3,
          4,
          5,
          6,
          7,
          8,
          9,
          10,
          11,
          12,
          13,
          14,
          15,
          16,
          17,
          18,
          19,
          20,
          21,
          22,
          23,
          24,
          25,
          26,
          27,
          28,
          29,
          30,
          31,
          32,
          33,
          34,
          35,
          36,
          37,
          38,
          39,
          40,
          41,
          42,
          43,
          44,
          45,
          46,
          47,
          48,
          49,
          50,
          51,
          52,
          53,
          54,
          55,
          56,
          57,
          58,
          59,
          60,
          61,
          62,
          63,
          64,
          65,
          66,
          67,
          68,
          69,
          70,
          71,
          72,
          73,
          74,
          75,
          76,
          77,
          78,
          79,
          80,
          81,
          82,
          83,
          84,
          85,
          86,
          87,
          88,
          89,
          90,
          91,
          92,
          93,
          94,
          95,
          96,
          97,
          98,
          99,
          100,
          101,
          102,
          103,
          104,
          105,
          106,
          107,
          108,
          109,
          110,
          111,
          112,
          113,
          114,
          115,
          116,
          117,
          118,
          119,
          120,
          121,
          122,
          123,
          124,
          125,
          126,
          127,
          128,
          129,
          130,
          131,
          132,
          133,
          134,
          135,
          136,
          137,
          138,
          139,
          140,
          141,
          142,
          143,
          144,
          145,
          146,
          147,
          148,
          149,
          150,
          151,
          152,
          153,
          154,
          155,
          156,
          157,
          158,
          159,
          160,
          161,
          162,
          163,
          164,
          165,
          166,
          167,
          168,
          169,
          170,
          171,
          172,
          173,
          174,
          175,
          176,
          177,
          178,
          179,
          180,
          181,
          182,
          183,
          184,
          185,
          186,
          187,
          188,
          189,
          190,
          191,
          192,
          193,
          194,
          195,
          196,
          197,
          198,
          199,
          200,
          201,
          202,
          203,
          204,
          205,
          206,
          207,
          208,
          209,
          210,
          211,
          212,
          213,
          214,
          215,
          216,
          217,
          218,
          219,
          220,
          221,
          222,
          223,
          224,
          225,
          226,
          227,
          228,
          229,
          230,
          231,
          232,
          233,
          234,
          235,
          236,
          237,
          238,
          239,
          240,
          241,
          242,
          243,
          244,
          245,
          246,
          247,
          248,
          249,
          250,
          251,
          252,
          253,
          254,
          255,
          256,
          257,
          258,
          259,
          260,
          261,
          262,
          263,
          264,
          265,
          266,
          267,
          268,
          269,
          270,
          271,
          272,
          273,
          274,
          275,
          276,
          277,
          278,
          279,
          280,
          281,
          282,
          283,
          284,
          285,
          286,
          287,
          288,
          289,
          290,
          291,
          292,
          293,
          294,
          295,
          296,
          297,
          298,
          299,
          300,
          301,
          302,
          303,
          304,
          305,
          306,
          307,
          308,
          309,
          310,
          311,
          312,
          313,
          314,
          315,
          316,
          317,
          318,
          319,
          320,
          321,
          322,
          323,
          324,
          325,
          326,
          327,
          328,
          329,
          330,
          331,
          332,
          333,
          334,
          335,
          336,
          337,
          338,
          339,
          340,
          341,
          342,
          343,
          344,
          345,
          346,
          347,
          348,
          349,
          350,
          351,
          352,
          353,
          354,
          355,
          356,
          357,
          358,
          359,
          360,
          361,
          362,
          363,
          364,
          365,
          366,
          367,
          368,
          369,
          370,
          371,
          372,
          373,
          374,
          375,
          376,
          377,
          378,
          379,
          380,
          381,
          382,
          383,
          384,
          385,
          386,
          387,
          388,
          389,
          390,
          391,
          392,
          393,
          394,
          395,
          396,
          397,
          398,
          399,
          400,
          401,
          402,
          403,
          404,
          405,
          406
        ],
        "AcquisitionTime": [
          "122908.932500",
          "122910.422500",
          "122911.912500",
          "122913.402500",
          "122914.892500",
          "122916.382500",
          "122917.872500",
          "122919.362500",
          "122920.852500",
          "122922.342500",
          "122923.832500",
          "122925.322500",
          "122926.812500",
          "122928.302500",
          "122929.792500",
          "122931.282500",
          "122932.772500",
          "122934.262500",
          "122935.752500",
          "122937.242500",
          "122938.732500",
          "122940.222500",
          "122941.712500",
          "122943.202500",
          "122944.692500",
          "122946.182500",
          "122947.672500",
          "122949.162500",
          "122950.652500",
          "122952.142500",
          "122953.632500",
          "122955.122500",
          "122956.612500",
          "122958.102500",
          "122959.592500",
          "123001.082500",
          "123002.572500",
          "123004.062500",
          "123005.552500",
          "123007.042500",
          "123008.532500",
          "123010.022500",
          "123011.512500",
          "123013.002500",
          "123014.492500",
          "123015.982500",
          "123017.472500",
          "123018.962500",
          "123020.452500",
          "123021.942500",
          "123023.432500",
          "123024.922500",
          "123026.412500",
          "123027.902500",
          "123029.392500",
          "123030.882500",
          "123032.372500",
          "123033.862500",
          "123035.352500",
          "123036.842500",
          "123038.332500",
          "123039.822500",
          "123041.312500",
          "123042.802500",
          "123044.292500",
          "123045.782500",
          "123047.272500",
          "123048.762500",
          "123050.252500",
          "123051.742500",
          "123053.232500",
          "123054.722500",
          "123056.212500",
          "123057.702500",
          "123059.192500",
          "123100.682500",
          "123102.172500",
          "123103.662500",
          "123105.152500",
          "123106.642500",
          "123108.132500",
          "123109.622500",
          "123111.112500",
          "123112.602500",
          "123114.092500",
          "123115.582500",
          "123117.072500",
          "123118.562500",
          "123120.052500",
          "123121.542500",
          "123123.032500",
          "123124.522500",
          "123126.012500",
          "123127.502500",
          "123128.992500",
          "123130.482500",
          "123131.972500",
          "123133.462500",
          "123134.952500",
          "123136.442500",
          "123137.932500",
          "123139.422500",
          "123140.912500",
          "123142.402500",
          "123143.892500",
          "123145.382500",
          "123146.872500",
          "123148.362500",
          "123149.852500",
          "123151.342500",
          "123152.832500",
          "123154.322500",
          "123155.812500",
          "123157.302500",
          "123158.792500",
          "123200.282500",
          "123201.772500",
          "123203.262500",
          "123204.752500",
          "123206.242500",
          "123207.732500",
          "123209.222500",
          "123210.712500",
          "123212.202500",
          "123213.692500",
          "123215.182500",
          "123216.672500",
          "123218.162500",
          "123219.652500",
          "123221.142500",
          "123222.632500",
          "123224.122500",
          "123225.612500",
          "123227.102500",
          "123228.592500",
          "123230.082500",
          "123231.572500",
          "123233.062500",
          "123234.552500",
          "123236.042500",
          "123237.532500",
          "123239.022500",
          "123240.512500",
          "123242.002500",
          "123243.492500",
          "123244.982500",
          "123246.472500",
          "123247.962500",
          "123249.452500",
          "123250.942500",
          "123252.432500",
          "123253.922500",
          "123255.412500",
          "123256.902500",
          "123258.392500",
          "123259.882500",
          "123301.372500",
          "123302.862500",
          "123304.352500",
          "123305.842500",
          "123307.332500",
          "123308.822500",
          "123310.312500",
          "123311.802500",
          "123313.292500",
          "123314.782500",
          "123316.272500",
          "123317.762500",
          "123319.252500",
          "123320.742500",
          "123322.232500",
          "123323.722500",
          "123325.212500",
          "123326.702500",
          "123328.192500",
          "123329.682500",
          "123331.172500",
          "123332.662500",
          "123334.152500",
          "123335.642500",
          "123337.132500",
          "123338.622500",
          "123340.112500",
          "123341.602500",
          "123343.092500",
          "123344.582500",
          "123346.072500",
          "123347.562500",
          "123349.052500",
          "123350.542500",
          "123352.032500",
          "123353.522500",
          "123355.012500",
          "123356.502500",
          "123357.992500",
          "123359.482500",
          "123400.972500",
          "123402.462500",
          "123403.952500",
          "123405.442500",
          "123406.932500",
          "123408.422500",
          "123409.912500",
          "123411.402500",
          "123412.892500",
          "123414.382500",
          "123415.872500",
          "123417.362500",
          "123418.852500",
          "123420.342500",
          "123421.832500",
          "123423.322500",
          "123424.812500",
          "123426.302500",
          "123427.792500",
          "123429.282500",
          "123430.772500",
          "123432.262500",
          "123433.752500",
          "123435.242500",
          "123436.732500",
          "123438.222500",
          "123439.712500",
          "123441.202500",
          "123442.692500",
          "123444.182500",
          "123445.672500",
          "123447.162500",
          "123448.652500",
          "123450.142500",
          "123451.632500",
          "123453.122500",
          "123454.612500",
          "123456.102500",
          "123457.592500",
          "123459.082500",
          "123500.572500",
          "123502.062500",
          "123503.552500",
          "123505.042500",
          "123506.532500",
          "123508.022500",
          "123509.512500",
          "123511.002500",
          "123512.492500",
          "123513.982500",
          "123515.472500",
          "123516.962500",
          "123518.452500",
          "123519.942500",
          "123521.432500",
          "123522.922500",
          "123524.412500",
          "123525.902500",
          "123527.392500",
          "123528.882500",
          "123530.372500",
          "123531.862500",
          "123533.352500",
          "123534.842500",
          "123536.332500",
          "123537.822500",
          "123539.312500",
          "123540.802500",
          "123542.292500",
          "123543.782500",
          "123545.272500",
          "123546.762500",
          "123548.252500",
          "123549.742500",
          "123551.232500",
          "123552.722500",
          "123554.212500",
          "123555.702500",
          "123557.192500",
          "123558.682500",
          "123600.172500",
          "123601.662500",
          "123603.152500",
          "123604.642500",
          "123606.132500",
          "123607.622500",
          "123609.112500",
          "123610.602500",
          "123612.092500",
          "123613.582500",
          "123615.072500",
          "123616.562500",
          "123618.052500",
          "123619.542500",
          "123621.032500",
          "123622.522500",
          "123624.012500",
          "123625.502500",
          "123626.992500",
          "123628.482500",
          "123629.972500",
          "123631.462500",
          "123632.952500",
          "123634.442500",
          "123635.932500",
          "123637.422500",
          "123638.912500",
          "123640.402500",
          "123641.892500",
          "123643.382500",
          "123644.872500",
          "123646.362500",
          "123647.852500",
          "123649.342500",
          "123650.832500",
          "123652.322500",
          "123653.812500",
          "123655.302500",
          "123656.792500",
          "123658.282500",
          "123659.772500",
          "123701.262500",
          "123702.752500",
          "123704.242500",
          "123705.732500",
          "123707.222500",
          "123708.712500",
          "123710.202500",
          "123711.692500",
          "123713.182500",
          "123714.672500",
          "123716.162500",
          "123717.652500",
          "123719.142500",
          "123720.632500",
          "123722.122500",
          "123723.612500",
          "123725.102500",
          "123726.592500",
          "123728.082500",
          "123729.572500",
          "123731.062500",
          "123732.552500",
          "123734.042500",
          "123735.532500",
          "123737.022500",
          "123738.512500",
          "123740.002500",
          "123741.492500",
          "123742.982500",
          "123744.472500",
          "123745.962500",
          "123747.452500",
          "123748.942500",
          "123750.432500",
          "123751.922500",
          "123753.412500",
          "123754.902500",
          "123756.392500",
          "123757.882500",
          "123759.372500",
          "123800.862500",
          "123802.352500",
          "123803.842500",
          "123805.332500",
          "123806.822500",
          "123808.312500",
          "123809.802500",
          "123811.292500",
          "123812.782500",
          "123814.272500",
          "123815.762500",
          "123817.252500",
          "123818.742500",
          "123820.232500",
          "123821.722500",
          "123823.212500",
          "123824.702500",
          "123826.192500",
          "123827.682500",
          "123829.172500",
          "123830.662500",
          "123832.152500",
          "123833.642500",
          "123835.132500",
          "123836.622500",
          "123838.112500",
          "123839.602500",
          "123841.092500",
          "123842.582500",
          "123844.072500",
          "123845.562500",
          "123847.052500",
          "123848.542500",
          "123850.032500",
          "123851.522500",
          "123853.012500",
          "123854.502500",
          "123855.992500",
          "123857.482500",
          "123858.972500",
          "123900.462500",
          "123901.952500",
          "123903.442500",
          "123904.932500",
          "123906.422500",
          "123907.912500",
          "123909.402500",
          "123910.892500",
          "123912.382500"
        ],
        "ContentTime": [
          "123039.061000",
          "123039.065000",
          "123039.068000",
          "123039.071000",
          "123039.074000",
          "123039.077000",
          "123039.080000",
          "123039.084000",
          "123039.086000",
          "123039.089000",
          "123039.092000",
          "123039.096000",
          "123039.099000",
          "123039.102000",
          "123039.105000",
          "123039.113000",
          "123039.116000",
          "123039.119000",
          "123039.122000",
          "123039.125000",
          "123039.128000",
          "123039.131000",
          "123039.134000",
          "123039.137000",
          "123039.140000",
          "123039.143000",
          "123039.146000",
          "123039.149000",
          "123039.152000",
          "123039.154000",
          "123039.157000",
          "123039.160000",
          "123039.163000",
          "123059.027000",
          "123059.030000",
          "123059.033000",
          "123059.036000",
          "123059.039000",
          "123059.042000",
          "123059.045000",
          "123059.048000",
          "123059.051000",
          "123059.054000",
          "123059.057000",
          "123059.059000",
          "123059.062000",
          "123059.065000",
          "123059.068000",
          "123059.071000",
          "123059.074000",
          "123059.077000",
          "123059.080000",
          "123059.083000",
          "123119.027000",
          "123119.030000",
          "123119.033000",
          "123119.036000",
          "123119.039000",
          "123119.042000",
          "123119.045000",
          "123119.048000",
          "123119.051000",
          "123119.054000",
          "123119.057000",
          "123119.075000",
          "123119.078000",
          "123119.081000",
          "123119.084000",
          "123119.087000",
          "123119.090000",
          "123119.093000",
          "123119.096000",
          "123119.099000",
          "123119.102000",
          "123139.027000",
          "123139.030000",
          "123139.033000",
          "123139.036000",
          "123139.039000",
          "123139.042000",
          "123139.045000",
          "123139.048000",
          "123139.051000",
          "123139.053000",
          "123139.056000",
          "123139.059000",
          "123139.062000",
          "123139.065000",
          "123139.068000",
          "123139.071000",
          "123139.074000",
          "123139.077000",
          "123139.080000",
          "123139.083000",
          "123219.027000",
          "123219.030000",
          "123219.033000",
          "123219.036000",
          "123219.039000",
          "123219.042000",
          "123219.045000",
          "123219.048000",
          "123219.051000",
          "123219.054000",
          "123219.057000",
          "123219.060000",
          "123219.062000",
          "123219.065000",
          "123219.068000",
          "123219.071000",
          "123219.075000",
          "123219.078000",
          "123219.081000",
          "123219.084000",
          "123219.087000",
          "123219.090000",
          "123219.093000",
          "123219.096000",
          "123219.099000",
          "123219.102000",
          "123219.105000",
          "123219.108000",
          "123219.111000",
          "123219.113000",
          "123219.116000",
          "123219.119000",
          "123259.027000",
          "123259.030000",
          "123259.033000",
          "123259.036000",
          "123259.039000",
          "123259.042000",
          "123259.045000",
          "123259.047000",
          "123259.051000",
          "123259.053000",
          "123259.056000",
          "123259.059000",
          "123259.062000",
          "123259.065000",
          "123259.068000",
          "123259.071000",
          "123259.074000",
          "123259.077000",
          "123259.080000",
          "123259.083000",
          "123259.086000",
          "123259.089000",
          "123259.092000",
          "123259.094000",
          "123259.098000",
          "123259.100000",
          "123259.103000",
          "123339.027000",
          "123339.030000",
          "123339.033000",
          "123339.036000",
          "123339.039000",
          "123339.042000",
          "123339.045000",
          "123339.048000",
          "123339.051000",
          "123339.054000",
          "123339.056000",
          "123339.060000",
          "123339.062000",
          "123339.065000",
          "123339.069000",
          "123339.072000",
          "123339.075000",
          "123339.078000",
          "123339.080000",
          "123339.084000",
          "123339.086000",
          "123339.089000",
          "123339.092000",
          "123339.095000",
          "123339.099000",
          "123339.102000",
          "123339.105000",
          "123419.027000",
          "123419.030000",
          "123419.033000",
          "123419.036000",
          "123419.039000",
          "123419.042000",
          "123419.045000",
          "123419.048000",
          "123419.051000",
          "123419.054000",
          "123419.057000",
          "123419.060000",
          "123419.063000",
          "123419.066000",
          "123419.069000",
          "123419.072000",
          "123419.075000",
          "123419.078000",
          "123419.080000",
          "123419.083000",
          "123419.086000",
          "123419.089000",
          "123419.092000",
          "123419.095000",
          "123419.098000",
          "123419.101000",
          "123419.104000",
          "123459.027000",
          "123459.030000",
          "123459.033000",
          "123459.036000",
          "123459.039000",
          "123459.042000",
          "123459.045000",
          "123459.048000",
          "123459.051000",
          "123459.054000",
          "123459.057000",
          "123459.060000",
          "123459.062000",
          "123459.066000",
          "123459.069000",
          "123459.071000",
          "123459.074000",
