{
  "aor": 0.00040304455445544556,
  "aqi": 0.005001016757425742,
  "bids_meta": {
    "AcquisitionMatrixPE": 104,
    "AcquisitionNumber": 1,
    "AcquisitionTime": "11:55:32.542500",
    "BandwidthPerPixelPhaseEncode": 17.17,
    "BaseResolution": 104,
    "BodyPartExamined": "BRAIN",
    "CogAtlasID": "trm_4c898da401420",
    "ConsistencyInfo": "N4_VE11C_LATEST_20160120",
    "ConversionSoftware": "dcm2niix",
    "ConversionSoftwareVersion": "v1.0.20171215 (OpenJPEG build) GCC7.3.0",
    "DerivedVendorReportedEchoSpacing": 0.000560011,
    "DeviceSerialNumber": "167006",
    "DwellTime": 2.1e-06,
    "EchoTime": 0.037,
    "EchoTrainLength": 104,
    "EffectiveEchoSpacing": 0.000560011,
    "FlipAngle": 52,
    "ImageComments": "Unaliased_MB4_PE3_LB",
    "ImageOrientationPatientDICOM": [
      0.996737,
      0.0436737,
      -0.0678813,
      -0.0552027,
      0.982387,
      -0.178519
    ],
    "ImageType": [
      "ORIGINAL",
      "PRIMARY",
      "M",
      "MB",
      "ND",
      "MOSAIC"
    ],
    "InPlanePhaseEncodingDirectionDICOM": "COL",
    "InstitutionAddress": "Chemin_Queen-Mary_4565_Montreal_District_CA_H3W_1W5",
    "InstitutionName": "IUGM",
    "InstitutionalDepartmentName": "Department",
    "MRAcquisitionType": "2D",
    "MagneticFieldStrength": 3,
    "Manufacturer": "Siemens",
    "ManufacturersModelName": "Prisma_fit",
    "Modality": "MR",
    "MultibandAccelerationFactor": 4,
    "PartialFourier": 1,
    "PatientPosition": "HFS",
    "PercentPhaseFOV": 100,
    "PhaseEncodingDirection": "j-",
    "PhaseEncodingSteps": 104,
    "PhaseResolution": 1,
    "PixelBandwidth": 2290,
    "ProcedureStepDescription": "video5_generic",
    "ProtocolName": "func_task-wolf10",
    "PulseSequenceDetails": "%CustomerSeq%_cmrr_mbep2d_bold",
    "ReceiveCoilActiveElements": "HC1-7;NC1,2",
    "ReceiveCoilName": "HeadNeck_64",
    "ReconMatrixPE": 104,
    "RepetitionTime": 1.49,
    "SAR": 0.0319274,
    "ScanOptions": "FS",
    "ScanningSequence": "EP",
    "SequenceName": "epfid2d1_104",
    "SequenceVariant": "SK_SS",
    "SeriesDescription": "func_task-wolf10",
    "SeriesNumber": 14,
    "ShimSetting": [
      607,
      -7219,
      -8892,
      590,
      -32,
      -248,
      1,
      44
    ],
    "SliceThickness": 2,
    "SliceTiming": [
      0,
      0.7825,
      0.0975,
      0.8825,
      0.195,
      0.98,
      0.2925,
      1.0775,
      0.3925,
      1.175,
      0.49,
      1.2725,
      0.5875,
      1.37,
      0.685,
      0,
      0.7825,
      0.0975,
      0.8825,
      0.195,
      0.98,
      0.2925,
      1.0775,
      0.3925,
      1.175,
      0.49,
      1.2725,
      0.5875,
      1.37,
      0.685,
      0,
      0.7825,
      0.0975,
      0.8825,
      0.195,
      0.98,
      0.2925,
      1.0775,
      0.3925,
      1.175,
      0.49,
      1.2725,
      0.5875,
      1.37,
      0.685,
      0,
      0.7825,
      0.0975,
      0.8825,
      0.195,
      0.98,
      0.2925,
      1.0775,
      0.3925,
      1.175,
      0.49,
      1.2725,
      0.5875,
      1.37,
      0.685
    ],
    "SoftwareVersions": "syngo_MR_E11",
    "SpacingBetweenSlices": 2,
    "StationName": "MRC35049",
    "TaskName": "wolf10",
    "TotalReadoutTime": 0.0576811,
    "TxRefAmp": 219.149,
    "dataset": "<unset>",
    "dcmmeta_affine": [
      [
        -1.9934741258621216,
        -0.11040543764829636,
        -0.11777826398611069,
        109.93209838867188
      ],
      [
        -0.08734743297100067,
        1.9647732973098755,
        -0.3633677363395691,
        -70.38414001464844
      ],
      [
        -0.13576267659664154,
        0.3570382595062256,
        1.963184118270874,
        -65.69282531738281
      ],
      [
        0.0,
        0.0,
        0.0,
        1.0
      ]
    ],
    "dcmmeta_reorient_transform": [
      [
        0.0,
        -1.0,
        0.0,
        103.0
      ],
      [
        1.0,
        0.0,
        0.0,
        0.0
      ],
      [
        0.0,
        0.0,
        1.0,
        0.0
      ],
      [
        0.0,
        0.0,
        0.0,
        1.0
      ]
    ],
    "dcmmeta_shape": [
      104,
      104,
      60,
      406
    ],
    "dcmmeta_slice_dim": 2,
    "dcmmeta_version": 0.6,
    "global": {
      "const": {
        "AcquisitionMatrix": [
          104,
          0,
          0,
          104
        ],
        "AngioFlag": "N",
        "BitsAllocated": 16,
        "BitsStored": 16,
        "BodyPartExamined": "BRAIN",
        "Columns": 832,
        "EchoNumbers": 1,
        "EchoTime": 37.0,
        "EchoTrainLength": 104,
        "FlipAngle": 52.0,
        "HighBit": 15,
        "ImageOrientationPatient": [
          0.99673704146365,
          0.04367371744339,
          -0.067881341906,
          -0.0552027205416,
          0.98238667480254,
          -0.1785191329108
        ],
        "ImagePositionPatient": [
          -783.99732097214,
          -878.9594794724,
          150.46166553711
        ],
        "ImageType": [
          "ORIGINAL",
          "PRIMARY",
          "M",
          "MB",
          "ND",
          "MOSAIC"
        ],
        "ImagedNucleus": "1H",
        "ImagingFrequency": 123.259296,
        "InPlanePhaseEncodingDirection": "COL",
        "MRAcquisitionType": "2D",
        "MagneticFieldStrength": 3.0,
        "Manufacturer": "SIEMENS",
        "ManufacturerModelName": "Prisma_fit",
        "Modality": "MR",
        "NumberOfAverages": 1.0,
        "NumberOfPhaseEncodingSteps": 104,
        "PercentPhaseFieldOfView": 100.0,
        "PercentSampling": 100.0,
        "PerformedProcedureStepStartTime": "113553.746000",
        "PhotometricInterpretation": "MONOCHROME2",
        "PixelBandwidth": 2290.0,
        "PixelRepresentation": 0,
        "PixelSpacing": [
          2.0,
          2.0
        ],
        "ProtocolName": "func_task-wolf10",
        "RepetitionTime": 1490.0,
        "Rows": 832,
        "SAR": 0.03192736667626,
        "SamplesPerPixel": 1,
        "ScanOptions": "FS",
        "ScanningSequence": "EP",
        "SequenceName": "epfid2d1_104",
        "SequenceVariant": [
          "SK",
          "SS"
        ],
        "SeriesDescription": "func_task-wolf10",
        "SeriesNumber": 14,
        "SeriesTime": "115659.069000",
        "SliceLocation": -58.169697061938,
        "SliceThickness": 2.0,
        "SmallestImagePixelValue": 0,
        "SoftwareVersions": "syngo MR E11",
        "SpacingBetweenSlices": 1.9999999719385,
        "SpecificCharacterSet": "ISO_IR 100",
        "StudyID": "1",
        "StudyTime": "113553.680000",
        "TransmitCoilName": "Body",
        "VariableFlipAngleFlag": "N",
        "WindowCenterWidthExplanation": "Algo1",
        "dBdt": 0.0
      },
      "slices": {}
    },
    "modality": "bold",
    "session_id": "003",
    "subject_id": "04",
    "task_id": "wolf10",
    "time": {
      "samples": {
        "AcquisitionNumber": [
          1,
          2,
          3,
          4,
          5,
          6,
          7,
          8,
          9,
          10,
          11,
          12,
          13,
          14,
          15,
          16,
          17,
          18,
          19,
          20,
          21,
          22,
          23,
          24,
          25,
          26,
          27,
          28,
          29,
          30,
          31,
          32,
          33,
          34,
          35,
          36,
          37,
          38,
          39,
          40,
          41,
          42,
          43,
          44,
          45,
          46,
          47,
          48,
          49,
          50,
          51,
          52,
          53,
          54,
          55,
          56,
          57,
          58,
          59,
          60,
          61,
          62,
          63,
          64,
          65,
          66,
          67,
          68,
          69,
          70,
          71,
          72,
          73,
          74,
          75,
          76,
          77,
          78,
          79,
          80,
          81,
          82,
          83,
          84,
          85,
          86,
          87,
          88,
          89,
          90,
          91,
          92,
          93,
          94,
          95,
          96,
          97,
          98,
          99,
          100,
          101,
          102,
          103,
          104,
          105,
          106,
          107,
          108,
          109,
          110,
          111,
          112,
          113,
          114,
          115,
          116,
          117,
          118,
          119,
          120,
          121,
          122,
          123,
          124,
          125,
          126,
          127,
          128,
          129,
          130,
          131,
          132,
          133,
          134,
          135,
          136,
          137,
          138,
          139,
          140,
          141,
          142,
          143,
          144,
          145,
          146,
          147,
          148,
          149,
          150,
          151,
          152,
          153,
          154,
          155,
          156,
          157,
          158,
          159,
          160,
          161,
          162,
          163,
          164,
          165,
          166,
          167,
          168,
          169,
          170,
          171,
          172,
          173,
          174,
          175,
          176,
          177,
          178,
          179,
          180,
          181,
          182,
          183,
          184,
          185,
          186,
          187,
          188,
          189,
          190,
          191,
          192,
          193,
          194,
          195,
          196,
          197,
          198,
          199,
          200,
          201,
          202,
          203,
          204,
          205,
          206,
          207,
          208,
          209,
          210,
          211,
          212,
          213,
          214,
          215,
          216,
          217,
          218,
          219,
          220,
          221,
          222,
          223,
          224,
          225,
          226,
          227,
          228,
          229,
          230,
          231,
          232,
          233,
          234,
          235,
          236,
          237,
          238,
          239,
          240,
          241,
          242,
          243,
          244,
          245,
          246,
          247,
          248,
          249,
          250,
          251,
          252,
          253,
          254,
          255,
          256,
          257,
          258,
          259,
          260,
          261,
          262,
          263,
          264,
          265,
          266,
          267,
          268,
          269,
          270,
          271,
          272,
          273,
          274,
          275,
          276,
          277,
          278,
          279,
          280,
          281,
          282,
          283,
          284,
          285,
          286,
          287,
          288,
          289,
          290,
          291,
          292,
          293,
          294,
          295,
          296,
          297,
          298,
          299,
          300,
          301,
          302,
          303,
          304,
          305,
          306,
          307,
          308,
          309,
          310,
          311,
          312,
          313,
          314,
          315,
          316,
          317,
          318,
          319,
          320,
          321,
          322,
          323,
          324,
          325,
          326,
          327,
          328,
          329,
          330,
          331,
          332,
          333,
          334,
          335,
          336,
          337,
          338,
          339,
          340,
          341,
          342,
          343,
          344,
          345,
          346,
          347,
          348,
          349,
          350,
          351,
          352,
          353,
          354,
          355,
          356,
          357,
          358,
          359,
          360,
          361,
          362,
          363,
          364,
          365,
          366,
          367,
          368,
          369,
          370,
          371,
          372,
          373,
          374,
          375,
          376,
          377,
          378,
          379,
          380,
          381,
          382,
          383,
          384,
          385,
          386,
          387,
          388,
          389,
          390,
          391,
          392,
          393,
          394,
          395,
          396,
          397,
          398,
          399,
          400,
          401,
          402,
          403,
          404,
          405,
          406
        ],
        "AcquisitionTime": [
          "115532.542500",
          "115534.032500",
          "115535.522500",
          "115537.012500",
          "115538.502500",
          "115539.992500",
          "115541.482500",
          "115542.972500",
          "115544.462500",
          "115545.952500",
          "115547.442500",
          "115548.932500",
          "115550.422500",
          "115551.912500",
          "115553.402500",
          "115554.892500",
          "115556.382500",
          "115557.872500",
          "115559.362500",
          "115600.852500",
          "115602.342500",
          "115603.832500",
          "115605.322500",
          "115606.812500",
          "115608.302500",
          "115609.792500",
          "115611.282500",
          "115612.772500",
          "115614.262500",
          "115615.752500",
          "115617.242500",
          "115618.732500",
          "115620.222500",
          "115621.712500",
          "115623.202500",
          "115624.692500",
          "115626.182500",
          "115627.672500",
          "115629.162500",
          "115630.652500",
          "115632.142500",
          "115633.632500",
          "115635.122500",
          "115636.612500",
          "115638.102500",
          "115639.592500",
          "115641.082500",
          "115642.572500",
          "115644.062500",
          "115645.552500",
          "115647.042500",
          "115648.532500",
          "115650.022500",
          "115651.512500",
          "115653.002500",
          "115654.492500",
          "115655.982500",
          "115657.472500",
          "115658.962500",
          "115700.452500",
          "115701.942500",
          "115703.432500",
          "115704.922500",
          "115706.412500",
          "115707.902500",
          "115709.392500",
          "115710.882500",
          "115712.372500",
          "115713.862500",
          "115715.352500",
          "115716.842500",
          "115718.332500",
          "115719.822500",
          "115721.312500",
          "115722.802500",
          "115724.292500",
          "115725.782500",
          "115727.272500",
          "115728.762500",
          "115730.252500",
          "115731.742500",
          "115733.232500",
          "115734.722500",
          "115736.212500",
          "115737.702500",
          "115739.192500",
          "115740.682500",
          "115742.172500",
          "115743.662500",
          "115745.152500",
          "115746.642500",
          "115748.132500",
          "115749.622500",
          "115751.112500",
          "115752.602500",
          "115754.092500",
          "115755.582500",
          "115757.072500",
          "115758.562500",
          "115800.052500",
          "115801.542500",
          "115803.032500",
          "115804.522500",
          "115806.012500",
          "115807.502500",
          "115808.992500",
          "115810.482500",
          "115811.972500",
          "115813.462500",
          "115814.952500",
          "115816.442500",
          "115817.932500",
          "115819.422500",
          "115820.912500",
          "115822.402500",
          "115823.892500",
          "115825.382500",
          "115826.872500",
          "115828.362500",
          "115829.852500",
          "115831.342500",
          "115832.832500",
          "115834.322500",
          "115835.812500",
          "115837.302500",
          "115838.792500",
          "115840.282500",
          "115841.772500",
          "115843.262500",
          "115844.752500",
          "115846.242500",
          "115847.732500",
          "115849.222500",
          "115850.712500",
          "115852.202500",
          "115853.692500",
          "115855.182500",
          "115856.672500",
          "115858.162500",
          "115859.652500",
          "115901.142500",
          "115902.632500",
          "115904.122500",
          "115905.612500",
          "115907.102500",
          "115908.592500",
          "115910.082500",
          "115911.572500",
          "115913.062500",
          "115914.552500",
          "115916.042500",
          "115917.532500",
          "115919.022500",
          "115920.512500",
          "115922.002500",
          "115923.492500",
          "115924.982500",
          "115926.472500",
          "115927.962500",
          "115929.452500",
          "115930.942500",
          "115932.432500",
          "115933.922500",
          "115935.412500",
          "115936.902500",
          "115938.392500",
          "115939.882500",
          "115941.372500",
          "115942.862500",
          "115944.352500",
          "115945.842500",
          "115947.332500",
          "115948.822500",
          "115950.312500",
          "115951.802500",
          "115953.292500",
          "115954.782500",
          "115956.272500",
          "115957.762500",
          "115959.252500",
          "120000.742500",
          "120002.232500",
          "120003.722500",
          "120005.212500",
          "120006.702500",
          "120008.192500",
          "120009.682500",
          "120011.172500",
          "120012.662500",
          "120014.152500",
          "120015.642500",
          "120017.132500",
          "120018.622500",
          "120020.112500",
          "120021.602500",
          "120023.092500",
          "120024.582500",
          "120026.072500",
          "120027.562500",
          "120029.052500",
          "120030.542500",
          "120032.032500",
          "120033.522500",
          "120035.012500",
          "120036.502500",
          "120037.992500",
          "120039.482500",
          "120040.972500",
          "120042.462500",
          "120043.952500",
          "120045.442500",
          "120046.932500",
          "120048.422500",
          "120049.912500",
          "120051.402500",
          "120052.892500",
          "120054.382500",
          "120055.872500",
          "120057.362500",
          "120058.852500",
          "120100.342500",
          "120101.832500",
          "120103.322500",
          "120104.812500",
          "120106.302500",
          "120107.792500",
          "120109.282500",
          "120110.772500",
          "120112.262500",
          "120113.752500",
          "120115.242500",
          "120116.732500",
          "120118.222500",
          "120119.712500",
          "120121.202500",
          "120122.692500",
          "120124.182500",
          "120125.672500",
          "120127.162500",
          "120128.652500",
          "120130.142500",
          "120131.632500",
          "120133.122500",
          "120134.612500",
          "120136.102500",
          "120137.592500",
          "120139.082500",
          "120140.572500",
          "120142.062500",
          "120143.552500",
          "120145.042500",
          "120146.532500",
          "120148.022500",
          "120149.512500",
          "120151.002500",
          "120152.492500",
          "120153.982500",
          "120155.472500",
          "120156.962500",
          "120158.452500",
          "120159.942500",
          "120201.432500",
          "120202.922500",
          "120204.412500",
          "120205.902500",
          "120207.392500",
          "120208.882500",
          "120210.372500",
          "120211.862500",
          "120213.352500",
          "120214.842500",
          "120216.332500",
          "120217.822500",
          "120219.312500",
          "120220.802500",
          "120222.292500",
          "120223.782500",
          "120225.272500",
          "120226.762500",
          "120228.252500",
          "120229.742500",
          "120231.232500",
          "120232.722500",
          "120234.212500",
          "120235.702500",
          "120237.192500",
          "120238.682500",
          "120240.172500",
          "120241.662500",
          "120243.152500",
          "120244.642500",
          "120246.132500",
          "120247.622500",
          "120249.112500",
          "120250.602500",
          "120252.092500",
          "120253.582500",
          "120255.072500",
          "120256.562500",
          "120258.052500",
          "120259.542500",
          "120301.032500",
          "120302.522500",
          "120304.012500",
          "120305.502500",
          "120306.992500",
          "120308.482500",
          "120309.972500",
          "120311.462500",
          "120312.952500",
          "120314.442500",
          "120315.932500",
          "120317.422500",
          "120318.912500",
          "120320.402500",
          "120321.892500",
          "120323.382500",
          "120324.872500",
          "120326.362500",
          "120327.852500",
          "120329.342500",
          "120330.832500",
          "120332.322500",
          "120333.812500",
          "120335.302500",
          "120336.792500",
          "120338.282500",
          "120339.772500",
          "120341.262500",
          "120342.752500",
          "120344.242500",
          "120345.732500",
          "120347.222500",
          "120348.712500",
          "120350.202500",
          "120351.692500",
          "120353.182500",
          "120354.672500",
          "120356.162500",
          "120357.652500",
          "120359.142500",
          "120400.632500",
          "120402.122500",
          "120403.612500",
          "120405.102500",
          "120406.592500",
          "120408.082500",
          "120409.572500",
          "120411.062500",
          "120412.552500",
          "120414.042500",
          "120415.532500",
          "120417.022500",
          "120418.512500",
          "120420.002500",
          "120421.492500",
          "120422.982500",
          "120424.472500",
          "120425.962500",
          "120427.452500",
          "120428.942500",
          "120430.432500",
          "120431.922500",
          "120433.412500",
          "120434.902500",
          "120436.392500",
          "120437.882500",
          "120439.372500",
          "120440.862500",
          "120442.352500",
          "120443.842500",
          "120445.332500",
          "120446.822500",
          "120448.312500",
          "120449.802500",
          "120451.292500",
          "120452.782500",
          "120454.272500",
          "120455.762500",
          "120457.252500",
          "120458.742500",
          "120500.232500",
          "120501.722500",
          "120503.212500",
          "120504.702500",
          "120506.192500",
          "120507.682500",
          "120509.172500",
          "120510.662500",
          "120512.152500",
          "120513.642500",
          "120515.132500",
          "120516.622500",
          "120518.112500",
          "120519.602500",
          "120521.092500",
          "120522.582500",
          "120524.072500",
          "120525.562500",
          "120527.052500",
          "120528.542500",
          "120530.032500",
          "120531.522500",
          "120533.012500",
          "120534.502500",
          "120535.992500"
        ],
        "ContentTime": [
          "115659.073000",
          "115659.076000",
          "115659.079000",
          "115659.082000",
          "115659.085000",
          "115659.088000",
          "115659.091000",
          "115659.094000",
          "115659.097000",
          "115659.102000",
          "115659.105000",
          "115659.111000",
          "115659.114000",
          "115659.117000",
          "115659.120000",
          "115719.027000",
          "115719.030000",
          "115719.033000",
          "115719.036000",
          "115719.039000",
          "115719.042000",
          "115719.044000",
          "115719.047000",
          "115719.050000",
          "115719.053000",
          "115719.061000",
          "115719.065000",
          "115719.067000",
          "115719.070000",
          "115719.073000",
          "115719.076000",
          "115719.079000",
          "115719.082000",
          "115719.085000",
          "115719.088000",
          "115719.090000",
          "115739.027000",
          "115739.030000",
          "115739.044000",
          "115739.047000",
          "115739.050000",
          "115739.052000",
          "115739.055000",
          "115739.058000",
          "115739.061000",
          "115739.064000",
          "115739.067000",
          "115739.070000",
          "115739.081000",
          "115739.084000",
          "115739.087000",
          "115739.089000",
          "115739.092000",
          "115739.095000",
          "115739.098000",
          "115739.101000",
          "115759.027000",
          "115759.030000",
          "115759.033000",
          "115759.036000",
          "115759.039000",
          "115759.041000",
          "115759.044000",
          "115759.047000",
          "115759.050000",
          "115759.053000",
          "115759.056000",
          "115759.059000",
          "115759.062000",
          "115759.065000",
          "115759.068000",
          "115759.071000",
          "115759.073000",
          "115759.076000",
          "115759.079000",
          "115759.082000",
          "115819.026000",
          "115819.029000",
          "115819.032000",
          "115819.035000",
          "115819.038000",
          "115819.041000",
          "115819.044000",
          "115819.047000",
          "115819.049000",
          "115819.052000",
          "115819.055000",
          "115819.058000",
          "115819.061000",
          "115819.064000",
          "115819.067000",
          "115819.070000",
          "115819.073000",
          "115819.076000",
          "115819.078000",
          "115819.081000",
          "115839.027000",
          "115839.030000",
          "115839.033000",
          "115839.036000",
          "115839.039000",
          "115839.042000",
          "115839.044000",
          "115839.047000",
          "115839.050000",
          "115839.053000",
          "115839.056000",
          "115839.059000",
          "115839.062000",
          "115839.065000",
          "115839.068000",
          "115839.071000",
          "115839.073000",
          "115839.076000",
          "115839.079000",
          "115839.082000",
          "115859.027000",
          "115859.030000",
          "115859.033000",
          "115859.036000",
          "115859.039000",
          "115859.041000",
          "115859.044000",
          "115859.047000",
          "115859.050000",
          "115859.053000",
          "115859.056000",
          "115859.059000",
          "115859.062000",
          "115859.065000",
          "115859.068000",
          "115859.071000",
          "115859.073000",
          "115859.076000",
          "115859.079000",
          "115859.082000",
          "115939.027000",
          "115939.030000",
          "115939.033000",
          "115939.036000",
          "115939.039000",
          "115939.042000",
          "115939.045000",
          "115939.048000",
          "115939.050000",
          "115939.053000",
          "115939.056000",
          "115939.059000",
          "115939.062000",
          "115939.065000",
          "115939.068000",
          "115939.071000",
          "115939.073000",
          "115939.076000",
          "115939.079000",
          "115939.082000",
          "115939.085000",
          "115939.088000",
          "115939.091000",
          "115939.094000",
          "115939.097000",
          "115939.100000",
          "115939.103000",
          "115939.106000",
          "120019.027000",
          "120019.030000",
          "120019.033000",
          "120019.036000",
          "120019.039000",
          "120019.042000",
          "120019.045000",
          "120019.047000",
          "120019.050000",
          "120019.053000",
          "120019.056000",
          "120019.059000",
          "120019.062000",
          "120019.065000",
          "120019.068000",
          "120019.071000",
          "120019.074000",
          "120019.076000",
          "120019.079000",
          "120019.082000",
          "120019.085000",
          "120019.088000",
          "120019.091000",
          "120019.094000",
          "120019.097000",
          "120019.100000",
          "120019.103000",
          "120059.027000",
          "120059.030000",
          "120059.033000",
          "120059.036000",
          "120059.039000",
          "120059.042000",
          "120059.045000",
          "120059.048000",
          "120059.051000",
          "120059.053000",
          "120059.056000",
          "120059.059000",
          "120059.062000",
          "120059.065000",
          "120059.068000",
          "120059.071000",
          "120059.074000",
          "120059.077000",
          "120059.080000",
          "120059.083000",
          "120059.086000",
          "120059.088000",
          "120059.091000",
          "120059.100000",
          "120059.103000",
          "120059.106000",
          "120059.109000",
          "120139.027000",
          "120139.030000",
          "120139.033000",
          "120139.036000",
          "120139.039000",
