{
  "aor": 0.0017154814814814817,
  "aqi": 0.007706796938271605,
  "bids_meta": {
    "AcquisitionMatrixPE": 104,
    "AcquisitionNumber": 1,
    "AcquisitionTime": "11:52:52.910000",
    "BandwidthPerPixelPhaseEncode": 17.17,
    "BaseResolution": 104,
    "BodyPartExamined": "BRAIN",
    "CogAtlasID": "trm_4c898da401420",
    "CoilString": "HC1-7;NC1_2",
    "ConsistencyInfo": "N4_VE11C_LATEST_20160120",
    "ConversionSoftware": "dcm2niix",
    "ConversionSoftwareVersion": "v1.0.20190720  (JP2:OpenJPEG) GCC7.3.0",
    "DerivedVendorReportedEchoSpacing": 0.000560011,
    "DeviceSerialNumber": "167006",
    "DwellTime": 2.1e-06,
    "EchoTime": 0.037,
    "EchoTrainLength": 104,
    "EffectiveEchoSpacing": 0.000560011,
    "FlipAngle": 52,
    "ImageComments": "Unaliased_MB4_PE3_LB",
    "ImageOrientationPatientDICOM": [
      0.996681,
      0.0504686,
      -0.0638769,
      -0.0590391,
      0.988345,
      -0.140313
    ],
    "ImageType": [
      "ORIGINAL",
      "PRIMARY",
      "M",
      "MB",
      "ND",
      "MOSAIC"
    ],
    "ImagingFrequency": 123.259,
    "InPlanePhaseEncodingDirectionDICOM": "COL",
    "InstitutionAddress": "Chemin_Queen-Mary_4565_Montreal_District_CA_H3W_1W5",
    "InstitutionName": "IUGM",
    "InstitutionalDepartmentName": "Department",
    "MRAcquisitionType": "2D",
    "MagneticFieldStrength": 3,
    "Manufacturer": "Siemens",
    "ManufacturersModelName": "Prisma_fit",
    "Modality": "MR",
    "MultibandAccelerationFactor": 4,
    "PartialFourier": 1,
    "PatientPosition": "HFS",
    "PercentPhaseFOV": 100,
    "PhaseEncodingDirection": "j-",
    "PhaseEncodingSteps": 104,
    "PhaseResolution": 1,
    "PixelBandwidth": 2290,
    "ProcedureStepDescription": "video5_generic",
    "ProtocolName": "func_task-bourne3",
    "PulseSequenceDetails": "%CustomerSeq%_cmrr_mbep2d_bold",
    "ReceiveCoilActiveElements": "HC1-7;NC1,2",
    "ReceiveCoilName": "HeadNeck_64",
    "ReconMatrixPE": 104,
    "RepetitionTime": 1.49,
    "SAR": 0.0330734,
    "ScanOptions": "FS",
    "ScanningSequence": "EP",
    "SequenceName": "epfid2d1_104",
    "SequenceVariant": "SK_SS",
    "SeriesDescription": "func_task-bourne3",
    "SeriesNumber": 9,
    "ShimSetting": [
      599,
      -7263,
      -8829,
      578,
      -48,
      -336,
      19,
      48
    ],
    "SliceThickness": 2,
    "SliceTiming": [
      0,
      0.7825,
      0.0975,
      0.8825,
      0.195,
      0.98,
      0.2925,
      1.0775,
      0.3925,
      1.175,
      0.49,
      1.2725,
      0.5875,
      1.3725,
      0.685,
      0,
      0.7825,
      0.0975,
      0.8825,
      0.195,
      0.98,
      0.2925,
      1.0775,
      0.3925,
      1.175,
      0.49,
      1.2725,
      0.5875,
      1.3725,
      0.685,
      0,
      0.7825,
      0.0975,
      0.8825,
      0.195,
      0.98,
      0.2925,
      1.0775,
      0.3925,
      1.175,
      0.49,
      1.2725,
      0.5875,
      1.3725,
      0.685,
      0,
      0.7825,
      0.0975,
      0.8825,
      0.195,
      0.98,
      0.2925,
      1.0775,
      0.3925,
      1.175,
      0.49,
      1.2725,
      0.5875,
      1.3725,
      0.685
    ],
    "SoftwareVersions": "syngo_MR_E11",
    "SpacingBetweenSlices": 2,
    "StationName": "MRC35049",
    "TaskName": "bourne03",
    "TotalReadoutTime": 0.0576811,
    "TxRefAmp": 218.065,
    "WipMemBlock": "5889e9d5-667b-4afa-ad83-4d2a17245d01||Sequence: R016 ve11c/master r/e634e98; Dec 19 2017 11:00:25 by eja",
    "dataset": "<unset>",
    "dcmmeta_affine": [
      [
        -1.9933615922927856,
        -0.11807823181152344,
        -0.11210215091705322,
        111.29840850830078
      ],
      [
        -0.10093715041875839,
        1.9766907691955566,
        -0.28723716735839844,
        -71.32392883300781
      ],
      [
        -0.1277538686990738,
        0.2806261479854584,
        1.9760891199111938,
        -41.859642028808594
      ],
      [
        0.0,
        0.0,
        0.0,
        1.0
      ]
    ],
    "dcmmeta_reorient_transform": [
      [
        0.0,
        -1.0,
        0.0,
        103.0
      ],
      [
        1.0,
        0.0,
        0.0,
        0.0
      ],
      [
        0.0,
        0.0,
        1.0,
        0.0
      ],
      [
        0.0,
        0.0,
        0.0,
        1.0
      ]
    ],
    "dcmmeta_shape": [
      104,
      104,
      60,
      406
    ],
    "dcmmeta_slice_dim": 2,
    "dcmmeta_version": 0.6,
    "global": {
      "const": {
        "AcquisitionMatrix": [
          104,
          0,
          0,
          104
        ],
        "AngioFlag": "N",
        "BitsAllocated": 16,
        "BitsStored": 16,
        "BodyPartExamined": "BRAIN",
        "Columns": 832,
        "EchoNumbers": 1,
        "EchoTime": 37.0,
        "EchoTrainLength": 104,
        "FlipAngle": 52.0,
        "HighBit": 15,
        "ImageOrientationPatient": [
          0.9966808214368,
          0.0504685763067,
          -0.0638769362575,
          -0.0590391154268,
          0.98834539796996,
          -0.1403130683908
        ],
        "ImagePositionPatient": [
          -781.73951385648,
          -888.53179967252,
          135.69517352799
        ],
        "ImageType": [
          "ORIGINAL",
          "PRIMARY",
          "M",
          "MB",
          "ND",
          "MOSAIC"
        ],
        "ImagedNucleus": "1H",
        "ImagingFrequency": 123.259197,
        "InPlanePhaseEncodingDirection": "COL",
        "MRAcquisitionType": "2D",
        "MagneticFieldStrength": 3.0,
        "Manufacturer": "SIEMENS",
        "ManufacturerModelName": "Prisma_fit",
        "Modality": "MR",
        "NumberOfAverages": 1.0,
        "NumberOfPhaseEncodingSteps": 104,
        "PercentPhaseFieldOfView": 100.0,
        "PercentSampling": 100.0,
        "PerformedProcedureStepStartTime": "113517.107000",
        "PhotometricInterpretation": "MONOCHROME2",
        "PixelBandwidth": 2290.0,
        "PixelRepresentation": 0,
        "PixelSpacing": [
          2.0,
          2.0
        ],
        "ProtocolName": "func_task-bourne3",
        "RepetitionTime": 1490.0,
        "Rows": 832,
        "SAR": 0.03307342212419,
        "SamplesPerPixel": 1,
        "ScanOptions": "FS",
        "ScanningSequence": "EP",
        "SequenceName": "epfid2d1_104",
        "SequenceVariant": [
          "SK",
          "SS"
        ],
        "SeriesDescription": "func_task-bourne3",
        "SeriesNumber": 9,
        "SeriesTime": "115420.659000",
        "SliceLocation": -37.354144434763,
        "SliceThickness": 2.0,
        "SmallestImagePixelValue": 0,
        "SoftwareVersions": "syngo MR E11",
        "SpacingBetweenSlices": 2.0000000439718,
        "SpecificCharacterSet": "ISO_IR 100",
        "StudyID": "1",
        "StudyTime": "113517.053000",
        "TransmitCoilName": "Body",
        "VariableFlipAngleFlag": "N",
        "WindowCenterWidthExplanation": "Algo1",
        "dBdt": 0.0
      },
      "slices": {}
    },
    "modality": "bold",
    "session_id": "008",
    "subject_id": "04",
    "task_id": "bourne03",
    "time": {
      "samples": {
        "AcquisitionNumber": [
          1,
          2,
          3,
          4,
          5,
          6,
          7,
          8,
          9,
          10,
          11,
          12,
          13,
          14,
          15,
          16,
          17,
          18,
          19,
          20,
          21,
          22,
          23,
          24,
          25,
          26,
          27,
          28,
          29,
          30,
          31,
          32,
          33,
          34,
          35,
          36,
          37,
          38,
          39,
          40,
          41,
          42,
          43,
          44,
          45,
          46,
          47,
          48,
          49,
          50,
          51,
          52,
          53,
          54,
          55,
          56,
          57,
          58,
          59,
          60,
          61,
          62,
          63,
          64,
          65,
          66,
          67,
          68,
          69,
          70,
          71,
          72,
          73,
          74,
          75,
          76,
          77,
          78,
          79,
          80,
          81,
          82,
          83,
          84,
          85,
          86,
          87,
          88,
          89,
          90,
          91,
          92,
          93,
          94,
          95,
          96,
          97,
          98,
          99,
          100,
          101,
          102,
          103,
          104,
          105,
          106,
          107,
          108,
          109,
          110,
          111,
          112,
          113,
          114,
          115,
          116,
          117,
          118,
          119,
          120,
          121,
          122,
          123,
          124,
          125,
          126,
          127,
          128,
          129,
          130,
          131,
          132,
          133,
          134,
          135,
          136,
          137,
          138,
          139,
          140,
          141,
          142,
          143,
          144,
          145,
          146,
          147,
          148,
          149,
          150,
          151,
          152,
          153,
          154,
          155,
          156,
          157,
          158,
          159,
          160,
          161,
          162,
          163,
          164,
          165,
          166,
          167,
          168,
          169,
          170,
          171,
          172,
          173,
          174,
          175,
          176,
          177,
          178,
          179,
          180,
          181,
          182,
          183,
          184,
          185,
          186,
          187,
          188,
          189,
          190,
          191,
          192,
          193,
          194,
          195,
          196,
          197,
          198,
          199,
          200,
          201,
          202,
          203,
          204,
          205,
          206,
          207,
          208,
          209,
          210,
          211,
          212,
          213,
          214,
          215,
          216,
          217,
          218,
          219,
          220,
          221,
          222,
          223,
          224,
          225,
          226,
          227,
          228,
          229,
          230,
          231,
          232,
          233,
          234,
          235,
          236,
          237,
          238,
          239,
          240,
          241,
          242,
          243,
          244,
          245,
          246,
          247,
          248,
          249,
          250,
          251,
          252,
          253,
          254,
          255,
          256,
          257,
          258,
          259,
          260,
          261,
          262,
          263,
          264,
          265,
          266,
          267,
          268,
          269,
          270,
          271,
          272,
          273,
          274,
          275,
          276,
          277,
          278,
          279,
          280,
          281,
          282,
          283,
          284,
          285,
          286,
          287,
          288,
          289,
          290,
          291,
          292,
          293,
          294,
          295,
          296,
          297,
          298,
          299,
          300,
          301,
          302,
          303,
          304,
          305,
          306,
          307,
          308,
          309,
          310,
          311,
          312,
          313,
          314,
          315,
          316,
          317,
          318,
          319,
          320,
          321,
          322,
          323,
          324,
          325,
          326,
          327,
          328,
          329,
          330,
          331,
          332,
          333,
          334,
          335,
          336,
          337,
          338,
          339,
          340,
          341,
          342,
          343,
          344,
          345,
          346,
          347,
          348,
          349,
          350,
          351,
          352,
          353,
          354,
          355,
          356,
          357,
          358,
          359,
          360,
          361,
          362,
          363,
          364,
          365,
          366,
          367,
          368,
          369,
          370,
          371,
          372,
          373,
          374,
          375,
          376,
          377,
          378,
          379,
          380,
          381,
          382,
          383,
          384,
          385,
          386,
          387,
          388,
          389,
          390,
          391,
          392,
          393,
          394,
          395,
          396,
          397,
          398,
          399,
          400,
          401,
          402,
          403,
          404,
          405,
          406
        ],
        "AcquisitionTime": [
          "115252.910000",
          "115254.400000",
          "115255.890000",
          "115257.380000",
          "115258.870000",
          "115300.360000",
          "115301.850000",
          "115303.340000",
          "115304.830000",
          "115306.320000",
          "115307.810000",
          "115309.300000",
          "115310.790000",
          "115312.280000",
          "115313.770000",
          "115315.260000",
          "115316.750000",
          "115318.240000",
          "115319.730000",
          "115321.220000",
          "115322.710000",
          "115324.200000",
          "115325.690000",
          "115327.180000",
          "115328.670000",
          "115330.160000",
          "115331.650000",
          "115333.140000",
          "115334.630000",
          "115336.120000",
          "115337.610000",
          "115339.100000",
          "115340.590000",
          "115342.080000",
          "115343.570000",
          "115345.060000",
          "115346.550000",
          "115348.040000",
          "115349.530000",
          "115351.020000",
          "115352.510000",
          "115354.000000",
          "115355.490000",
          "115356.980000",
          "115358.470000",
          "115359.960000",
          "115401.450000",
          "115402.940000",
          "115404.430000",
          "115405.920000",
          "115407.410000",
          "115408.900000",
          "115410.390000",
          "115411.880000",
          "115413.370000",
          "115414.860000",
          "115416.350000",
          "115417.840000",
          "115419.330000",
          "115420.820000",
          "115422.310000",
          "115423.800000",
          "115425.290000",
          "115426.780000",
          "115428.270000",
          "115429.760000",
          "115431.250000",
          "115432.740000",
          "115434.230000",
          "115435.720000",
          "115437.210000",
          "115438.700000",
          "115440.190000",
          "115441.680000",
          "115443.170000",
          "115444.660000",
          "115446.150000",
          "115447.640000",
          "115449.130000",
          "115450.620000",
          "115452.110000",
          "115453.600000",
          "115455.090000",
          "115456.580000",
          "115458.070000",
          "115459.560000",
          "115501.050000",
          "115502.540000",
          "115504.030000",
          "115505.520000",
          "115507.010000",
          "115508.500000",
          "115509.990000",
          "115511.480000",
          "115512.970000",
          "115514.460000",
          "115515.950000",
          "115517.440000",
          "115518.930000",
          "115520.420000",
          "115521.910000",
          "115523.400000",
          "115524.890000",
          "115526.380000",
          "115527.870000",
          "115529.360000",
          "115530.850000",
          "115532.340000",
          "115533.830000",
          "115535.320000",
          "115536.810000",
          "115538.300000",
          "115539.790000",
          "115541.280000",
          "115542.770000",
          "115544.260000",
          "115545.750000",
          "115547.240000",
          "115548.730000",
          "115550.220000",
          "115551.710000",
          "115553.200000",
          "115554.690000",
          "115556.180000",
          "115557.670000",
          "115559.160000",
          "115600.650000",
          "115602.140000",
          "115603.630000",
          "115605.120000",
          "115606.610000",
          "115608.100000",
          "115609.590000",
          "115611.080000",
          "115612.570000",
          "115614.060000",
          "115615.550000",
          "115617.040000",
          "115618.530000",
          "115620.020000",
          "115621.510000",
          "115623.000000",
          "115624.490000",
          "115625.980000",
          "115627.470000",
          "115628.960000",
          "115630.450000",
          "115631.940000",
          "115633.430000",
          "115634.920000",
          "115636.410000",
          "115637.900000",
          "115639.390000",
          "115640.880000",
          "115642.370000",
          "115643.860000",
          "115645.350000",
          "115646.840000",
          "115648.330000",
          "115649.820000",
          "115651.310000",
          "115652.800000",
          "115654.290000",
          "115655.780000",
          "115657.270000",
          "115658.760000",
          "115700.250000",
          "115701.740000",
          "115703.230000",
          "115704.720000",
          "115706.210000",
          "115707.700000",
          "115709.190000",
          "115710.680000",
          "115712.170000",
          "115713.660000",
          "115715.150000",
          "115716.640000",
          "115718.130000",
          "115719.620000",
          "115721.110000",
          "115722.600000",
          "115724.090000",
          "115725.580000",
          "115727.070000",
          "115728.560000",
          "115730.050000",
          "115731.540000",
          "115733.030000",
          "115734.520000",
          "115736.010000",
          "115737.500000",
          "115738.990000",
          "115740.480000",
          "115741.970000",
          "115743.460000",
          "115744.950000",
          "115746.440000",
          "115747.930000",
          "115749.420000",
          "115750.910000",
          "115752.400000",
          "115753.890000",
          "115755.380000",
          "115756.870000",
          "115758.360000",
          "115759.850000",
          "115801.340000",
          "115802.830000",
          "115804.320000",
          "115805.810000",
          "115807.300000",
          "115808.790000",
          "115810.280000",
          "115811.770000",
          "115813.260000",
          "115814.750000",
          "115816.240000",
          "115817.730000",
          "115819.220000",
          "115820.710000",
          "115822.200000",
          "115823.690000",
          "115825.180000",
          "115826.670000",
          "115828.160000",
          "115829.650000",
          "115831.140000",
          "115832.630000",
          "115834.120000",
          "115835.610000",
          "115837.100000",
          "115838.590000",
          "115840.080000",
          "115841.570000",
          "115843.060000",
          "115844.550000",
          "115846.040000",
          "115847.530000",
          "115849.020000",
          "115850.510000",
          "115852.000000",
          "115853.490000",
          "115854.980000",
          "115856.470000",
          "115857.960000",
          "115859.450000",
          "115900.940000",
          "115902.430000",
          "115903.920000",
          "115905.410000",
          "115906.900000",
          "115908.390000",
          "115909.880000",
          "115911.370000",
          "115912.860000",
          "115914.350000",
          "115915.840000",
          "115917.330000",
          "115918.820000",
          "115920.310000",
          "115921.800000",
          "115923.290000",
          "115924.780000",
          "115926.270000",
          "115927.760000",
          "115929.250000",
          "115930.740000",
          "115932.230000",
          "115933.720000",
          "115935.210000",
          "115936.700000",
          "115938.190000",
          "115939.680000",
          "115941.170000",
          "115942.660000",
          "115944.150000",
          "115945.640000",
          "115947.130000",
          "115948.620000",
          "115950.110000",
          "115951.600000",
          "115953.090000",
          "115954.580000",
          "115956.070000",
          "115957.560000",
          "115959.050000",
          "120000.540000",
          "120002.030000",
          "120003.520000",
          "120005.010000",
          "120006.500000",
          "120007.990000",
          "120009.480000",
          "120010.970000",
          "120012.460000",
          "120013.950000",
          "120015.440000",
          "120016.930000",
          "120018.420000",
          "120019.910000",
          "120021.400000",
          "120022.890000",
          "120024.380000",
          "120025.870000",
          "120027.360000",
          "120028.850000",
          "120030.340000",
          "120031.830000",
          "120033.320000",
          "120034.810000",
          "120036.300000",
          "120037.790000",
          "120039.280000",
          "120040.770000",
          "120042.260000",
          "120043.750000",
          "120045.240000",
          "120046.730000",
          "120048.220000",
          "120049.710000",
          "120051.200000",
          "120052.690000",
          "120054.180000",
          "120055.670000",
          "120057.160000",
          "120058.650000",
          "120100.140000",
          "120101.630000",
          "120103.120000",
          "120104.610000",
          "120106.100000",
          "120107.590000",
          "120109.080000",
          "120110.570000",
          "120112.060000",
          "120113.550000",
          "120115.040000",
          "120116.530000",
          "120118.020000",
          "120119.510000",
          "120121.000000",
          "120122.490000",
          "120123.980000",
          "120125.470000",
          "120126.960000",
          "120128.450000",
          "120129.940000",
          "120131.430000",
          "120132.920000",
          "120134.410000",
          "120135.900000",
          "120137.390000",
          "120138.880000",
          "120140.370000",
          "120141.860000",
          "120143.350000",
          "120144.840000",
          "120146.330000",
          "120147.820000",
          "120149.310000",
          "120150.800000",
          "120152.290000",
          "120153.780000",
          "120155.270000",
          "120156.760000",
          "120158.250000",
          "120159.740000",
          "120201.230000",
          "120202.720000",
          "120204.210000",
          "120205.700000",
          "120207.190000",
          "120208.680000",
          "120210.170000",
          "120211.660000",
          "120213.150000",
          "120214.640000",
          "120216.130000",
          "120217.620000",
          "120219.110000",
          "120220.600000",
          "120222.090000",
          "120223.580000",
          "120225.070000",
          "120226.560000",
          "120228.050000",
          "120229.540000",
          "120231.030000",
          "120232.520000",
          "120234.010000",
          "120235.500000",
          "120236.990000",
          "120238.480000",
          "120239.970000",
          "120241.460000",
          "120242.950000",
          "120244.440000",
          "120245.930000",
          "120247.420000",
          "120248.910000",
          "120250.400000",
          "120251.890000",
          "120253.380000",
          "120254.870000",
          "120256.360000"
        ],
        "ContentTime": [
          "115420.661000",
          "115420.665000",
          "115420.668000",
          "115420.670000",
          "115420.676000",
          "115420.679000",
          "115420.682000",
          "115420.685000",
          "115420.688000",
          "115420.691000",
          "115420.694000",
          "115420.696000",
          "115420.699000",
          "115420.702000",
          "115420.705000",
          "115420.708000",
          "115420.711000",
          "115420.714000",
          "115420.717000",
          "115420.719000",
          "115420.722000",
          "115420.729000",
          "115420.732000",
          "115420.735000",
          "115420.738000",
          "115420.741000",
          "115420.743000",
          "115420.746000",
          "115420.749000",
          "115420.752000",
          "115420.755000",
          "115420.758000",
          "115420.761000",
          "115420.763000",
          "115440.623000",
          "115440.626000",
          "115440.629000",
          "115440.632000",
          "115440.634000",
          "115440.637000",
          "115440.640000",
          "115440.643000",
          "115440.646000",
          "115440.649000",
          "115440.652000",
          "115440.654000",
          "115440.657000",
          "115440.660000",
          "115440.663000",
          "115440.666000",
          "115440.669000",
          "115440.671000",
          "115440.674000",
          "115440.677000",
          "115500.623000",
          "115500.629000",
          "115500.632000",
          "115500.635000",
          "115500.638000",
          "115500.641000",
          "115500.644000",
          "115500.647000",
          "115500.649000",
          "115500.652000",
          "115500.655000",
          "115500.658000",
          "115500.661000",
          "115500.664000",
          "115500.667000",
          "115500.669000",
          "115500.672000",
          "115500.675000",
          "115500.678000",
          "115500.681000",
          "115520.623000",
          "115520.626000",
          "115520.629000",
          "115520.632000",
          "115520.635000",
          "115520.639000",
          "115520.642000",
          "115520.645000",
          "115520.648000",
          "115520.651000",
          "115520.654000",
          "115520.657000",
          "115520.660000",
          "115520.663000",
          "115520.666000",
          "115520.669000",
          "115520.672000",
          "115520.674000",
          "115520.677000",
          "115520.680000",
          "115600.623000",
          "115600.626000",
          "115600.629000",
          "115600.632000",
          "115600.635000",
          "115600.638000",
          "115600.640000",
          "115600.643000",
          "115600.646000",
          "115600.649000",
          "115600.652000",
          "115600.655000",
          "115600.657000",
          "115600.660000",
          "115600.663000",
          "115600.666000",
          "115600.669000",
          "115600.672000",
          "115600.675000",
          "115600.677000",
          "115600.680000",
          "115600.683000",
          "115600.686000",
          "115600.689000",
          "115600.692000",
          "115600.694000",
          "115600.697000",
          "115600.700000",
          "115600.703000",
          "115600.706000",
          "115600.709000",
          "115640.624000",
          "115640.627000",
          "115640.630000",
          "115640.633000",
          "115640.659000",
          "115640.662000",
          "115640.666000",
          "115640.668000",
          "115640.671000",
          "115640.674000",
          "115640.677000",
          "115640.680000",
          "115640.683000",
          "115640.686000",
          "115640.688000",
          "115640.691000",
          "115640.694000",
          "115640.697000",
          "115640.700000",
          "115640.703000",
          "115640.706000",
          "115640.708000",
          "115640.711000",
          "115640.714000",
          "115640.717000",
          "115640.720000",
          "115640.723000",
          "115720.623000",
          "115720.626000",
          "115720.629000",
          "115720.632000",
          "115720.635000",
          "115720.637000",
          "115720.640000",
          "115720.643000",
          "115720.646000",
          "115720.649000",
          "115720.652000",
          "115720.663000",
          "115720.666000",
          "115720.669000",
          "115720.672000",
          "115720.674000",
          "115720.677000",
          "115720.680000",
          "115720.683000",
          "115720.686000",
          "115720.689000",
          "115720.692000",
          "115720.694000",
          "115720.697000",
          "115720.700000",
          "115720.703000",
          "115720.706000",
          "115800.623000",
          "115800.626000",
          "115800.629000",
          "115800.632000",
          "115800.635000",
          "115800.637000",
          "115800.640000",
          "115800.643000",
          "115800.646000",
          "115800.649000",
          "115800.652000",
          "115800.655000",
          "115800.658000",
          "115800.660000",
          "115800.663000",
          "115800.666000",
          "115800.669000",
          "115800.672000",
          "115800.675000",
          "115800.678000",
          "115800.681000",
          "115800.684000",
          "115800.686000",
          "115800.689000",
          "115800.692000",
          "115800.695000",
          "115800.698000",
          "115840.623000",
          "115840.626000",
          "115840.629000",
          "115840.632000",
          "115840.635000",
          "115840.637000",
          "115840.640000",
          "115840.643000",
          "115840.646000",
          "115840.649000",
