{
  "aor": 0.001263530864197531,
  "aqi": 0.005623162024691358,
  "bids_meta": {
    "AcquisitionMatrixPE": 104,
    "AcquisitionNumber": 1,
    "AcquisitionTime": "12:37:59.575000",
    "BandwidthPerPixelPhaseEncode": 17.17,
    "BaseResolution": 104,
    "BodyPartExamined": "BRAIN",
    "CogAtlasID": "trm_4c898da401420",
    "CoilString": "HC1-7;NC1_2",
    "ConsistencyInfo": "N4_VE11C_LATEST_20160120",
    "ConversionSoftware": "dcm2niix",
    "ConversionSoftwareVersion": "v1.0.20190720  (JP2:OpenJPEG) GCC7.3.0",
    "DerivedVendorReportedEchoSpacing": 0.000560011,
    "DeviceSerialNumber": "167006",
    "DwellTime": 2.1e-06,
    "EchoTime": 0.037,
    "EchoTrainLength": 104,
    "EffectiveEchoSpacing": 0.000560011,
    "FlipAngle": 52,
    "ImageComments": "Unaliased_MB4_PE3_LB",
    "ImageOrientationPatientDICOM": [
      0.996681,
      0.0504686,
      -0.0638769,
      -0.0590391,
      0.988345,
      -0.140313
    ],
    "ImageType": [
      "ORIGINAL",
      "PRIMARY",
      "M",
      "MB",
      "ND",
      "MOSAIC"
    ],
    "ImagingFrequency": 123.259,
    "InPlanePhaseEncodingDirectionDICOM": "COL",
    "InstitutionAddress": "Chemin_Queen-Mary_4565_Montreal_District_CA_H3W_1W5",
    "InstitutionName": "IUGM",
    "InstitutionalDepartmentName": "Department",
    "MRAcquisitionType": "2D",
    "MagneticFieldStrength": 3,
    "Manufacturer": "Siemens",
    "ManufacturersModelName": "Prisma_fit",
    "Modality": "MR",
    "MultibandAccelerationFactor": 4,
    "PartialFourier": 1,
    "PatientPosition": "HFS",
    "PercentPhaseFOV": 100,
    "PhaseEncodingDirection": "j-",
    "PhaseEncodingSteps": 104,
    "PhaseResolution": 1,
    "PixelBandwidth": 2290,
    "ProcedureStepDescription": "video5_generic",
    "ProtocolName": "func_task-bourne7",
    "PulseSequenceDetails": "%CustomerSeq%_cmrr_mbep2d_bold",
    "ReceiveCoilActiveElements": "HC1-7;NC1,2",
    "ReceiveCoilName": "HeadNeck_64",
    "ReconMatrixPE": 104,
    "RepetitionTime": 1.49,
    "SAR": 0.033073,
    "ScanOptions": "FS",
    "ScanningSequence": "EP",
    "SequenceName": "epfid2d1_104",
    "SequenceVariant": "SK_SS",
    "SeriesDescription": "func_task-bourne7",
    "SeriesNumber": 17,
    "ShimSetting": [
      599,
      -7263,
      -8829,
      578,
      -48,
      -336,
      19,
      48
    ],
    "SliceThickness": 2,
    "SliceTiming": [
      0,
      0.785,
      0.0975,
      0.8825,
      0.1975,
      0.98,
      0.295,
      1.0775,
      0.3925,
      1.1775,
      0.49,
      1.275,
      0.5875,
      1.3725,
      0.6875,
      0,
      0.785,
      0.0975,
      0.8825,
      0.1975,
      0.98,
      0.295,
      1.0775,
      0.3925,
      1.1775,
      0.49,
      1.275,
      0.5875,
      1.3725,
      0.6875,
      0,
      0.785,
      0.0975,
      0.8825,
      0.1975,
      0.98,
      0.295,
      1.0775,
      0.3925,
      1.1775,
      0.49,
      1.275,
      0.5875,
      1.3725,
      0.6875,
      0,
      0.785,
      0.0975,
      0.8825,
      0.1975,
      0.98,
      0.295,
      1.0775,
      0.3925,
      1.1775,
      0.49,
      1.275,
      0.5875,
      1.3725,
      0.6875
    ],
    "SoftwareVersions": "syngo_MR_E11",
    "SpacingBetweenSlices": 2,
    "StationName": "MRC35049",
    "TaskName": "bourne07",
    "TotalReadoutTime": 0.0576811,
    "TxRefAmp": 218.065,
    "WipMemBlock": "faccf9e4-ea56-4e0e-a202-2becfd9da11f||Sequence: R016 ve11c/master r/e634e98; Dec 19 2017 11:00:25 by eja",
    "dataset": "<unset>",
    "dcmmeta_affine": [
      [
        -1.9933615922927856,
        -0.11807823181152344,
        -0.11210215091705322,
        111.29840850830078
      ],
      [
        -0.10093715041875839,
        1.9766907691955566,
        -0.28723716735839844,
        -71.32392883300781
      ],
      [
        -0.1277538686990738,
        0.2806261479854584,
        1.9760891199111938,
        -41.859642028808594
      ],
      [
        0.0,
        0.0,
        0.0,
        1.0
      ]
    ],
    "dcmmeta_reorient_transform": [
      [
        0.0,
        -1.0,
        0.0,
        103.0
      ],
      [
        1.0,
        0.0,
        0.0,
        0.0
      ],
      [
        0.0,
        0.0,
        1.0,
        0.0
      ],
      [
        0.0,
        0.0,
        0.0,
        1.0
      ]
    ],
    "dcmmeta_shape": [
      104,
      104,
      60,
      405
    ],
    "dcmmeta_slice_dim": 2,
    "dcmmeta_version": 0.6,
    "global": {
      "const": {
        "AcquisitionMatrix": [
          104,
          0,
          0,
          104
        ],
        "AngioFlag": "N",
        "BitsAllocated": 16,
        "BitsStored": 16,
        "BodyPartExamined": "BRAIN",
        "Columns": 832,
        "EchoNumbers": 1,
        "EchoTime": 37.0,
        "EchoTrainLength": 104,
        "FlipAngle": 52.0,
        "HighBit": 15,
        "ImageOrientationPatient": [
          0.9966808214368,
          0.0504685763067,
          -0.0638769362575,
          -0.0590391154268,
          0.98834539796996,
          -0.1403130683908
        ],
        "ImagePositionPatient": [
          -781.73951385648,
          -888.53179967252,
          135.69517352799
        ],
        "ImageType": [
          "ORIGINAL",
          "PRIMARY",
          "M",
          "MB",
          "ND",
          "MOSAIC"
        ],
        "ImagedNucleus": "1H",
        "ImagingFrequency": 123.259218,
        "InPlanePhaseEncodingDirection": "COL",
        "MRAcquisitionType": "2D",
        "MagneticFieldStrength": 3.0,
        "Manufacturer": "SIEMENS",
        "ManufacturerModelName": "Prisma_fit",
        "Modality": "MR",
        "NumberOfAverages": 1.0,
        "NumberOfPhaseEncodingSteps": 104,
        "PercentPhaseFieldOfView": 100.0,
        "PercentSampling": 100.0,
        "PerformedProcedureStepStartTime": "113517.107000",
        "PhotometricInterpretation": "MONOCHROME2",
        "PixelBandwidth": 2290.0,
        "PixelRepresentation": 0,
        "PixelSpacing": [
          2.0,
          2.0
        ],
        "ProtocolName": "func_task-bourne7",
        "RepetitionTime": 1490.0,
        "Rows": 832,
        "SAR": 0.0330730208768,
        "SamplesPerPixel": 1,
        "ScanOptions": "FS",
        "ScanningSequence": "EP",
        "SequenceName": "epfid2d1_104",
        "SequenceVariant": [
          "SK",
          "SS"
        ],
        "SeriesDescription": "func_task-bourne7",
        "SeriesNumber": 17,
        "SeriesTime": "123920.881000",
        "SliceLocation": -37.354144434763,
        "SliceThickness": 2.0,
        "SmallestImagePixelValue": 0,
        "SoftwareVersions": "syngo MR E11",
        "SpacingBetweenSlices": 2.0000000439718,
        "SpecificCharacterSet": "ISO_IR 100",
        "StudyID": "1",
        "StudyTime": "113517.053000",
        "TransmitCoilName": "Body",
        "VariableFlipAngleFlag": "N",
        "WindowCenterWidthExplanation": "Algo1",
        "dBdt": 0.0
      },
      "slices": {}
    },
    "modality": "bold",
    "session_id": "008",
    "subject_id": "04",
    "task_id": "bourne07",
    "time": {
      "samples": {
        "AcquisitionNumber": [
          1,
          2,
          3,
          4,
          5,
          6,
          7,
          8,
          9,
          10,
          11,
          12,
          13,
          14,
          15,
          16,
          17,
          18,
          19,
          20,
          21,
          22,
          23,
          24,
          25,
          26,
          27,
          28,
          29,
          30,
          31,
          32,
          33,
          34,
          35,
          36,
          37,
          38,
          39,
          40,
          41,
          42,
          43,
          44,
          45,
          46,
          47,
          48,
          49,
          50,
          51,
          52,
          53,
          54,
          55,
          56,
          57,
          58,
          59,
          60,
          61,
          62,
          63,
          64,
          65,
          66,
          67,
          68,
          69,
          70,
          71,
          72,
          73,
          74,
          75,
          76,
          77,
          78,
          79,
          80,
          81,
          82,
          83,
          84,
          85,
          86,
          87,
          88,
          89,
          90,
          91,
          92,
          93,
          94,
          95,
          96,
          97,
          98,
          99,
          100,
          101,
          102,
          103,
          104,
          105,
          106,
          107,
          108,
          109,
          110,
          111,
          112,
          113,
          114,
          115,
          116,
          117,
          118,
          119,
          120,
          121,
          122,
          123,
          124,
          125,
          126,
          127,
          128,
          129,
          130,
          131,
          132,
          133,
          134,
          135,
          136,
          137,
          138,
          139,
          140,
          141,
          142,
          143,
          144,
          145,
          146,
          147,
          148,
          149,
          150,
          151,
          152,
          153,
          154,
          155,
          156,
          157,
          158,
          159,
          160,
          161,
          162,
          163,
          164,
          165,
          166,
          167,
          168,
          169,
          170,
          171,
          172,
          173,
          174,
          175,
          176,
          177,
          178,
          179,
          180,
          181,
          182,
          183,
          184,
          185,
          186,
          187,
          188,
          189,
          190,
          191,
          192,
          193,
          194,
          195,
          196,
          197,
          198,
          199,
          200,
          201,
          202,
          203,
          204,
          205,
          206,
          207,
          208,
          209,
          210,
          211,
          212,
          213,
          214,
          215,
          216,
          217,
          218,
          219,
          220,
          221,
          222,
          223,
          224,
          225,
          226,
          227,
          228,
          229,
          230,
          231,
          232,
          233,
          234,
          235,
          236,
          237,
          238,
          239,
          240,
          241,
          242,
          243,
          244,
          245,
          246,
          247,
          248,
          249,
          250,
          251,
          252,
          253,
          254,
          255,
          256,
          257,
          258,
          259,
          260,
          261,
          262,
          263,
          264,
          265,
          266,
          267,
          268,
          269,
          270,
          271,
          272,
          273,
          274,
          275,
          276,
          277,
          278,
          279,
          280,
          281,
          282,
          283,
          284,
          285,
          286,
          287,
          288,
          289,
          290,
          291,
          292,
          293,
          294,
          295,
          296,
          297,
          298,
          299,
          300,
          301,
          302,
          303,
          304,
          305,
          306,
          307,
          308,
          309,
          310,
          311,
          312,
          313,
          314,
          315,
          316,
          317,
          318,
          319,
          320,
          321,
          322,
          323,
          324,
          325,
          326,
          327,
          328,
          329,
          330,
          331,
          332,
          333,
          334,
          335,
          336,
          337,
          338,
          339,
          340,
          341,
          342,
          343,
          344,
          345,
          346,
          347,
          348,
          349,
          350,
          351,
          352,
          353,
          354,
          355,
          356,
          357,
          358,
          359,
          360,
          361,
          362,
          363,
          364,
          365,
          366,
          367,
          368,
          369,
          370,
          371,
          372,
          373,
          374,
          375,
          376,
          377,
          378,
          379,
          380,
          381,
          382,
          383,
          384,
          385,
          386,
          387,
          388,
          389,
          390,
          391,
          392,
          393,
          394,
          395,
          396,
          397,
          398,
          399,
          400,
          401,
          402,
          403,
          404,
          405
        ],
        "AcquisitionTime": [
          "123759.575000",
          "123801.065000",
          "123802.555000",
          "123804.045000",
          "123805.535000",
          "123807.025000",
          "123808.515000",
          "123810.005000",
          "123811.495000",
          "123812.985000",
          "123814.475000",
          "123815.965000",
          "123817.455000",
          "123818.945000",
          "123820.435000",
          "123821.925000",
          "123823.415000",
          "123824.905000",
          "123826.395000",
          "123827.885000",
          "123829.375000",
          "123830.865000",
          "123832.355000",
          "123833.845000",
          "123835.335000",
          "123836.825000",
          "123838.315000",
          "123839.805000",
          "123841.295000",
          "123842.785000",
          "123844.275000",
          "123845.765000",
          "123847.255000",
          "123848.745000",
          "123850.235000",
          "123851.725000",
          "123853.215000",
          "123854.705000",
          "123856.195000",
          "123857.685000",
          "123859.175000",
          "123900.665000",
          "123902.155000",
          "123903.645000",
          "123905.135000",
          "123906.625000",
          "123908.115000",
          "123909.605000",
          "123911.095000",
          "123912.585000",
          "123914.075000",
          "123915.565000",
          "123917.055000",
          "123918.545000",
          "123920.035000",
          "123921.525000",
          "123923.015000",
          "123924.505000",
          "123925.995000",
          "123927.485000",
          "123928.975000",
          "123930.465000",
          "123931.955000",
          "123933.445000",
          "123934.935000",
          "123936.425000",
          "123937.915000",
          "123939.405000",
          "123940.895000",
          "123942.385000",
          "123943.875000",
          "123945.365000",
          "123946.855000",
          "123948.345000",
          "123949.835000",
          "123951.325000",
          "123952.815000",
          "123954.305000",
          "123955.795000",
          "123957.285000",
          "123958.775000",
          "124000.265000",
          "124001.755000",
          "124003.245000",
          "124004.735000",
          "124006.225000",
          "124007.715000",
          "124009.205000",
          "124010.695000",
          "124012.185000",
          "124013.675000",
          "124015.165000",
          "124016.655000",
          "124018.145000",
          "124019.635000",
          "124021.125000",
          "124022.615000",
          "124024.105000",
          "124025.595000",
          "124027.085000",
          "124028.575000",
          "124030.065000",
          "124031.555000",
          "124033.045000",
          "124034.535000",
          "124036.025000",
          "124037.515000",
          "124039.005000",
          "124040.495000",
          "124041.985000",
          "124043.475000",
          "124044.965000",
          "124046.455000",
          "124047.945000",
          "124049.435000",
          "124050.925000",
          "124052.415000",
          "124053.905000",
          "124055.395000",
          "124056.885000",
          "124058.375000",
          "124059.865000",
          "124101.355000",
          "124102.845000",
          "124104.335000",
          "124105.825000",
          "124107.315000",
          "124108.805000",
          "124110.295000",
          "124111.785000",
          "124113.275000",
          "124114.765000",
          "124116.255000",
          "124117.745000",
          "124119.235000",
          "124120.725000",
          "124122.215000",
          "124123.705000",
          "124125.195000",
          "124126.685000",
          "124128.175000",
          "124129.665000",
          "124131.155000",
          "124132.645000",
          "124134.135000",
          "124135.625000",
          "124137.115000",
          "124138.605000",
          "124140.095000",
          "124141.585000",
          "124143.075000",
          "124144.565000",
          "124146.055000",
          "124147.545000",
          "124149.035000",
          "124150.525000",
          "124152.015000",
          "124153.505000",
          "124154.995000",
          "124156.485000",
          "124157.975000",
          "124159.465000",
          "124200.955000",
          "124202.445000",
          "124203.935000",
          "124205.425000",
          "124206.915000",
          "124208.405000",
          "124209.895000",
          "124211.385000",
          "124212.875000",
          "124214.365000",
          "124215.855000",
          "124217.345000",
          "124218.835000",
          "124220.325000",
          "124221.815000",
          "124223.305000",
          "124224.795000",
          "124226.285000",
          "124227.775000",
          "124229.265000",
          "124230.755000",
          "124232.245000",
          "124233.735000",
          "124235.225000",
          "124236.715000",
          "124238.205000",
          "124239.695000",
          "124241.185000",
          "124242.675000",
          "124244.165000",
          "124245.655000",
          "124247.145000",
          "124248.635000",
          "124250.125000",
          "124251.615000",
          "124253.105000",
          "124254.595000",
          "124256.085000",
          "124257.575000",
          "124259.065000",
          "124300.555000",
          "124302.045000",
          "124303.535000",
          "124305.025000",
          "124306.515000",
          "124308.005000",
          "124309.495000",
          "124310.985000",
          "124312.475000",
          "124313.965000",
          "124315.455000",
          "124316.945000",
          "124318.435000",
          "124319.925000",
          "124321.415000",
          "124322.905000",
          "124324.395000",
          "124325.885000",
          "124327.375000",
          "124328.865000",
          "124330.355000",
          "124331.845000",
          "124333.335000",
          "124334.825000",
          "124336.315000",
          "124337.805000",
          "124339.295000",
          "124340.785000",
          "124342.275000",
          "124343.765000",
          "124345.255000",
          "124346.745000",
          "124348.235000",
          "124349.725000",
          "124351.215000",
          "124352.705000",
          "124354.195000",
          "124355.685000",
          "124357.175000",
          "124358.665000",
          "124400.155000",
          "124401.645000",
          "124403.135000",
          "124404.625000",
          "124406.115000",
          "124407.605000",
          "124409.095000",
          "124410.585000",
          "124412.075000",
          "124413.565000",
          "124415.055000",
          "124416.545000",
          "124418.035000",
          "124419.525000",
          "124421.015000",
          "124422.505000",
          "124423.995000",
          "124425.485000",
          "124426.975000",
          "124428.465000",
          "124429.955000",
          "124431.445000",
          "124432.935000",
          "124434.425000",
          "124435.915000",
          "124437.405000",
          "124438.895000",
          "124440.385000",
          "124441.875000",
          "124443.365000",
          "124444.855000",
          "124446.345000",
          "124447.835000",
          "124449.325000",
          "124450.815000",
          "124452.305000",
          "124453.795000",
          "124455.285000",
          "124456.775000",
          "124458.265000",
          "124459.755000",
          "124501.245000",
          "124502.735000",
          "124504.225000",
          "124505.715000",
          "124507.205000",
          "124508.695000",
          "124510.185000",
          "124511.675000",
          "124513.165000",
          "124514.655000",
          "124516.145000",
          "124517.635000",
          "124519.125000",
          "124520.615000",
          "124522.105000",
          "124523.595000",
          "124525.085000",
          "124526.575000",
          "124528.065000",
          "124529.555000",
          "124531.045000",
          "124532.535000",
          "124534.025000",
          "124535.515000",
          "124537.005000",
          "124538.495000",
          "124539.985000",
          "124541.475000",
          "124542.965000",
          "124544.455000",
          "124545.945000",
          "124547.435000",
          "124548.925000",
          "124550.415000",
          "124551.905000",
          "124553.395000",
          "124554.885000",
          "124556.375000",
          "124557.865000",
          "124559.355000",
          "124600.845000",
          "124602.335000",
          "124603.825000",
          "124605.315000",
          "124606.805000",
          "124608.295000",
          "124609.785000",
          "124611.275000",
          "124612.765000",
          "124614.255000",
          "124615.745000",
          "124617.235000",
          "124618.725000",
          "124620.215000",
          "124621.705000",
          "124623.195000",
          "124624.685000",
          "124626.175000",
          "124627.665000",
          "124629.155000",
          "124630.645000",
          "124632.135000",
          "124633.625000",
          "124635.115000",
          "124636.605000",
          "124638.095000",
          "124639.585000",
          "124641.075000",
          "124642.565000",
          "124644.055000",
          "124645.545000",
          "124647.035000",
          "124648.525000",
          "124650.015000",
          "124651.505000",
          "124652.995000",
          "124654.485000",
          "124655.975000",
          "124657.465000",
          "124658.955000",
          "124700.445000",
          "124701.935000",
          "124703.425000",
          "124704.915000",
          "124706.405000",
          "124707.895000",
          "124709.385000",
          "124710.875000",
          "124712.365000",
          "124713.855000",
          "124715.345000",
          "124716.835000",
          "124718.325000",
          "124719.815000",
          "124721.305000",
          "124722.795000",
          "124724.285000",
          "124725.775000",
          "124727.265000",
          "124728.755000",
          "124730.245000",
          "124731.735000",
          "124733.225000",
          "124734.715000",
          "124736.205000",
          "124737.695000",
          "124739.185000",
          "124740.675000",
          "124742.165000",
          "124743.655000",
          "124745.145000",
          "124746.635000",
          "124748.125000",
          "124749.615000",
          "124751.105000",
          "124752.595000",
          "124754.085000",
          "124755.575000",
          "124757.065000",
          "124758.555000",
          "124800.045000",
          "124801.535000"
        ],
        "ContentTime": [
          "123920.884000",
          "123920.887000",
          "123920.898000",
          "123920.907000",
          "123920.910000",
          "123920.913000",
          "123920.915000",
          "123920.918000",
          "123920.921000",
          "123920.928000",
          "123920.931000",
          "123920.934000",
          "123920.937000",
          "123920.940000",
          "123920.943000",
          "123920.945000",
          "123920.948000",
          "123920.951000",
          "123920.954000",
          "123920.957000",
          "123920.960000",
          "123920.964000",
          "123920.967000",
          "123920.969000",
          "123920.972000",
          "123920.975000",
          "123940.852000",
          "123940.855000",
          "123940.863000",
          "123940.866000",
          "123940.868000",
          "123940.871000",
          "123940.874000",
          "123940.877000",
          "123940.880000",
          "123940.883000",
          "123940.886000",
          "123940.889000",
          "123940.892000",
          "123940.895000",
          "123940.898000",
          "123940.900000",
          "123940.903000",
          "123940.906000",
          "123940.909000",
          "123940.912000",
          "124000.852000",
          "124000.855000",
          "124000.858000",
          "124000.861000",
          "124000.864000",
          "124000.867000",
          "124000.870000",
          "124000.872000",
          "124000.875000",
          "124000.878000",
          "124000.881000",
          "124000.892000",
          "124000.895000",
          "124000.898000",
          "124000.901000",
          "124000.904000",
          "124000.906000",
          "124000.909000",
          "124000.912000",
          "124000.915000",
          "124020.852000",
          "124020.855000",
          "124020.858000",
          "124020.861000",
          "124020.864000",
          "124020.867000",
          "124020.869000",
          "124020.872000",
          "124020.875000",
          "124020.878000",
          "124020.881000",
          "124020.884000",
          "124020.887000",
          "124020.890000",
          "124020.893000",
          "124020.896000",
          "124020.899000",
          "124020.901000",
          "124020.904000",
          "124020.907000",
          "124020.910000",
          "124040.853000",
          "124040.856000",
          "124040.859000",
          "124040.862000",
          "124040.865000",
          "124040.868000",
          "124040.876000",
          "124040.879000",
          "124040.882000",
          "124040.885000",
          "124040.888000",
          "124040.891000",
          "124040.895000",
          "124040.898000",
          "124040.901000",
          "124040.904000",
          "124040.907000",
          "124040.909000",
          "124040.912000",
          "124040.915000",
          "124120.853000",
          "124120.856000",
          "124120.859000",
          "124120.862000",
          "124120.865000",
          "124120.868000",
          "124120.871000",
          "124120.873000",
          "124120.876000",
          "124120.879000",
          "124120.882000",
          "124120.885000",
          "124120.888000",
          "124120.891000",
          "124120.894000",
          "124120.897000",
          "124120.900000",
          "124120.902000",
          "124120.905000",
          "124120.908000",
          "124120.911000",
          "124120.914000",
          "124120.917000",
          "124120.920000",
          "124120.923000",
          "124120.926000",
          "124120.928000",
          "124200.852000",
          "124200.855000",
          "124200.858000",
          "124200.861000",
          "124200.864000",
          "124200.867000",
          "124200.870000",
          "124200.873000",
          "124200.890000",
          "124200.893000",
          "124200.896000",
          "124200.899000",
          "124200.902000",
          "124200.905000",
          "124200.908000",
          "124200.911000",
          "124200.913000",
          "124200.917000",
          "124200.920000",
          "124200.923000",
          "124200.926000",
          "124200.929000",
          "124200.932000",
          "124200.935000",
          "124200.938000",
          "124200.940000",
          "124200.943000",
          "124240.852000",
          "124240.855000",
          "124240.858000",
          "124240.861000",
          "124240.864000",
          "124240.867000",
          "124240.870000",
          "124240.873000",
          "124240.876000",
          "124240.878000",
          "124240.882000",
          "124240.884000",
          "124240.887000",
          "124240.890000",
          "124240.897000",
          "124240.900000",
          "124240.902000",
          "124240.905000",
          "124240.908000",
          "124240.911000",
          "124240.914000",
          "124240.917000",
          "124240.920000",
          "124240.923000",
          "124240.926000",
          "124240.928000",
          "124240.931000",
          "124320.853000",
          "124320.856000",
          "124320.859000",
          "124320.862000",
          "124320.865000",
          "124320.868000",
          "124320.871000",
          "124320.874000",
          "124320.877000",
          "124320.880000",
          "124320.882000",
          "124320.885000",
          "124320.888000",
          "124320.891000",
          "124320.894000",
          "124320.897000",
          "124320.900000",
          "124320.903000",
          "124320.906000",
          "124320.909000",
          "124320.911000",
          "124320.914000",
          "124320.917000",
          "124320.920000",
          "124320.923000",
          "124320.926000",
          "124320.929000",
          "124400.852000",
          "124400.855000",
