{
  "aor": 0.0007602227722772278,
  "aqi": 0.005566598415841584,
  "bids_meta": {
    "AcquisitionMatrixPE": 104,
    "AcquisitionNumber": 1,
    "AcquisitionTime": "18:37:5.910000",
    "BandwidthPerPixelPhaseEncode": 17.17,
    "BaseResolution": 104,
    "BodyPartExamined": "BRAIN",
    "CogAtlasID": "trm_4c898da401420",
    "ConsistencyInfo": "N4_VE11C_LATEST_20160120",
    "ConversionSoftware": "dcm2niix",
    "ConversionSoftwareVersion": "v1.0.20171215 (OpenJPEG build) GCC7.3.0",
    "DerivedVendorReportedEchoSpacing": 0.000560011,
    "DeviceSerialNumber": "167006",
    "DwellTime": 2.1e-06,
    "EchoTime": 0.037,
    "EchoTrainLength": 104,
    "EffectiveEchoSpacing": 0.000560011,
    "FlipAngle": 52,
    "ImageComments": "Unaliased_MB4_PE3_LB",
    "ImageOrientationPatientDICOM": [
      0.99935,
      0.017497,
      -0.0315272,
      -0.0270416,
      0.942066,
      -0.334336
    ],
    "ImageType": [
      "ORIGINAL",
      "PRIMARY",
      "M",
      "MB",
      "ND",
      "MOSAIC"
    ],
    "InPlanePhaseEncodingDirectionDICOM": "COL",
    "InstitutionAddress": "Chemin_Queen-Mary_4565_Montreal_District_CA_H3W_1W5",
    "InstitutionName": "IUGM",
    "InstitutionalDepartmentName": "Department",
    "MRAcquisitionType": "2D",
    "MagneticFieldStrength": 3,
    "Manufacturer": "Siemens",
    "ManufacturersModelName": "Prisma_fit",
    "Modality": "MR",
    "MultibandAccelerationFactor": 4,
    "PartialFourier": 1,
    "PatientPosition": "HFS",
    "PercentPhaseFOV": 100,
    "PhaseEncodingDirection": "j-",
    "PhaseEncodingSteps": 104,
    "PhaseResolution": 1,
    "PixelBandwidth": 2290,
    "ProcedureStepDescription": "video5_generic",
    "ProtocolName": "func_task-wolf16",
    "PulseSequenceDetails": "%CustomerSeq%_cmrr_mbep2d_bold",
    "ReceiveCoilActiveElements": "HC1-7;NC1,2",
    "ReceiveCoilName": "HeadNeck_64",
    "ReconMatrixPE": 104,
    "RepetitionTime": 1.49,
    "SAR": 0.0337737,
    "ScanOptions": "FS",
    "ScanningSequence": "EP",
    "SequenceName": "epfid2d1_104",
    "SequenceVariant": "SK_SS",
    "SeriesDescription": "func_task-wolf16",
    "SeriesNumber": 15,
    "ShimSetting": [
      614,
      -7223,
      -8877,
      401,
      40,
      -327,
      25,
      23
    ],
    "SliceThickness": 2,
    "SliceTiming": [
      0,
      0.7825,
      0.0975,
      0.8825,
      0.195,
      0.98,
      0.2925,
      1.0775,
      0.3925,
      1.175,
      0.49,
      1.2725,
      0.5875,
      1.3725,
      0.685,
      0,
      0.7825,
      0.0975,
      0.8825,
      0.195,
      0.98,
      0.2925,
      1.0775,
      0.3925,
      1.175,
      0.49,
      1.2725,
      0.5875,
      1.3725,
      0.685,
      0,
      0.7825,
      0.0975,
      0.8825,
      0.195,
      0.98,
      0.2925,
      1.0775,
      0.3925,
      1.175,
      0.49,
      1.2725,
      0.5875,
      1.3725,
      0.685,
      0,
      0.7825,
      0.0975,
      0.8825,
      0.195,
      0.98,
      0.2925,
      1.0775,
      0.3925,
      1.175,
      0.49,
      1.2725,
      0.5875,
      1.3725,
      0.685
    ],
    "SoftwareVersions": "syngo_MR_E11",
    "SpacingBetweenSlices": 2,
    "StationName": "MRC35049",
    "TaskName": "wolf16",
    "TotalReadoutTime": 0.0576811,
    "TxRefAmp": 234.582,
    "dataset": "<unset>",
    "dcmmeta_affine": [
      [
        -1.998699426651001,
        -0.05408322438597679,
        -0.04770173877477646,
        106.69332885742188
      ],
      [
        -0.03499404340982437,
        1.8841321468353271,
        -0.6699413657188416,
        -60.53791427612305
      ],
      [
        -0.06305448710918427,
        0.6686710715293884,
        1.8838531970977783,
        -77.0596694946289
      ],
      [
        0.0,
        0.0,
        0.0,
        1.0
      ]
    ],
    "dcmmeta_reorient_transform": [
      [
        0.0,
        -1.0,
        0.0,
        103.0
      ],
      [
        1.0,
        0.0,
        0.0,
        0.0
      ],
      [
        0.0,
        0.0,
        1.0,
        0.0
      ],
      [
        0.0,
        0.0,
        0.0,
        1.0
      ]
    ],
    "dcmmeta_shape": [
      104,
      104,
      60,
      406
    ],
    "dcmmeta_slice_dim": 2,
    "dcmmeta_version": 0.6,
    "global": {
      "const": {
        "AcquisitionMatrix": [
          104,
          0,
          0,
          104
        ],
        "AngioFlag": "N",
        "BitsAllocated": 16,
        "BitsStored": 16,
        "BodyPartExamined": "BRAIN",
        "Columns": 832,
        "EchoNumbers": 1,
        "EchoTime": 37.0,
        "EchoTrainLength": 104,
        "FlipAngle": 52.0,
        "HighBit": 15,
        "ImageOrientationPatient": [
          0.99934973216508,
          0.01749702126836,
          -0.0315272432719,
          -0.0270416126408,
          0.94206607628698,
          -0.3343355486559
        ],
        "ImagePositionPatient": [
          -808.96306963622,
          -832.08963238943,
          258.16156434997
        ],
        "ImageType": [
          "ORIGINAL",
          "PRIMARY",
          "M",
          "MB",
          "ND",
          "MOSAIC"
        ],
        "ImagedNucleus": "1H",
        "ImagingFrequency": 123.259419,
        "InPlanePhaseEncodingDirection": "COL",
        "MRAcquisitionType": "2D",
        "MagneticFieldStrength": 3.0,
        "Manufacturer": "SIEMENS",
        "ManufacturerModelName": "Prisma_fit",
        "Modality": "MR",
        "NumberOfAverages": 1.0,
        "NumberOfPhaseEncodingSteps": 104,
        "PercentPhaseFieldOfView": 100.0,
        "PercentSampling": 100.0,
        "PerformedProcedureStepStartTime": "173205.188000",
        "PhotometricInterpretation": "MONOCHROME2",
        "PixelBandwidth": 2290.0,
        "PixelRepresentation": 0,
        "PixelSpacing": [
          2.0,
          2.0
        ],
        "ProtocolName": "func_task-wolf16",
        "RepetitionTime": 1490.0,
        "Rows": 832,
        "SAR": 0.03377366996082,
        "SamplesPerPixel": 1,
        "ScanOptions": "FS",
        "ScanningSequence": "EP",
        "SequenceName": "epfid2d1_104",
        "SequenceVariant": [
          "SK",
          "SS"
        ],
        "SeriesDescription": "func_task-wolf16",
        "SeriesNumber": 15,
        "SeriesTime": "183821.890000",
        "SliceLocation": -54.85085822965,
        "SliceThickness": 2.0,
        "SmallestImagePixelValue": 0,
        "SoftwareVersions": "syngo MR E11",
        "SpacingBetweenSlices": 1.9999999940154,
        "SpecificCharacterSet": "ISO_IR 100",
        "StudyID": "1",
        "StudyTime": "173205.128000",
        "TransmitCoilName": "Body",
        "VariableFlipAngleFlag": "N",
        "WindowCenterWidthExplanation": "Algo1",
        "dBdt": 0.0
      },
      "slices": {}
    },
    "modality": "bold",
    "session_id": "007",
    "subject_id": "05",
    "task_id": "wolf16",
    "time": {
      "samples": {
        "AcquisitionNumber": [
          1,
          2,
          3,
          4,
          5,
          6,
          7,
          8,
          9,
          10,
          11,
          12,
          13,
          14,
          15,
          16,
          17,
          18,
          19,
          20,
          21,
          22,
          23,
          24,
          25,
          26,
          27,
          28,
          29,
          30,
          31,
          32,
          33,
          34,
          35,
          36,
          37,
          38,
          39,
          40,
          41,
          42,
          43,
          44,
          45,
          46,
          47,
          48,
          49,
          50,
          51,
          52,
          53,
          54,
          55,
          56,
          57,
          58,
          59,
          60,
          61,
          62,
          63,
          64,
          65,
          66,
          67,
          68,
          69,
          70,
          71,
          72,
          73,
          74,
          75,
          76,
          77,
          78,
          79,
          80,
          81,
          82,
          83,
          84,
          85,
          86,
          87,
          88,
          89,
          90,
          91,
          92,
          93,
          94,
          95,
          96,
          97,
          98,
          99,
          100,
          101,
          102,
          103,
          104,
          105,
          106,
          107,
          108,
          109,
          110,
          111,
          112,
          113,
          114,
          115,
          116,
          117,
          118,
          119,
          120,
          121,
          122,
          123,
          124,
          125,
          126,
          127,
          128,
          129,
          130,
          131,
          132,
          133,
          134,
          135,
          136,
          137,
          138,
          139,
          140,
          141,
          142,
          143,
          144,
          145,
          146,
          147,
          148,
          149,
          150,
          151,
          152,
          153,
          154,
          155,
          156,
          157,
          158,
          159,
          160,
          161,
          162,
          163,
          164,
          165,
          166,
          167,
          168,
          169,
          170,
          171,
          172,
          173,
          174,
          175,
          176,
          177,
          178,
          179,
          180,
          181,
          182,
          183,
          184,
          185,
          186,
          187,
          188,
          189,
          190,
          191,
          192,
          193,
          194,
          195,
          196,
          197,
          198,
          199,
          200,
          201,
          202,
          203,
          204,
          205,
          206,
          207,
          208,
          209,
          210,
          211,
          212,
          213,
          214,
          215,
          216,
          217,
          218,
          219,
          220,
          221,
          222,
          223,
          224,
          225,
          226,
          227,
          228,
          229,
          230,
          231,
          232,
          233,
          234,
          235,
          236,
          237,
          238,
          239,
          240,
          241,
          242,
          243,
          244,
          245,
          246,
          247,
          248,
          249,
          250,
          251,
          252,
          253,
          254,
          255,
          256,
          257,
          258,
          259,
          260,
          261,
          262,
          263,
          264,
          265,
          266,
          267,
          268,
          269,
          270,
          271,
          272,
          273,
          274,
          275,
          276,
          277,
          278,
          279,
          280,
          281,
          282,
          283,
          284,
          285,
          286,
          287,
          288,
          289,
          290,
          291,
          292,
          293,
          294,
          295,
          296,
          297,
          298,
          299,
          300,
          301,
          302,
          303,
          304,
          305,
          306,
          307,
          308,
          309,
          310,
          311,
          312,
          313,
          314,
          315,
          316,
          317,
          318,
          319,
          320,
          321,
          322,
          323,
          324,
          325,
          326,
          327,
          328,
          329,
          330,
          331,
          332,
          333,
          334,
          335,
          336,
          337,
          338,
          339,
          340,
          341,
          342,
          343,
          344,
          345,
          346,
          347,
          348,
          349,
          350,
          351,
          352,
          353,
          354,
          355,
          356,
          357,
          358,
          359,
          360,
          361,
          362,
          363,
          364,
          365,
          366,
          367,
          368,
          369,
          370,
          371,
          372,
          373,
          374,
          375,
          376,
          377,
          378,
          379,
          380,
          381,
          382,
          383,
          384,
          385,
          386,
          387,
          388,
          389,
          390,
          391,
          392,
          393,
          394,
          395,
          396,
          397,
          398,
          399,
          400,
          401,
          402,
          403,
          404,
          405,
          406
        ],
        "AcquisitionTime": [
          "183705.910000",
          "183707.400000",
          "183708.890000",
          "183710.380000",
          "183711.870000",
          "183713.360000",
          "183714.850000",
          "183716.340000",
          "183717.830000",
          "183719.320000",
          "183720.810000",
          "183722.300000",
          "183723.790000",
          "183725.280000",
          "183726.770000",
          "183728.260000",
          "183729.750000",
          "183731.240000",
          "183732.730000",
          "183734.220000",
          "183735.710000",
          "183737.200000",
          "183738.690000",
          "183740.180000",
          "183741.670000",
          "183743.160000",
          "183744.650000",
          "183746.140000",
          "183747.630000",
          "183749.120000",
          "183750.610000",
          "183752.100000",
          "183753.590000",
          "183755.080000",
          "183756.570000",
          "183758.060000",
          "183759.550000",
          "183801.040000",
          "183802.530000",
          "183804.020000",
          "183805.510000",
          "183807.000000",
          "183808.490000",
          "183809.980000",
          "183811.470000",
          "183812.960000",
          "183814.450000",
          "183815.940000",
          "183817.430000",
          "183818.920000",
          "183820.410000",
          "183821.900000",
          "183823.390000",
          "183824.880000",
          "183826.370000",
          "183827.860000",
          "183829.350000",
          "183830.840000",
          "183832.330000",
          "183833.820000",
          "183835.310000",
          "183836.800000",
          "183838.290000",
          "183839.780000",
          "183841.270000",
          "183842.760000",
          "183844.250000",
          "183845.740000",
          "183847.230000",
          "183848.720000",
          "183850.210000",
          "183851.700000",
          "183853.190000",
          "183854.680000",
          "183856.170000",
          "183857.660000",
          "183859.150000",
          "183900.640000",
          "183902.130000",
          "183903.620000",
          "183905.110000",
          "183906.600000",
          "183908.090000",
          "183909.580000",
          "183911.070000",
          "183912.560000",
          "183914.050000",
          "183915.540000",
          "183917.030000",
          "183918.520000",
          "183920.010000",
          "183921.500000",
          "183922.990000",
          "183924.480000",
          "183925.970000",
          "183927.460000",
          "183928.950000",
          "183930.440000",
          "183931.930000",
          "183933.420000",
          "183934.910000",
          "183936.400000",
          "183937.890000",
          "183939.380000",
          "183940.870000",
          "183942.360000",
          "183943.850000",
          "183945.340000",
          "183946.830000",
          "183948.320000",
          "183949.810000",
          "183951.300000",
          "183952.790000",
          "183954.280000",
          "183955.770000",
          "183957.260000",
          "183958.750000",
          "184000.240000",
          "184001.730000",
          "184003.220000",
          "184004.710000",
          "184006.200000",
          "184007.690000",
          "184009.180000",
          "184010.670000",
          "184012.160000",
          "184013.650000",
          "184015.140000",
          "184016.630000",
          "184018.120000",
          "184019.610000",
          "184021.100000",
          "184022.590000",
          "184024.080000",
          "184025.570000",
          "184027.060000",
          "184028.550000",
          "184030.040000",
          "184031.530000",
          "184033.020000",
          "184034.510000",
          "184036.000000",
          "184037.490000",
          "184038.980000",
          "184040.470000",
          "184041.960000",
          "184043.450000",
          "184044.940000",
          "184046.430000",
          "184047.920000",
          "184049.410000",
          "184050.900000",
          "184052.390000",
          "184053.880000",
          "184055.370000",
          "184056.860000",
          "184058.350000",
          "184059.840000",
          "184101.330000",
          "184102.820000",
          "184104.310000",
          "184105.800000",
          "184107.290000",
          "184108.780000",
          "184110.270000",
          "184111.760000",
          "184113.250000",
          "184114.740000",
          "184116.230000",
          "184117.720000",
          "184119.210000",
          "184120.700000",
          "184122.190000",
          "184123.680000",
          "184125.170000",
          "184126.660000",
          "184128.150000",
          "184129.640000",
          "184131.130000",
          "184132.620000",
          "184134.110000",
          "184135.600000",
          "184137.090000",
          "184138.580000",
          "184140.070000",
          "184141.560000",
          "184143.050000",
          "184144.540000",
          "184146.030000",
          "184147.520000",
          "184149.010000",
          "184150.500000",
          "184151.990000",
          "184153.480000",
          "184154.970000",
          "184156.460000",
          "184157.950000",
          "184159.440000",
          "184200.930000",
          "184202.420000",
          "184203.910000",
          "184205.400000",
          "184206.890000",
          "184208.380000",
          "184209.870000",
          "184211.360000",
          "184212.850000",
          "184214.340000",
          "184215.830000",
          "184217.320000",
          "184218.810000",
          "184220.300000",
          "184221.790000",
          "184223.280000",
          "184224.770000",
          "184226.260000",
          "184227.750000",
          "184229.240000",
          "184230.730000",
          "184232.220000",
          "184233.710000",
          "184235.200000",
          "184236.690000",
          "184238.180000",
          "184239.670000",
          "184241.160000",
          "184242.650000",
          "184244.140000",
          "184245.630000",
          "184247.120000",
          "184248.610000",
          "184250.100000",
          "184251.590000",
          "184253.080000",
          "184254.570000",
          "184256.060000",
          "184257.550000",
          "184259.040000",
          "184300.530000",
          "184302.020000",
          "184303.510000",
          "184305.000000",
          "184306.490000",
          "184307.980000",
          "184309.470000",
          "184310.960000",
          "184312.450000",
          "184313.940000",
          "184315.430000",
          "184316.920000",
          "184318.410000",
          "184319.900000",
          "184321.390000",
          "184322.880000",
          "184324.370000",
          "184325.860000",
          "184327.350000",
          "184328.840000",
          "184330.330000",
          "184331.820000",
          "184333.310000",
          "184334.800000",
          "184336.290000",
          "184337.780000",
          "184339.270000",
          "184340.760000",
          "184342.250000",
          "184343.740000",
          "184345.230000",
          "184346.720000",
          "184348.210000",
          "184349.700000",
          "184351.190000",
          "184352.680000",
          "184354.170000",
          "184355.660000",
          "184357.150000",
          "184358.640000",
          "184400.130000",
          "184401.620000",
          "184403.110000",
          "184404.600000",
          "184406.090000",
          "184407.580000",
          "184409.070000",
          "184410.560000",
          "184412.050000",
          "184413.540000",
          "184415.030000",
          "184416.520000",
          "184418.010000",
          "184419.500000",
          "184420.990000",
          "184422.480000",
          "184423.970000",
          "184425.460000",
          "184426.950000",
          "184428.440000",
          "184429.930000",
          "184431.420000",
          "184432.910000",
          "184434.400000",
          "184435.890000",
          "184437.380000",
          "184438.870000",
          "184440.360000",
          "184441.850000",
          "184443.340000",
          "184444.830000",
          "184446.320000",
          "184447.810000",
          "184449.300000",
          "184450.790000",
          "184452.280000",
          "184453.770000",
          "184455.260000",
          "184456.750000",
          "184458.240000",
          "184459.730000",
          "184501.220000",
          "184502.710000",
          "184504.200000",
          "184505.690000",
          "184507.180000",
          "184508.670000",
          "184510.160000",
          "184511.650000",
          "184513.140000",
          "184514.630000",
          "184516.120000",
          "184517.610000",
          "184519.100000",
          "184520.590000",
          "184522.080000",
          "184523.570000",
          "184525.060000",
          "184526.550000",
          "184528.040000",
          "184529.530000",
          "184531.020000",
          "184532.510000",
          "184534.000000",
          "184535.490000",
          "184536.980000",
          "184538.470000",
          "184539.960000",
          "184541.450000",
          "184542.940000",
          "184544.430000",
          "184545.920000",
          "184547.410000",
          "184548.900000",
          "184550.390000",
          "184551.880000",
          "184553.370000",
          "184554.860000",
          "184556.350000",
          "184557.840000",
          "184559.330000",
          "184600.820000",
          "184602.310000",
          "184603.800000",
          "184605.290000",
          "184606.780000",
          "184608.270000",
          "184609.760000",
          "184611.250000",
          "184612.740000",
          "184614.230000",
          "184615.720000",
          "184617.210000",
          "184618.700000",
          "184620.190000",
          "184621.680000",
          "184623.170000",
          "184624.660000",
          "184626.150000",
          "184627.640000",
          "184629.130000",
          "184630.620000",
          "184632.110000",
          "184633.600000",
          "184635.090000",
          "184636.580000",
          "184638.070000",
          "184639.560000",
          "184641.050000",
          "184642.540000",
          "184644.030000",
          "184645.520000",
          "184647.010000",
          "184648.500000",
          "184649.990000",
          "184651.480000",
          "184652.970000",
          "184654.460000",
          "184655.950000",
          "184657.440000",
          "184658.930000",
          "184700.420000",
          "184701.910000",
          "184703.400000",
          "184704.890000",
          "184706.380000",
          "184707.870000",
          "184709.360000"
        ],
        "ContentTime": [
          "183821.893000",
          "183821.896000",
          "183821.899000",
          "183821.902000",
          "183821.905000",
          "183821.908000",
          "183821.911000",
          "183821.913000",
          "183821.916000",
          "183821.925000",
          "183821.928000",
          "183821.931000",
          "183821.944000",
          "183821.946000",
          "183821.949000",
          "183821.952000",
          "183821.955000",
          "183821.958000",
          "183821.961000",
          "183821.963000",
          "183821.967000",
          "183821.970000",
          "183841.866000",
          "183841.869000",
          "183841.872000",
          "183841.875000",
          "183841.878000",
          "183841.880000",
          "183841.883000",
          "183841.886000",
          "183841.889000",
          "183841.893000",
          "183841.897000",
          "183841.901000",
          "183841.904000",
          "183841.907000",
          "183841.910000",
          "183841.912000",
          "183841.915000",
          "183841.918000",
          "183841.921000",
          "183841.924000",
          "183901.866000",
          "183901.869000",
          "183901.872000",
          "183901.875000",
          "183901.877000",
          "183901.880000",
          "183901.883000",
          "183901.886000",
          "183901.889000",
          "183901.892000",
          "183901.895000",
          "183901.897000",
          "183901.900000",
          "183901.903000",
          "183901.906000",
          "183901.909000",
          "183901.912000",
          "183901.915000",
          "183901.917000",
          "183901.920000",
          "183901.923000",
          "183921.866000",
          "183921.869000",
          "183921.872000",
          "183921.874000",
          "183921.877000",
          "183921.880000",
          "183921.883000",
          "183921.886000",
          "183921.889000",
          "183921.892000",
          "183921.894000",
          "183921.897000",
          "183921.900000",
          "183921.903000",
          "183921.906000",
          "183921.909000",
          "183921.912000",
          "183921.914000",
          "183921.917000",
          "183921.920000",
          "183941.865000",
          "183941.868000",
          "183941.871000",
          "183941.874000",
          "183941.877000",
          "183941.879000",
          "183941.882000",
          "183941.885000",
          "183941.888000",
          "183941.891000",
          "183941.894000",
          "183941.897000",
          "183941.900000",
          "183941.902000",
          "183941.905000",
          "183941.908000",
          "183941.911000",
          "183941.914000",
          "183941.916000",
          "183941.919000",
          "184021.865000",
          "184021.868000",
          "184021.871000",
          "184021.873000",
          "184021.877000",
          "184021.879000",
          "184021.882000",
          "184021.885000",
          "184021.888000",
          "184021.891000",
          "184021.894000",
          "184021.896000",
          "184021.899000",
          "184021.902000",
          "184021.905000",
          "184021.908000",
          "184021.911000",
          "184021.920000",
          "184021.923000",
          "184021.925000",
          "184021.928000",
          "184021.931000",
          "184021.934000",
          "184021.937000",
          "184021.940000",
          "184021.943000",
          "184021.945000",
          "184021.948000",
          "184101.866000",
          "184101.869000",
          "184101.872000",
          "184101.875000",
          "184101.878000",
          "184101.880000",
          "184101.883000",
          "184101.886000",
          "184101.889000",
          "184101.892000",
          "184101.895000",
          "184101.898000",
          "184101.900000",
          "184101.903000",
          "184101.906000",
          "184101.909000",
          "184101.912000",
          "184101.915000",
          "184101.918000",
          "184101.920000",
          "184101.923000",
          "184101.926000",
          "184101.929000",
          "184101.932000",
          "184101.935000",
          "184101.938000",
          "184101.941000",
          "184141.866000",
          "184141.874000",
          "184141.876000",
          "184141.879000",
          "184141.882000",
          "184141.885000",
          "184141.888000",
          "184141.891000",
          "184141.893000",
          "184141.896000",
          "184141.899000",
          "184141.902000",
          "184141.905000",
          "184141.908000",
          "184141.911000",
          "184141.914000",
          "184141.917000",
          "184141.919000",
          "184141.922000",
          "184141.925000",
          "184141.928000",
          "184141.931000",
          "184141.934000",
          "184141.936000",
          "184141.939000",
          "184141.942000",
          "184141.945000",
          "184221.865000",
          "184221.868000",
          "184221.871000",
          "184221.874000",
          "184221.877000",
          "184221.879000",
          "184221.882000",
          "184221.885000",
          "184221.888000",
          "184221.891000",
          "184221.894000",
          "184221.897000",
          "184221.901000",
          "184221.904000",
          "184221.907000",
          "184221.910000",
          "184221.912000",
          "184221.915000",
          "184221.918000",
          "184221.921000",
          "184221.924000",
          "184221.927000",
          "184221.930000",
          "184221.933000",
          "184221.935000",
          "184221.938000",
          "184301.866000",
          "184301.869000",
          "184301.880000",
          "184301.883000",
          "184301.886000",
          "184301.889000",
          "184301.892000",
          "184301.895000",
          "184301.897000",
          "184301.900000",
          "184301.903000",
          "184301.906000",
