{
  "aor": 0.0012057530864197532,
  "aqi": 0.013875477037037037,
  "bids_meta": {
    "AcquisitionMatrixPE": 104,
    "AcquisitionNumber": 1,
    "AcquisitionTime": "18:05:27.420000",
    "BandwidthPerPixelPhaseEncode": 17.17,
    "BaseResolution": 104,
    "BodyPartExamined": "BRAIN",
    "CogAtlasID": "trm_4c898da401420",
    "ConsistencyInfo": "N4_VE11C_LATEST_20160120",
    "ConversionSoftware": "dcm2niix",
    "ConversionSoftwareVersion": "v1.0.20171215 (OpenJPEG build) GCC7.3.0",
    "DerivedVendorReportedEchoSpacing": 0.000560011,
    "DeviceSerialNumber": "167006",
    "DwellTime": 2.1e-06,
    "EchoTime": 0.037,
    "EchoTrainLength": 104,
    "EffectiveEchoSpacing": 0.000560011,
    "FlipAngle": 52,
    "ImageComments": "Unaliased_MB4_PE3_LB",
    "ImageOrientationPatientDICOM": [
      0.99935,
      0.017497,
      -0.0315272,
      -0.0270416,
      0.942066,
      -0.334336
    ],
    "ImageType": [
      "ORIGINAL",
      "PRIMARY",
      "M",
      "MB",
      "ND",
      "MOSAIC"
    ],
    "InPlanePhaseEncodingDirectionDICOM": "COL",
    "InstitutionAddress": "Chemin_Queen-Mary_4565_Montreal_District_CA_H3W_1W5",
    "InstitutionName": "IUGM",
    "InstitutionalDepartmentName": "Department",
    "MRAcquisitionType": "2D",
    "MagneticFieldStrength": 3,
    "Manufacturer": "Siemens",
    "ManufacturersModelName": "Prisma_fit",
    "Modality": "MR",
    "MultibandAccelerationFactor": 4,
    "PartialFourier": 1,
    "PatientPosition": "HFS",
    "PercentPhaseFOV": 100,
    "PhaseEncodingDirection": "j-",
    "PhaseEncodingSteps": 104,
    "PhaseResolution": 1,
    "PixelBandwidth": 2290,
    "ProcedureStepDescription": "video5_generic",
    "ProtocolName": "func_task-wolf13",
    "PulseSequenceDetails": "%CustomerSeq%_cmrr_mbep2d_bold",
    "ReceiveCoilActiveElements": "HC1-7;NC1,2",
    "ReceiveCoilName": "HeadNeck_64",
    "ReconMatrixPE": 104,
    "RepetitionTime": 1.49,
    "SAR": 0.0337737,
    "ScanOptions": "FS",
    "ScanningSequence": "EP",
    "SequenceName": "epfid2d1_104",
    "SequenceVariant": "SK_SS",
    "SeriesDescription": "func_task-wolf13",
    "SeriesNumber": 9,
    "ShimSetting": [
      614,
      -7223,
      -8877,
      401,
      40,
      -327,
      25,
      23
    ],
    "SliceThickness": 2,
    "SliceTiming": [
      0,
      0.7825,
      0.0975,
      0.88,
      0.195,
      0.98,
      0.2925,
      1.0775,
      0.39,
      1.175,
      0.49,
      1.2725,
      0.5875,
      1.37,
      0.685,
      0,
      0.7825,
      0.0975,
      0.88,
      0.195,
      0.98,
      0.2925,
      1.0775,
      0.39,
      1.175,
      0.49,
      1.2725,
      0.5875,
      1.37,
      0.685,
      0,
      0.7825,
      0.0975,
      0.88,
      0.195,
      0.98,
      0.2925,
      1.0775,
      0.39,
      1.175,
      0.49,
      1.2725,
      0.5875,
      1.37,
      0.685,
      0,
      0.7825,
      0.0975,
      0.88,
      0.195,
      0.98,
      0.2925,
      1.0775,
      0.39,
      1.175,
      0.49,
      1.2725,
      0.5875,
      1.37,
      0.685
    ],
    "SoftwareVersions": "syngo_MR_E11",
    "SpacingBetweenSlices": 2,
    "StationName": "MRC35049",
    "TaskName": "wolf13",
    "TotalReadoutTime": 0.0576811,
    "TxRefAmp": 234.582,
    "dataset": "<unset>",
    "dcmmeta_affine": [
      [
        -1.998699426651001,
        -0.05408322438597679,
        -0.04770173877477646,
        106.69332885742188
      ],
      [
        -0.03499404340982437,
        1.8841321468353271,
        -0.6699413657188416,
        -60.53791427612305
      ],
      [
        -0.06305448710918427,
        0.6686710715293884,
        1.8838531970977783,
        -77.0596694946289
      ],
      [
        0.0,
        0.0,
        0.0,
        1.0
      ]
    ],
    "dcmmeta_reorient_transform": [
      [
        0.0,
        -1.0,
        0.0,
        103.0
      ],
      [
        1.0,
        0.0,
        0.0,
        0.0
      ],
      [
        0.0,
        0.0,
        1.0,
        0.0
      ],
      [
        0.0,
        0.0,
        0.0,
        1.0
      ]
    ],
    "dcmmeta_shape": [
      104,
      104,
      60,
      406
    ],
    "dcmmeta_slice_dim": 2,
    "dcmmeta_version": 0.6,
    "global": {
      "const": {
        "AcquisitionMatrix": [
          104,
          0,
          0,
          104
        ],
        "AngioFlag": "N",
        "BitsAllocated": 16,
        "BitsStored": 16,
        "BodyPartExamined": "BRAIN",
        "Columns": 832,
        "EchoNumbers": 1,
        "EchoTime": 37.0,
        "EchoTrainLength": 104,
        "FlipAngle": 52.0,
        "HighBit": 15,
        "ImageOrientationPatient": [
          0.99934973216508,
          0.01749702126836,
          -0.0315272432719,
          -0.0270416126408,
          0.94206607628698,
          -0.3343355486559
        ],
        "ImagePositionPatient": [
          -808.96306963622,
          -832.08963238943,
          258.16156434997
        ],
        "ImageType": [
          "ORIGINAL",
          "PRIMARY",
          "M",
          "MB",
          "ND",
          "MOSAIC"
        ],
        "ImagedNucleus": "1H",
        "ImagingFrequency": 123.259397,
        "InPlanePhaseEncodingDirection": "COL",
        "MRAcquisitionType": "2D",
        "MagneticFieldStrength": 3.0,
        "Manufacturer": "SIEMENS",
        "ManufacturerModelName": "Prisma_fit",
        "Modality": "MR",
        "NumberOfAverages": 1.0,
        "NumberOfPhaseEncodingSteps": 104,
        "PercentPhaseFieldOfView": 100.0,
        "PercentSampling": 100.0,
        "PerformedProcedureStepStartTime": "173205.188000",
        "PhotometricInterpretation": "MONOCHROME2",
        "PixelBandwidth": 2290.0,
        "PixelRepresentation": 0,
        "PixelSpacing": [
          2.0,
          2.0
        ],
        "ProtocolName": "func_task-wolf13",
        "RepetitionTime": 1490.0,
        "Rows": 832,
        "SAR": 0.03377366996082,
        "SamplesPerPixel": 1,
        "ScanOptions": "FS",
        "ScanningSequence": "EP",
        "SequenceName": "epfid2d1_104",
        "SequenceVariant": [
          "SK",
          "SS"
        ],
        "SeriesDescription": "func_task-wolf13",
        "SeriesNumber": 9,
        "SeriesTime": "180641.905000",
        "SliceLocation": -54.85085822965,
        "SliceThickness": 2.0,
        "SmallestImagePixelValue": 0,
        "SoftwareVersions": "syngo MR E11",
        "SpacingBetweenSlices": 1.9999999940154,
        "SpecificCharacterSet": "ISO_IR 100",
        "StudyID": "1",
        "StudyTime": "173205.128000",
        "TransmitCoilName": "Body",
        "VariableFlipAngleFlag": "N",
        "WindowCenterWidthExplanation": "Algo1",
        "dBdt": 0.0
      },
      "slices": {}
    },
    "modality": "bold",
    "session_id": "007",
    "subject_id": "05",
    "task_id": "wolf13",
    "time": {
      "samples": {
        "AcquisitionNumber": [
          1,
          2,
          3,
          4,
          5,
          6,
          7,
          8,
          9,
          10,
          11,
          12,
          13,
          14,
          15,
          16,
          17,
          18,
          19,
          20,
          21,
          22,
          23,
          24,
          25,
          26,
          27,
          28,
          29,
          30,
          31,
          32,
          33,
          34,
          35,
          36,
          37,
          38,
          39,
          40,
          41,
          42,
          43,
          44,
          45,
          46,
          47,
          48,
          49,
          50,
          51,
          52,
          53,
          54,
          55,
          56,
          57,
          58,
          59,
          60,
          61,
          62,
          63,
          64,
          65,
          66,
          67,
          68,
          69,
          70,
          71,
          72,
          73,
          74,
          75,
          76,
          77,
          78,
          79,
          80,
          81,
          82,
          83,
          84,
          85,
          86,
          87,
          88,
          89,
          90,
          91,
          92,
          93,
          94,
          95,
          96,
          97,
          98,
          99,
          100,
          101,
          102,
          103,
          104,
          105,
          106,
          107,
          108,
          109,
          110,
          111,
          112,
          113,
          114,
          115,
          116,
          117,
          118,
          119,
          120,
          121,
          122,
          123,
          124,
          125,
          126,
          127,
          128,
          129,
          130,
          131,
          132,
          133,
          134,
          135,
          136,
          137,
          138,
          139,
          140,
          141,
          142,
          143,
          144,
          145,
          146,
          147,
          148,
          149,
          150,
          151,
          152,
          153,
          154,
          155,
          156,
          157,
          158,
          159,
          160,
          161,
          162,
          163,
          164,
          165,
          166,
          167,
          168,
          169,
          170,
          171,
          172,
          173,
          174,
          175,
          176,
          177,
          178,
          179,
          180,
          181,
          182,
          183,
          184,
          185,
          186,
          187,
          188,
          189,
          190,
          191,
          192,
          193,
          194,
          195,
          196,
          197,
          198,
          199,
          200,
          201,
          202,
          203,
          204,
          205,
          206,
          207,
          208,
          209,
          210,
          211,
          212,
          213,
          214,
          215,
          216,
          217,
          218,
          219,
          220,
          221,
          222,
          223,
          224,
          225,
          226,
          227,
          228,
          229,
          230,
          231,
          232,
          233,
          234,
          235,
          236,
          237,
          238,
          239,
          240,
          241,
          242,
          243,
          244,
          245,
          246,
          247,
          248,
          249,
          250,
          251,
          252,
          253,
          254,
          255,
          256,
          257,
          258,
          259,
          260,
          261,
          262,
          263,
          264,
          265,
          266,
          267,
          268,
          269,
          270,
          271,
          272,
          273,
          274,
          275,
          276,
          277,
          278,
          279,
          280,
          281,
          282,
          283,
          284,
          285,
          286,
          287,
          288,
          289,
          290,
          291,
          292,
          293,
          294,
          295,
          296,
          297,
          298,
          299,
          300,
          301,
          302,
          303,
          304,
          305,
          306,
          307,
          308,
          309,
          310,
          311,
          312,
          313,
          314,
          315,
          316,
          317,
          318,
          319,
          320,
          321,
          322,
          323,
          324,
          325,
          326,
          327,
          328,
          329,
          330,
          331,
          332,
          333,
          334,
          335,
          336,
          337,
          338,
          339,
          340,
          341,
          342,
          343,
          344,
          345,
          346,
          347,
          348,
          349,
          350,
          351,
          352,
          353,
          354,
          355,
          356,
          357,
          358,
          359,
          360,
          361,
          362,
          363,
          364,
          365,
          366,
          367,
          368,
          369,
          370,
          371,
          372,
          373,
          374,
          375,
          376,
          377,
          378,
          379,
          380,
          381,
          382,
          383,
          384,
          385,
          386,
          387,
          388,
          389,
          390,
          391,
          392,
          393,
          394,
          395,
          396,
          397,
          398,
          399,
          400,
          401,
          402,
          403,
          404,
          405,
          406
        ],
        "AcquisitionTime": [
          "180527.420000",
          "180528.910000",
          "180530.400000",
          "180531.890000",
          "180533.380000",
          "180534.870000",
          "180536.360000",
          "180537.850000",
          "180539.340000",
          "180540.830000",
          "180542.320000",
          "180543.810000",
          "180545.300000",
          "180546.790000",
          "180548.280000",
          "180549.770000",
          "180551.260000",
          "180552.750000",
          "180554.240000",
          "180555.730000",
          "180557.220000",
          "180558.710000",
          "180600.200000",
          "180601.690000",
          "180603.180000",
          "180604.670000",
          "180606.160000",
          "180607.650000",
          "180609.140000",
          "180610.630000",
          "180612.120000",
          "180613.610000",
          "180615.100000",
          "180616.590000",
          "180618.080000",
          "180619.570000",
          "180621.060000",
          "180622.550000",
          "180624.040000",
          "180625.530000",
          "180627.020000",
          "180628.510000",
          "180630.000000",
          "180631.490000",
          "180632.980000",
          "180634.470000",
          "180635.960000",
          "180637.450000",
          "180638.940000",
          "180640.430000",
          "180641.920000",
          "180643.410000",
          "180644.900000",
          "180646.390000",
          "180647.880000",
          "180649.370000",
          "180650.860000",
          "180652.350000",
          "180653.840000",
          "180655.330000",
          "180656.820000",
          "180658.310000",
          "180659.800000",
          "180701.290000",
          "180702.780000",
          "180704.270000",
          "180705.760000",
          "180707.250000",
          "180708.740000",
          "180710.230000",
          "180711.720000",
          "180713.210000",
          "180714.700000",
          "180716.190000",
          "180717.680000",
          "180719.170000",
          "180720.660000",
          "180722.150000",
          "180723.640000",
          "180725.130000",
          "180726.620000",
          "180728.110000",
          "180729.600000",
          "180731.090000",
          "180732.580000",
          "180734.070000",
          "180735.560000",
          "180737.050000",
          "180738.540000",
          "180740.030000",
          "180741.520000",
          "180743.010000",
          "180744.500000",
          "180745.990000",
          "180747.480000",
          "180748.970000",
          "180750.460000",
          "180751.950000",
          "180753.440000",
          "180754.930000",
          "180756.420000",
          "180757.910000",
          "180759.400000",
          "180800.890000",
          "180802.380000",
          "180803.870000",
          "180805.360000",
          "180806.850000",
          "180808.340000",
          "180809.830000",
          "180811.320000",
          "180812.810000",
          "180814.300000",
          "180815.790000",
          "180817.280000",
          "180818.770000",
          "180820.260000",
          "180821.750000",
          "180823.240000",
          "180824.730000",
          "180826.220000",
          "180827.710000",
          "180829.200000",
          "180830.690000",
          "180832.180000",
          "180833.670000",
          "180835.160000",
          "180836.650000",
          "180838.140000",
          "180839.630000",
          "180841.120000",
          "180842.610000",
          "180844.100000",
          "180845.590000",
          "180847.080000",
          "180848.570000",
          "180850.060000",
          "180851.550000",
          "180853.040000",
          "180854.530000",
          "180856.020000",
          "180857.510000",
          "180859.000000",
          "180900.490000",
          "180901.980000",
          "180903.470000",
          "180904.960000",
          "180906.450000",
          "180907.940000",
          "180909.430000",
          "180910.920000",
          "180912.410000",
          "180913.900000",
          "180915.390000",
          "180916.880000",
          "180918.370000",
          "180919.860000",
          "180921.350000",
          "180922.840000",
          "180924.330000",
          "180925.820000",
          "180927.310000",
          "180928.800000",
          "180930.290000",
          "180931.780000",
          "180933.270000",
          "180934.760000",
          "180936.250000",
          "180937.740000",
          "180939.230000",
          "180940.720000",
          "180942.210000",
          "180943.700000",
          "180945.190000",
          "180946.680000",
          "180948.170000",
          "180949.660000",
          "180951.150000",
          "180952.640000",
          "180954.130000",
          "180955.620000",
          "180957.110000",
          "180958.600000",
          "181000.090000",
          "181001.580000",
          "181003.070000",
          "181004.560000",
          "181006.050000",
          "181007.540000",
          "181009.030000",
          "181010.520000",
          "181012.010000",
          "181013.500000",
          "181014.990000",
          "181016.480000",
          "181017.970000",
          "181019.460000",
          "181020.950000",
          "181022.440000",
          "181023.930000",
          "181025.420000",
          "181026.910000",
          "181028.400000",
          "181029.890000",
          "181031.380000",
          "181032.870000",
          "181034.360000",
          "181035.850000",
          "181037.340000",
          "181038.830000",
          "181040.320000",
          "181041.810000",
          "181043.300000",
          "181044.790000",
          "181046.280000",
          "181047.770000",
          "181049.260000",
          "181050.750000",
          "181052.240000",
          "181053.730000",
          "181055.220000",
          "181056.710000",
          "181058.200000",
          "181059.690000",
          "181101.180000",
          "181102.670000",
          "181104.160000",
          "181105.650000",
          "181107.140000",
          "181108.630000",
          "181110.120000",
          "181111.610000",
          "181113.100000",
          "181114.590000",
          "181116.080000",
          "181117.570000",
          "181119.060000",
          "181120.550000",
          "181122.040000",
          "181123.530000",
          "181125.020000",
          "181126.510000",
          "181128.000000",
          "181129.490000",
          "181130.980000",
          "181132.470000",
          "181133.960000",
          "181135.450000",
          "181136.940000",
          "181138.430000",
          "181139.920000",
          "181141.410000",
          "181142.900000",
          "181144.390000",
          "181145.880000",
          "181147.370000",
          "181148.860000",
          "181150.350000",
          "181151.840000",
          "181153.330000",
          "181154.820000",
          "181156.310000",
          "181157.800000",
          "181159.290000",
          "181200.780000",
          "181202.270000",
          "181203.760000",
          "181205.250000",
          "181206.740000",
          "181208.230000",
          "181209.720000",
          "181211.210000",
          "181212.700000",
          "181214.190000",
          "181215.680000",
          "181217.170000",
          "181218.660000",
          "181220.150000",
          "181221.640000",
          "181223.130000",
          "181224.620000",
          "181226.110000",
          "181227.600000",
          "181229.090000",
          "181230.580000",
          "181232.070000",
          "181233.560000",
          "181235.050000",
          "181236.540000",
          "181238.030000",
          "181239.520000",
          "181241.010000",
          "181242.500000",
          "181243.990000",
          "181245.480000",
          "181246.970000",
          "181248.460000",
          "181249.950000",
          "181251.440000",
          "181252.930000",
          "181254.420000",
          "181255.910000",
          "181257.400000",
          "181258.890000",
          "181300.380000",
          "181301.870000",
          "181303.360000",
          "181304.850000",
          "181306.340000",
          "181307.830000",
          "181309.320000",
          "181310.810000",
          "181312.300000",
          "181313.790000",
          "181315.280000",
          "181316.770000",
          "181318.260000",
          "181319.750000",
          "181321.240000",
          "181322.730000",
          "181324.220000",
          "181325.710000",
          "181327.200000",
          "181328.690000",
          "181330.180000",
          "181331.670000",
          "181333.160000",
          "181334.650000",
          "181336.140000",
          "181337.630000",
          "181339.120000",
          "181340.610000",
          "181342.100000",
          "181343.590000",
          "181345.080000",
          "181346.570000",
          "181348.060000",
          "181349.550000",
          "181351.040000",
          "181352.530000",
          "181354.020000",
          "181355.510000",
          "181357.000000",
          "181358.490000",
          "181359.980000",
          "181401.470000",
          "181402.960000",
          "181404.450000",
          "181405.940000",
          "181407.430000",
          "181408.920000",
          "181410.410000",
          "181411.900000",
          "181413.390000",
          "181414.880000",
          "181416.370000",
          "181417.860000",
          "181419.350000",
          "181420.840000",
          "181422.330000",
          "181423.820000",
          "181425.310000",
          "181426.800000",
          "181428.290000",
          "181429.780000",
          "181431.270000",
          "181432.760000",
          "181434.250000",
          "181435.740000",
          "181437.230000",
          "181438.720000",
          "181440.210000",
          "181441.700000",
          "181443.190000",
          "181444.680000",
          "181446.170000",
          "181447.660000",
          "181449.150000",
          "181450.640000",
          "181452.130000",
          "181453.620000",
          "181455.110000",
          "181456.600000",
          "181458.090000",
          "181459.580000",
          "181501.070000",
          "181502.560000",
          "181504.050000",
          "181505.540000",
          "181507.030000",
          "181508.520000",
          "181510.010000",
          "181511.500000",
          "181512.990000",
          "181514.480000",
          "181515.970000",
          "181517.460000",
          "181518.950000",
          "181520.440000",
          "181521.930000",
          "181523.420000",
          "181524.910000",
          "181526.400000",
          "181527.890000",
          "181529.380000",
          "181530.870000"
        ],
        "ContentTime": [
          "180641.907000",
          "180641.911000",
          "180641.914000",
          "180641.917000",
          "180641.929000",
          "180641.932000",
          "180641.935000",
          "180641.937000",
          "180641.940000",
          "180641.943000",
          "180641.946000",
          "180641.949000",
          "180641.952000",
          "180641.958000",
          "180641.961000",
          "180641.964000",
          "180641.967000",
          "180641.970000",
          "180641.973000",
          "180641.976000",
          "180701.865000",
          "180701.868000",
          "180701.871000",
          "180701.874000",
          "180701.877000",
          "180701.879000",
          "180701.882000",
          "180701.885000",
          "180701.888000",
          "180701.891000",
          "180701.894000",
          "180701.896000",
          "180701.899000",
          "180701.902000",
          "180701.905000",
          "180701.908000",
          "180701.911000",
          "180701.914000",
          "180701.917000",
          "180701.919000",
          "180721.865000",
          "180721.868000",
          "180721.879000",
          "180721.882000",
          "180721.884000",
          "180721.887000",
          "180721.890000",
          "180721.893000",
          "180721.896000",
          "180721.899000",
          "180721.902000",
          "180721.904000",
          "180721.907000",
          "180721.910000",
          "180721.913000",
          "180721.916000",
          "180721.919000",
          "180721.922000",
          "180721.924000",
          "180721.927000",
          "180741.865000",
          "180741.868000",
          "180741.871000",
          "180741.874000",
          "180741.877000",
          "180741.879000",
          "180741.882000",
          "180741.885000",
          "180741.888000",
          "180741.891000",
          "180741.894000",
          "180741.897000",
          "180741.899000",
          "180741.902000",
          "180741.905000",
          "180741.908000",
          "180741.911000",
          "180741.914000",
          "180741.917000",
          "180741.920000",
          "180741.922000",
          "180801.865000",
          "180801.868000",
          "180801.871000",
          "180801.874000",
          "180801.876000",
          "180801.879000",
          "180801.882000",
          "180801.885000",
          "180801.888000",
          "180801.891000",
          "180801.894000",
          "180801.897000",
          "180801.899000",
          "180801.902000",
          "180801.905000",
          "180801.908000",
          "180801.911000",
          "180801.914000",
          "180801.917000",
          "180801.919000",
          "180841.866000",
          "180841.869000",
          "180841.872000",
          "180841.875000",
          "180841.878000",
          "180841.881000",
          "180841.883000",
          "180841.886000",
          "180841.889000",
          "180841.892000",
          "180841.895000",
          "180841.897000",
          "180841.901000",
          "180841.903000",
          "180841.906000",
          "180841.909000",
          "180841.912000",
          "180841.915000",
          "180841.919000",
          "180841.922000",
          "180841.925000",
          "180841.928000",
          "180841.931000",
          "180841.934000",
          "180841.937000",
          "180841.939000",
          "180841.942000",
          "180841.945000",
          "180841.963000",
          "180921.865000",
          "180921.873000",
          "180921.876000",
          "180921.879000",
          "180921.882000",
          "180921.885000",
          "180921.887000",
          "180921.890000",
          "180921.893000",
          "180921.896000",
          "180921.899000",
          "180921.902000",
          "180921.905000",
          "180921.908000",
          "180921.910000",
          "180921.913000",
          "180921.916000",
          "180921.919000",
          "180921.922000",
          "180921.925000",
          "180921.928000",
          "180921.931000",
          "180921.934000",
          "180921.936000",
          "180921.939000",
          "180921.942000",
          "180921.945000",
          "180941.865000",
          "180941.868000",
          "180941.871000",
          "180941.874000",
          "180941.877000",
          "180941.879000",
          "180941.882000",
          "180941.885000",
          "180941.888000",
          "180941.891000",
          "180941.894000",
          "180941.897000",
          "180941.900000",
          "181021.865000",
          "181021.868000",
          "181021.871000",
          "181021.874000",
          "181021.877000",
          "181021.880000",
          "181021.882000",
          "181021.885000",
          "181021.888000",
          "181021.891000",
          "181021.894000",
          "181021.897000",
          "181021.900000",
          "181021.903000",
          "181021.906000",
          "181021.908000",
          "181021.911000",
          "181021.914000",
          "181021.917000",
          "181021.920000",
          "181021.923000",
          "181021.926000",
          "181021.929000",
          "181021.931000",
          "181021.934000",
          "181021.937000",
          "181021.940000",
          "181101.866000",
          "181101.869000",
          "181101.872000",
          "181101.875000",
          "181101.878000",
          "181101.881000",
          "181101.883000",
          "181101.886000",
          "181101.889000",
          "181101.892000",
          "181101.895000",
          "181101.898000",
          "181101.901000",
          "181101.910000",
          "181101.913000",
          "181101.915000",
          "181101.918000",
          "181101.921000",
          "181101.924000",
          "181101.927000",
          "181101.930000",
          "181101.933000",
          "181101.936000",
          "181101.939000",
          "181101.942000",
          "181101.945000",
          "181101.948000",
