{
  "aor": 0.0004897290640394088,
  "aqi": 0.005938958349753695,
  "bids_meta": {
    "AcquisitionMatrixPE": 104,
    "AcquisitionNumber": 1,
    "AcquisitionTime": "16:37:46.650000",
    "BandwidthPerPixelPhaseEncode": 17.17,
    "BaseResolution": 104,
    "BodyPartExamined": "BRAIN",
    "CogAtlasID": "trm_4c898da401420",
    "ConsistencyInfo": "N4_VE11C_LATEST_20160120",
    "ConversionSoftware": "dcm2niix",
    "ConversionSoftwareVersion": "v1.0.20171215 (OpenJPEG build) GCC7.3.0",
    "DerivedVendorReportedEchoSpacing": 0.000560011,
    "DeviceSerialNumber": "167006",
    "DwellTime": 2.1e-06,
    "EchoTime": 0.037,
    "EchoTrainLength": 104,
    "EffectiveEchoSpacing": 0.000560011,
    "FlipAngle": 52,
    "ImageComments": "Unaliased_MB4_PE3_LB",
    "ImageOrientationPatientDICOM": [
      0.995316,
      0.0914272,
      0.0314095,
      -0.0804309,
      0.963425,
      -0.255623
    ],
    "ImageType": [
      "ORIGINAL",
      "PRIMARY",
      "M",
      "MB",
      "ND",
      "MOSAIC"
    ],
    "InPlanePhaseEncodingDirectionDICOM": "COL",
    "InstitutionAddress": "Chemin_Queen-Mary_4565_Montreal_District_CA_H3W_1W5",
    "InstitutionName": "IUGM",
    "InstitutionalDepartmentName": "Department",
    "MRAcquisitionType": "2D",
    "MagneticFieldStrength": 3,
    "Manufacturer": "Siemens",
    "ManufacturersModelName": "Prisma_fit",
    "Modality": "MR",
    "MultibandAccelerationFactor": 4,
    "PartialFourier": 1,
    "PatientPosition": "HFS",
    "PercentPhaseFOV": 100,
    "PhaseEncodingDirection": "j-",
    "PhaseEncodingSteps": 104,
    "PhaseResolution": 1,
    "PixelBandwidth": 2290,
    "ProcedureStepDescription": "video5_generic",
    "ProtocolName": "func_task-life1",
    "PulseSequenceDetails": "%CustomerSeq%_cmrr_mbep2d_bold",
    "ReceiveCoilActiveElements": "HC1-7;NC1,2",
    "ReceiveCoilName": "HeadNeck_64",
    "ReconMatrixPE": 104,
    "RepetitionTime": 1.49,
    "SAR": 0.0407101,
    "ScanOptions": "FS",
    "ScanningSequence": "EP",
    "SequenceName": "epfid2d1_104",
    "SequenceVariant": "SK_SS",
    "SeriesDescription": "func_task-life1",
    "SeriesNumber": 20,
    "ShimSetting": [
      648,
      -7183,
      -8814,
      684,
      137,
      44,
      -6,
      16
    ],
    "SliceThickness": 2,
    "SliceTiming": [
      0,
      0.785,
      0.0975,
      0.8825,
      0.195,
      0.98,
      0.295,
      1.0775,
      0.3925,
      1.175,
      0.49,
      1.275,
      0.5875,
      1.3725,
      0.685,
      0,
      0.785,
      0.0975,
      0.8825,
      0.195,
      0.98,
      0.295,
      1.0775,
      0.3925,
      1.175,
      0.49,
      1.275,
      0.5875,
      1.3725,
      0.685,
      0,
      0.785,
      0.0975,
      0.8825,
      0.195,
      0.98,
      0.295,
      1.0775,
      0.3925,
      1.175,
      0.49,
      1.275,
      0.5875,
      1.3725,
      0.685,
      0,
      0.785,
      0.0975,
      0.8825,
      0.195,
      0.98,
      0.295,
      1.0775,
      0.3925,
      1.175,
      0.49,
      1.275,
      0.5875,
      1.3725,
      0.685
    ],
    "SoftwareVersions": "syngo_MR_E11",
    "SpacingBetweenSlices": 2,
    "StationName": "MRC35049",
    "TaskName": "life01",
    "TotalReadoutTime": 0.0576811,
    "TxRefAmp": 255.472,
    "dataset": "<unset>",
    "dcmmeta_affine": [
      [
        -1.9906325340270996,
        -0.16086187958717346,
        0.10726310312747955,
        110.94735717773438
      ],
      [
        -0.1828543096780777,
        1.9268500804901123,
        -0.5037988424301147,
        -59.99827575683594
      ],
      [
        0.06281894445419312,
        0.5112459659576416,
        1.9325324296951294,
        -56.706241607666016
      ],
      [
        0.0,
        0.0,
        0.0,
        1.0
      ]
    ],
    "dcmmeta_reorient_transform": [
      [
        0.0,
        -1.0,
        0.0,
        103.0
      ],
      [
        1.0,
        0.0,
        0.0,
        0.0
      ],
      [
        0.0,
        0.0,
        1.0,
        0.0
      ],
      [
        0.0,
        0.0,
        0.0,
        1.0
      ]
    ],
    "dcmmeta_shape": [
      104,
      104,
      60,
      406
    ],
    "dcmmeta_slice_dim": 2,
    "dcmmeta_version": 0.6,
    "global": {
      "const": {
        "AcquisitionMatrix": [
          104,
          0,
          0,
          104
        ],
        "AngioFlag": "N",
        "BitsAllocated": 16,
        "BitsStored": 16,
        "BodyPartExamined": "BRAIN",
        "Columns": 832,
        "EchoNumbers": 1,
        "EchoTime": 37.0,
        "EchoTrainLength": 104,
        "FlipAngle": 52.0,
        "HighBit": 15,
        "ImageOrientationPatient": [
          0.99531629179726,
          0.09142715294634,
          0.03140947288755,
          -0.0804309384062,
          0.96342501509265,
          -0.2556229732258
        ],
        "ImagePositionPatient": [
          -760.41512318331,
          -906.39965525192,
          159.17951861874
        ],
        "ImageType": [
          "ORIGINAL",
          "PRIMARY",
          "M",
          "MB",
          "ND",
          "MOSAIC"
        ],
        "ImagedNucleus": "1H",
        "ImagingFrequency": 123.259449,
        "InPlanePhaseEncodingDirection": "COL",
        "MRAcquisitionType": "2D",
        "MagneticFieldStrength": 3.0,
        "Manufacturer": "SIEMENS",
        "ManufacturerModelName": "Prisma_fit",
        "Modality": "MR",
        "NumberOfAverages": 1.0,
        "NumberOfPhaseEncodingSteps": 104,
        "PercentPhaseFieldOfView": 100.0,
        "PercentSampling": 100.0,
        "PerformedProcedureStepStartTime": "155015.894000",
        "PhotometricInterpretation": "MONOCHROME2",
        "PixelBandwidth": 2290.0,
        "PixelRepresentation": 0,
        "PixelSpacing": [
          2.0,
          2.0
        ],
        "ProtocolName": "func_task-life1",
        "RepetitionTime": 1490.0,
        "Rows": 832,
        "SAR": 0.04071011885621,
        "SamplesPerPixel": 1,
        "ScanOptions": "FS",
        "ScanningSequence": "EP",
        "SequenceName": "epfid2d1_104",
        "SequenceVariant": [
          "SK",
          "SS"
        ],
        "SeriesDescription": "func_task-life1",
        "SeriesNumber": 20,
        "SeriesTime": "163902.375000",
        "SliceLocation": -33.72951435329,
        "SliceThickness": 2.0,
        "SmallestImagePixelValue": 0,
        "SoftwareVersions": "syngo MR E11",
        "SpacingBetweenSlices": 2.0000000148802,
        "SpecificCharacterSet": "ISO_IR 100",
        "StudyID": "1",
        "StudyTime": "155015.847000",
        "TransmitCoilName": "Body",
        "VariableFlipAngleFlag": "N",
        "WindowCenterWidthExplanation": "Algo1",
        "dBdt": 0.0
      },
      "slices": {}
    },
    "modality": "bold",
    "run_id": 1,
    "session_id": "006",
    "subject_id": "01",
    "task_id": "life01",
    "time": {
      "samples": {
        "AcquisitionNumber": [
          1,
          2,
          3,
          4,
          5,
          6,
          7,
          8,
          9,
          10,
          11,
          12,
          13,
          14,
          15,
          16,
          17,
          18,
          19,
          20,
          21,
          22,
          23,
          24,
          25,
          26,
          27,
          28,
          29,
          30,
          31,
          32,
          33,
          34,
          35,
          36,
          37,
          38,
          39,
          40,
          41,
          42,
          43,
          44,
          45,
          46,
          47,
          48,
          49,
          50,
          51,
          52,
          53,
          54,
          55,
          56,
          57,
          58,
          59,
          60,
          61,
          62,
          63,
          64,
          65,
          66,
          67,
          68,
          69,
          70,
          71,
          72,
          73,
          74,
          75,
          76,
          77,
          78,
          79,
          80,
          81,
          82,
          83,
          84,
          85,
          86,
          87,
          88,
          89,
          90,
          91,
          92,
          93,
          94,
          95,
          96,
          97,
          98,
          99,
          100,
          101,
          102,
          103,
          104,
          105,
          106,
          107,
          108,
          109,
          110,
          111,
          112,
          113,
          114,
          115,
          116,
          117,
          118,
          119,
          120,
          121,
          122,
          123,
          124,
          125,
          126,
          127,
          128,
          129,
          130,
          131,
          132,
          133,
          134,
          135,
          136,
          137,
          138,
          139,
          140,
          141,
          142,
          143,
          144,
          145,
          146,
          147,
          148,
          149,
          150,
          151,
          152,
          153,
          154,
          155,
          156,
          157,
          158,
          159,
          160,
          161,
          162,
          163,
          164,
          165,
          166,
          167,
          168,
          169,
          170,
          171,
          172,
          173,
          174,
          175,
          176,
          177,
          178,
          179,
          180,
          181,
          182,
          183,
          184,
          185,
          186,
          187,
          188,
          189,
          190,
          191,
          192,
          193,
          194,
          195,
          196,
          197,
          198,
          199,
          200,
          201,
          202,
          203,
          204,
          205,
          206,
          207,
          208,
          209,
          210,
          211,
          212,
          213,
          214,
          215,
          216,
          217,
          218,
          219,
          220,
          221,
          222,
          223,
          224,
          225,
          226,
          227,
          228,
          229,
          230,
          231,
          232,
          233,
          234,
          235,
          236,
          237,
          238,
          239,
          240,
          241,
          242,
          243,
          244,
          245,
          246,
          247,
          248,
          249,
          250,
          251,
          252,
          253,
          254,
          255,
          256,
          257,
          258,
          259,
          260,
          261,
          262,
          263,
          264,
          265,
          266,
          267,
          268,
          269,
          270,
          271,
          272,
          273,
          274,
          275,
          276,
          277,
          278,
          279,
          280,
          281,
          282,
          283,
          284,
          285,
          286,
          287,
          288,
          289,
          290,
          291,
          292,
          293,
          294,
          295,
          296,
          297,
          298,
          299,
          300,
          301,
          302,
          303,
          304,
          305,
          306,
          307,
          308,
          309,
          310,
          311,
          312,
          313,
          314,
          315,
          316,
          317,
          318,
          319,
          320,
          321,
          322,
          323,
          324,
          325,
          326,
          327,
          328,
          329,
          330,
          331,
          332,
          333,
          334,
          335,
          336,
          337,
          338,
          339,
          340,
          341,
          342,
          343,
          344,
          345,
          346,
          347,
          348,
          349,
          350,
          351,
          352,
          353,
          354,
          355,
          356,
          357,
          358,
          359,
          360,
          361,
          362,
          363,
          364,
          365,
          366,
          367,
          368,
          369,
          370,
          371,
          372,
          373,
          374,
          375,
          376,
          377,
          378,
          379,
          380,
          381,
          382,
          383,
          384,
          385,
          386,
          387,
          388,
          389,
          390,
          391,
          392,
          393,
          394,
          395,
          396,
          397,
          398,
          399,
          400,
          401,
          402,
          403,
          404,
          405,
          406
        ],
        "AcquisitionTime": [
          "163746.650000",
          "163748.140000",
          "163749.630000",
          "163751.120000",
          "163752.610000",
          "163754.100000",
          "163755.590000",
          "163757.080000",
          "163758.570000",
          "163800.060000",
          "163801.550000",
          "163803.040000",
          "163804.530000",
          "163806.020000",
          "163807.510000",
          "163809.000000",
          "163810.490000",
          "163811.980000",
          "163813.470000",
          "163814.960000",
          "163816.450000",
          "163817.940000",
          "163819.430000",
          "163820.920000",
          "163822.410000",
          "163823.900000",
          "163825.390000",
          "163826.880000",
          "163828.370000",
          "163829.860000",
          "163831.350000",
          "163832.840000",
          "163834.330000",
          "163835.820000",
          "163837.310000",
          "163838.800000",
          "163840.290000",
          "163841.780000",
          "163843.270000",
          "163844.760000",
          "163846.250000",
          "163847.740000",
          "163849.230000",
          "163850.720000",
          "163852.210000",
          "163853.700000",
          "163855.190000",
          "163856.680000",
          "163858.170000",
          "163859.660000",
          "163901.150000",
          "163902.640000",
          "163904.130000",
          "163905.620000",
          "163907.110000",
          "163908.600000",
          "163910.090000",
          "163911.580000",
          "163913.070000",
          "163914.560000",
          "163916.050000",
          "163917.540000",
          "163919.030000",
          "163920.520000",
          "163922.010000",
          "163923.500000",
          "163924.990000",
          "163926.480000",
          "163927.970000",
          "163929.460000",
          "163930.950000",
          "163932.440000",
          "163933.930000",
          "163935.420000",
          "163936.910000",
          "163938.400000",
          "163939.890000",
          "163941.380000",
          "163942.870000",
          "163944.360000",
          "163945.850000",
          "163947.340000",
          "163948.830000",
          "163950.320000",
          "163951.810000",
          "163953.300000",
          "163954.790000",
          "163956.280000",
          "163957.770000",
          "163959.260000",
          "164000.750000",
          "164002.240000",
          "164003.730000",
          "164005.220000",
          "164006.710000",
          "164008.200000",
          "164009.690000",
          "164011.180000",
          "164012.670000",
          "164014.160000",
          "164015.650000",
          "164017.140000",
          "164018.630000",
          "164020.120000",
          "164021.610000",
          "164023.100000",
          "164024.590000",
          "164026.080000",
          "164027.570000",
          "164029.060000",
          "164030.550000",
          "164032.040000",
          "164033.530000",
          "164035.020000",
          "164036.510000",
          "164038.000000",
          "164039.490000",
          "164040.980000",
          "164042.470000",
          "164043.960000",
          "164045.450000",
          "164046.940000",
          "164048.430000",
          "164049.920000",
          "164051.410000",
          "164052.900000",
          "164054.390000",
          "164055.880000",
          "164057.370000",
          "164058.860000",
          "164100.350000",
          "164101.840000",
          "164103.330000",
          "164104.820000",
          "164106.310000",
          "164107.800000",
          "164109.290000",
          "164110.780000",
          "164112.270000",
          "164113.760000",
          "164115.250000",
          "164116.740000",
          "164118.230000",
          "164119.720000",
          "164121.210000",
          "164122.700000",
          "164124.190000",
          "164125.680000",
          "164127.170000",
          "164128.660000",
          "164130.150000",
          "164131.640000",
          "164133.130000",
          "164134.620000",
          "164136.110000",
          "164137.600000",
          "164139.090000",
          "164140.580000",
          "164142.070000",
          "164143.560000",
          "164145.050000",
          "164146.540000",
          "164148.030000",
          "164149.520000",
          "164151.010000",
          "164152.500000",
          "164153.990000",
          "164155.480000",
          "164156.970000",
          "164158.460000",
          "164159.950000",
          "164201.440000",
          "164202.930000",
          "164204.420000",
          "164205.910000",
          "164207.400000",
          "164208.890000",
          "164210.380000",
          "164211.870000",
          "164213.360000",
          "164214.850000",
          "164216.340000",
          "164217.830000",
          "164219.320000",
          "164220.810000",
          "164222.300000",
          "164223.790000",
          "164225.280000",
          "164226.770000",
          "164228.260000",
          "164229.750000",
          "164231.240000",
          "164232.730000",
          "164234.220000",
          "164235.710000",
          "164237.200000",
          "164238.690000",
          "164240.180000",
          "164241.670000",
          "164243.160000",
          "164244.650000",
          "164246.140000",
          "164247.630000",
          "164249.120000",
          "164250.610000",
          "164252.100000",
          "164253.590000",
          "164255.080000",
          "164256.570000",
          "164258.060000",
          "164259.550000",
          "164301.040000",
          "164302.530000",
          "164304.020000",
          "164305.510000",
          "164307.000000",
          "164308.490000",
          "164309.980000",
          "164311.470000",
          "164312.960000",
          "164314.450000",
          "164315.940000",
          "164317.430000",
          "164318.920000",
          "164320.410000",
          "164321.900000",
          "164323.390000",
          "164324.880000",
          "164326.370000",
          "164327.860000",
          "164329.350000",
          "164330.840000",
          "164332.330000",
          "164333.820000",
          "164335.310000",
          "164336.800000",
          "164338.290000",
          "164339.780000",
          "164341.270000",
          "164342.760000",
          "164344.250000",
          "164345.740000",
          "164347.230000",
          "164348.720000",
          "164350.210000",
          "164351.700000",
          "164353.190000",
          "164354.680000",
          "164356.170000",
          "164357.660000",
          "164359.150000",
          "164400.640000",
          "164402.130000",
          "164403.620000",
          "164405.110000",
          "164406.600000",
          "164408.090000",
          "164409.580000",
          "164411.070000",
          "164412.560000",
          "164414.050000",
          "164415.540000",
          "164417.030000",
          "164418.520000",
          "164420.010000",
          "164421.500000",
          "164422.990000",
          "164424.480000",
          "164425.970000",
          "164427.460000",
          "164428.950000",
          "164430.440000",
          "164431.930000",
          "164433.420000",
          "164434.910000",
          "164436.400000",
          "164437.890000",
          "164439.380000",
          "164440.870000",
          "164442.360000",
          "164443.850000",
          "164445.340000",
          "164446.830000",
          "164448.320000",
          "164449.810000",
          "164451.300000",
          "164452.790000",
          "164454.280000",
          "164455.770000",
          "164457.260000",
          "164458.750000",
          "164500.240000",
          "164501.730000",
          "164503.220000",
          "164504.710000",
          "164506.200000",
          "164507.690000",
          "164509.180000",
          "164510.670000",
          "164512.160000",
          "164513.650000",
          "164515.140000",
          "164516.630000",
          "164518.120000",
          "164519.610000",
          "164521.100000",
          "164522.590000",
          "164524.080000",
          "164525.570000",
          "164527.060000",
          "164528.550000",
          "164530.040000",
          "164531.530000",
          "164533.020000",
          "164534.510000",
          "164536.000000",
          "164537.490000",
          "164538.980000",
          "164540.470000",
          "164541.960000",
          "164543.450000",
          "164544.940000",
          "164546.430000",
          "164547.920000",
          "164549.410000",
          "164550.900000",
          "164552.390000",
          "164553.880000",
          "164555.370000",
          "164556.860000",
          "164558.350000",
          "164559.840000",
          "164601.330000",
          "164602.820000",
          "164604.310000",
          "164605.800000",
          "164607.290000",
          "164608.780000",
          "164610.270000",
          "164611.760000",
          "164613.250000",
          "164614.740000",
          "164616.230000",
          "164617.720000",
          "164619.210000",
          "164620.700000",
          "164622.190000",
          "164623.680000",
          "164625.170000",
          "164626.660000",
          "164628.150000",
          "164629.640000",
          "164631.130000",
          "164632.620000",
          "164634.110000",
          "164635.600000",
          "164637.090000",
          "164638.580000",
          "164640.070000",
          "164641.560000",
          "164643.050000",
          "164644.540000",
          "164646.030000",
          "164647.520000",
          "164649.010000",
          "164650.500000",
          "164651.990000",
          "164653.480000",
          "164654.970000",
          "164656.460000",
          "164657.950000",
          "164659.440000",
          "164700.930000",
          "164702.420000",
          "164703.910000",
          "164705.400000",
          "164706.890000",
          "164708.380000",
          "164709.870000",
          "164711.360000",
          "164712.850000",
          "164714.340000",
          "164715.830000",
          "164717.320000",
          "164718.810000",
          "164720.300000",
          "164721.790000",
          "164723.280000",
          "164724.770000",
          "164726.260000",
          "164727.750000",
          "164729.240000",
          "164730.730000",
          "164732.220000",
          "164733.710000",
          "164735.200000",
          "164736.690000",
          "164738.180000",
          "164739.670000",
          "164741.160000",
          "164742.650000",
          "164744.140000",
          "164745.630000",
          "164747.120000",
          "164748.610000",
          "164750.100000"
        ],
        "ContentTime": [
          "163902.378000",
          "163902.381000",
          "163902.384000",
          "163902.400000",
          "163902.403000",
          "163902.406000",
          "163902.409000",
          "163902.427000",
          "163902.430000",
          "163902.433000",
          "163902.436000",
          "163902.439000",
          "163922.352000",
          "163922.355000",
          "163922.358000",
          "163922.361000",
          "163922.364000",
          "163922.366000",
          "163922.369000",
          "163922.372000",
          "163922.375000",
          "163922.382000",
          "163922.385000",
          "163922.387000",
          "163922.390000",
          "163922.393000",
          "163922.396000",
          "163922.399000",
          "163922.402000",
          "163922.413000",
          "163922.416000",
          "163922.419000",
          "163922.421000",
          "163942.352000",
          "163942.355000",
          "163942.358000",
          "163942.366000",
          "163942.369000",
          "163942.372000",
          "163942.375000",
          "163942.377000",
          "163942.380000",
          "163942.383000",
          "163942.386000",
          "163942.389000",
          "163942.392000",
          "163942.395000",
          "163942.398000",
          "163942.401000",
          "163942.404000",
          "163942.406000",
          "163942.419000",
          "163942.422000",
          "164002.352000",
          "164002.355000",
          "164002.358000",
          "164002.368000",
          "164002.371000",
          "164002.374000",
          "164002.377000",
          "164002.380000",
          "164002.383000",
          "164002.385000",
          "164002.388000",
          "164002.391000",
          "164002.394000",
          "164002.397000",
          "164002.400000",
          "164002.403000",
          "164002.406000",
          "164002.409000",
          "164002.412000",
          "164002.415000",
          "164022.352000",
          "164022.355000",
          "164022.358000",
          "164022.361000",
          "164022.364000",
          "164022.367000",
          "164022.370000",
          "164022.372000",
          "164022.375000",
          "164022.382000",
          "164022.385000",
          "164022.388000",
          "164022.391000",
          "164022.394000",
          "164022.397000",
          "164022.400000",
          "164022.403000",
          "164022.406000",
          "164022.409000",
          "164022.412000",
          "164042.352000",
          "164042.355000",
          "164042.358000",
          "164042.361000",
          "164042.363000",
          "164042.366000",
          "164042.369000",
          "164042.379000",
          "164042.382000",
          "164042.385000",
          "164042.388000",
          "164042.391000",
          "164042.394000",
          "164042.397000",
          "164042.400000",
          "164042.402000",
          "164042.405000",
          "164042.408000",
          "164042.411000",
          "164042.414000",
          "164042.417000",
          "164122.351000",
          "164122.354000",
          "164122.357000",
          "164122.360000",
          "164122.363000",
          "164122.366000",
          "164122.376000",
          "164122.378000",
          "164122.381000",
          "164122.384000",
          "164122.387000",
          "164122.390000",
          "164122.393000",
          "164122.396000",
          "164122.399000",
          "164122.402000",
          "164122.405000",
          "164122.408000",
          "164122.411000",
          "164122.413000",
          "164122.416000",
          "164122.419000",
          "164122.422000",
          "164122.425000",
          "164122.428000",
          "164122.431000",
          "164122.434000",
          "164122.437000",
          "164122.440000",
          "164122.442000",
          "164202.352000",
          "164202.355000",
          "164202.358000",
          "164202.361000",
          "164202.364000",
          "164202.367000",
          "164202.370000",
          "164202.373000",
          "164202.375000",
          "164202.378000",
          "164202.381000",
          "164202.384000",
          "164202.387000",
          "164202.390000",
          "164202.393000",
          "164202.396000",
          "164202.399000",
          "164202.402000",
          "164202.405000",
          "164202.408000",
          "164202.410000",
          "164202.413000",
          "164202.416000",
          "164202.419000",
          "164202.422000",
          "164202.425000",
          "164202.428000",
          "164242.352000",
          "164242.355000",
          "164242.358000",
          "164242.361000",
          "164242.364000",
          "164242.367000",
          "164242.370000",
          "164242.373000",
          "164242.376000",
          "164242.379000",
          "164242.382000",
          "164242.385000",
          "164242.388000",
          "164242.391000",
          "164242.394000",
          "164242.397000",
          "164242.400000",
          "164242.402000",
          "164242.405000",
          "164242.408000",
          "164242.411000",
          "164242.414000",
          "164242.417000",
          "164242.420000",
          "164242.423000",
          "164242.426000",
          "164322.352000",
          "164322.355000",
          "164322.358000",
          "164322.361000",
          "164322.364000",
          "164322.367000",
          "164322.380000",
          "164322.383000",
          "164322.386000",
          "164322.389000",
          "164322.392000",
          "164322.394000",
          "164322.397000",
          "164322.400000",
          "164322.403000",
          "164322.406000",
          "164322.409000",
          "164322.412000",
          "164322.415000",
          "164322.418000",
          "164322.420000",
          "164322.423000",
          "164322.426000",
          "164322.429000",
          "164322.432000",
          "164322.435000",
