{
  "aor": 0.00035582329317269083,
  "aqi": 0.006537108012048192,
  "bids_meta": {
    "AcquisitionMatrixPE": 104,
    "AcquisitionNumber": 1,
    "AcquisitionTime": "16:11:10.762500",
    "BandwidthPerPixelPhaseEncode": 17.17,
    "BaseResolution": 104,
    "BodyPartExamined": "BRAIN",
    "CogAtlasID": "trm_4c898da401420",
    "ConsistencyInfo": "N4_VE11C_LATEST_20160120",
    "ConversionSoftware": "dcm2niix",
    "ConversionSoftwareVersion": "v1.0.20171215 (OpenJPEG build) GCC7.3.0",
    "DerivedVendorReportedEchoSpacing": 0.000560011,
    "DeviceSerialNumber": "167006",
    "DwellTime": 2.1e-06,
    "EchoTime": 0.037,
    "EchoTrainLength": 104,
    "EffectiveEchoSpacing": 0.000560011,
    "FlipAngle": 52,
    "ImageComments": "Unaliased_MB4_PE3_LB",
    "ImageOrientationPatientDICOM": [
      0.994763,
      0.100464,
      0.0188061,
      -0.0926316,
      0.963922,
      -0.249549
    ],
    "ImageType": [
      "ORIGINAL",
      "PRIMARY",
      "M",
      "MB",
      "ND",
      "MOSAIC"
    ],
    "InPlanePhaseEncodingDirectionDICOM": "COL",
    "InstitutionAddress": "Chemin_Queen-Mary_4565_Montreal_District_CA_H3W_1W5",
    "InstitutionName": "IUGM",
    "InstitutionalDepartmentName": "Department",
    "MRAcquisitionType": "2D",
    "MagneticFieldStrength": 3,
    "Manufacturer": "Siemens",
    "ManufacturersModelName": "Prisma_fit",
    "Modality": "MR",
    "MultibandAccelerationFactor": 4,
    "PartialFourier": 1,
    "PatientPosition": "HFS",
    "PercentPhaseFOV": 100,
    "PhaseEncodingDirection": "j-",
    "PhaseEncodingSteps": 104,
    "PhaseResolution": 1,
    "PixelBandwidth": 2290,
    "ProcedureStepDescription": "video5_generic",
    "ProtocolName": "func_task-wolf17",
    "PulseSequenceDetails": "%CustomerSeq%_cmrr_mbep2d_bold",
    "ReceiveCoilActiveElements": "HC1-7;NC1,2",
    "ReceiveCoilName": "HeadNeck_64",
    "ReconMatrixPE": 104,
    "RepetitionTime": 1.49,
    "SAR": 0.0388352,
    "ScanOptions": "FS",
    "ScanningSequence": "EP",
    "SequenceName": "epfid2d1_104",
    "SequenceVariant": "SK_SS",
    "SeriesDescription": "func_task-wolf17",
    "SeriesNumber": 9,
    "ShimSetting": [
      641,
      -7191,
      -8814,
      671,
      126,
      37,
      -14,
      1
    ],
    "SliceThickness": 2,
    "SliceTiming": [
      0,
      0.785,
      0.0975,
      0.8825,
      0.1975,
      0.98,
      0.295,
      1.0775,
      0.3925,
      1.1775,
      0.49,
      1.275,
      0.5875,
      1.3725,
      0.6875,
      0,
      0.785,
      0.0975,
      0.8825,
      0.1975,
      0.98,
      0.295,
      1.0775,
      0.3925,
      1.1775,
      0.49,
      1.275,
      0.5875,
      1.3725,
      0.6875,
      0,
      0.785,
      0.0975,
      0.8825,
      0.1975,
      0.98,
      0.295,
      1.0775,
      0.3925,
      1.1775,
      0.49,
      1.275,
      0.5875,
      1.3725,
      0.6875,
      0,
      0.785,
      0.0975,
      0.8825,
      0.1975,
      0.98,
      0.295,
      1.0775,
      0.3925,
      1.1775,
      0.49,
      1.275,
      0.5875,
      1.3725,
      0.6875
    ],
    "SoftwareVersions": "syngo_MR_E11",
    "SpacingBetweenSlices": 2,
    "StationName": "MRC35049",
    "TaskName": "wolf17",
    "TotalReadoutTime": 0.0576811,
    "TxRefAmp": 252.138,
    "dataset": "<unset>",
    "dcmmeta_affine": [
      [
        -1.9895257949829102,
        -0.18526329100131989,
        0.0863967314362526,
        112.6333236694336
      ],
      [
        -0.20092833042144775,
        1.9278430938720703,
        -0.49299994111061096,
        -52.77704620361328
      ],
      [
        0.037612274289131165,
        0.4990978240966797,
        1.936359167098999,
        -53.305606842041016
      ],
      [
        0.0,
        0.0,
        0.0,
        1.0
      ]
    ],
    "dcmmeta_reorient_transform": [
      [
        0.0,
        -1.0,
        0.0,
        103.0
      ],
      [
        1.0,
        0.0,
        0.0,
        0.0
      ],
      [
        0.0,
        0.0,
        1.0,
        0.0
      ],
      [
        0.0,
        0.0,
        0.0,
        1.0
      ]
    ],
    "dcmmeta_shape": [
      104,
      104,
      60,
      498
    ],
    "dcmmeta_slice_dim": 2,
    "dcmmeta_version": 0.6,
    "global": {
      "const": {
        "AcquisitionMatrix": [
          104,
          0,
          0,
          104
        ],
        "AngioFlag": "N",
        "BitsAllocated": 16,
        "BitsStored": 16,
        "BodyPartExamined": "BRAIN",
        "Columns": 832,
        "EchoNumbers": 1,
        "EchoTime": 37.0,
        "EchoTrainLength": 104,
        "FlipAngle": 52.0,
        "HighBit": 15,
        "ImageOrientationPatient": [
          0.99476292656553,
          0.10046416858129,
          0.01880613628734,
          -0.0926316428437,
          0.96392153006476,
          -0.249548918294
        ],
        "ImagePositionPatient": [
          -750.3027835144,
          -920.66357824495,
          166.08221597351
        ],
        "ImageType": [
          "ORIGINAL",
          "PRIMARY",
          "M",
          "MB",
          "ND",
          "MOSAIC"
        ],
        "ImagedNucleus": "1H",
        "ImagingFrequency": 123.259451,
        "InPlanePhaseEncodingDirection": "COL",
        "MRAcquisitionType": "2D",
        "MagneticFieldStrength": 3.0,
        "Manufacturer": "SIEMENS",
        "ManufacturerModelName": "Prisma_fit",
        "Modality": "MR",
        "NumberOfAverages": 1.0,
        "NumberOfPhaseEncodingSteps": 104,
        "PercentPhaseFieldOfView": 100.0,
        "PercentSampling": 100.0,
        "PerformedProcedureStepStartTime": "155015.894000",
        "PhotometricInterpretation": "MONOCHROME2",
        "PixelBandwidth": 2290.0,
        "PixelRepresentation": 0,
        "PixelSpacing": [
          2.0,
          2.0
        ],
        "ProtocolName": "func_task-wolf17",
        "RepetitionTime": 1490.0,
        "Rows": 832,
        "SAR": 0.03883524982671,
        "SamplesPerPixel": 1,
        "ScanOptions": "FS",
        "ScanningSequence": "EP",
        "SequenceName": "epfid2d1_104",
        "SequenceVariant": [
          "SK",
          "SS"
        ],
        "SeriesDescription": "func_task-wolf17",
        "SeriesNumber": 9,
        "SeriesTime": "161242.380000",
        "SliceLocation": -33.734283214929,
        "SliceThickness": 2.0,
        "SmallestImagePixelValue": 0,
        "SoftwareVersions": "syngo MR E11",
        "SpacingBetweenSlices": 2.0000000180549,
        "SpecificCharacterSet": "ISO_IR 100",
        "StudyID": "1",
        "StudyTime": "155015.847000",
        "TransmitCoilName": "Body",
        "VariableFlipAngleFlag": "N",
        "WindowCenterWidthExplanation": "Algo1",
        "dBdt": 0.0
      },
      "slices": {}
    },
    "modality": "bold",
    "session_id": "006",
    "subject_id": "01",
    "task_id": "wolf17",
    "time": {
      "samples": {
        "AcquisitionNumber": [
          1,
          2,
          3,
          4,
          5,
          6,
          7,
          8,
          9,
          10,
          11,
          12,
          13,
          14,
          15,
          16,
          17,
          18,
          19,
          20,
          21,
          22,
          23,
          24,
          25,
          26,
          27,
          28,
          29,
          30,
          31,
          32,
          33,
          34,
          35,
          36,
          37,
          38,
          39,
          40,
          41,
          42,
          43,
          44,
          45,
          46,
          47,
          48,
          49,
          50,
          51,
          52,
          53,
          54,
          55,
          56,
          57,
          58,
          59,
          60,
          61,
          62,
          63,
          64,
          65,
          66,
          67,
          68,
          69,
          70,
          71,
          72,
          73,
          74,
          75,
          76,
          77,
          78,
          79,
          80,
          81,
          82,
          83,
          84,
          85,
          86,
          87,
          88,
          89,
          90,
          91,
          92,
          93,
          94,
          95,
          96,
          97,
          98,
          99,
          100,
          101,
          102,
          103,
          104,
          105,
          106,
          107,
          108,
          109,
          110,
          111,
          112,
          113,
          114,
          115,
          116,
          117,
          118,
          119,
          120,
          121,
          122,
          123,
          124,
          125,
          126,
          127,
          128,
          129,
          130,
          131,
          132,
          133,
          134,
          135,
          136,
          137,
          138,
          139,
          140,
          141,
          142,
          143,
          144,
          145,
          146,
          147,
          148,
          149,
          150,
          151,
          152,
          153,
          154,
          155,
          156,
          157,
          158,
          159,
          160,
          161,
          162,
          163,
          164,
          165,
          166,
          167,
          168,
          169,
          170,
          171,
          172,
          173,
          174,
          175,
          176,
          177,
          178,
          179,
          180,
          181,
          182,
          183,
          184,
          185,
          186,
          187,
          188,
          189,
          190,
          191,
          192,
          193,
          194,
          195,
          196,
          197,
          198,
          199,
          200,
          201,
          202,
          203,
          204,
          205,
          206,
          207,
          208,
          209,
          210,
          211,
          212,
          213,
          214,
          215,
          216,
          217,
          218,
          219,
          220,
          221,
          222,
          223,
          224,
          225,
          226,
          227,
          228,
          229,
          230,
          231,
          232,
          233,
          234,
          235,
          236,
          237,
          238,
          239,
          240,
          241,
          242,
          243,
          244,
          245,
          246,
          247,
          248,
          249,
          250,
          251,
          252,
          253,
          254,
          255,
          256,
          257,
          258,
          259,
          260,
          261,
          262,
          263,
          264,
          265,
          266,
          267,
          268,
          269,
          270,
          271,
          272,
          273,
          274,
          275,
          276,
          277,
          278,
          279,
          280,
          281,
          282,
          283,
          284,
          285,
          286,
          287,
          288,
          289,
          290,
          291,
          292,
          293,
          294,
          295,
          296,
          297,
          298,
          299,
          300,
          301,
          302,
          303,
          304,
          305,
          306,
          307,
          308,
          309,
          310,
          311,
          312,
          313,
          314,
          315,
          316,
          317,
          318,
          319,
          320,
          321,
          322,
          323,
          324,
          325,
          326,
          327,
          328,
          329,
          330,
          331,
          332,
          333,
          334,
          335,
          336,
          337,
          338,
          339,
          340,
          341,
          342,
          343,
          344,
          345,
          346,
          347,
          348,
          349,
          350,
          351,
          352,
          353,
          354,
          355,
          356,
          357,
          358,
          359,
          360,
          361,
          362,
          363,
          364,
          365,
          366,
          367,
          368,
          369,
          370,
          371,
          372,
          373,
          374,
          375,
          376,
          377,
          378,
          379,
          380,
          381,
          382,
          383,
          384,
          385,
          386,
          387,
          388,
          389,
          390,
          391,
          392,
          393,
          394,
          395,
          396,
          397,
          398,
          399,
          400,
          401,
          402,
          403,
          404,
          405,
          406,
          407,
          408,
          409,
          410,
          411,
          412,
          413,
          414,
          415,
          416,
          417,
          418,
          419,
          420,
          421,
          422,
          423,
          424,
          425,
          426,
          427,
          428,
          429,
          430,
          431,
          432,
          433,
          434,
          435,
          436,
          437,
          438,
          439,
          440,
          441,
          442,
          443,
          444,
          445,
          446,
          447,
          448,
          449,
          450,
          451,
          452,
          453,
          454,
          455,
          456,
          457,
          458,
          459,
          460,
          461,
          462,
          463,
          464,
          465,
          466,
          467,
          468,
          469,
          470,
          471,
          472,
          473,
          474,
          475,
          476,
          477,
          478,
          479,
          480,
          481,
          482,
          483,
          484,
          485,
          486,
          487,
          488,
          489,
          490,
          491,
          492,
          493,
          494,
          495,
          496,
          497,
          498
        ],
        "AcquisitionTime": [
          "161110.762500",
          "161112.252500",
          "161113.742500",
          "161115.232500",
          "161116.722500",
          "161118.212500",
          "161119.702500",
          "161121.192500",
          "161122.682500",
          "161124.172500",
          "161125.662500",
          "161127.152500",
          "161128.642500",
          "161130.132500",
          "161131.622500",
          "161133.112500",
          "161134.602500",
          "161136.092500",
          "161137.582500",
          "161139.072500",
          "161140.562500",
          "161142.052500",
          "161143.542500",
          "161145.032500",
          "161146.522500",
          "161148.012500",
          "161149.502500",
          "161150.992500",
          "161152.482500",
          "161153.972500",
          "161155.462500",
          "161156.952500",
          "161158.442500",
          "161159.932500",
          "161201.422500",
          "161202.912500",
          "161204.402500",
          "161205.892500",
          "161207.382500",
          "161208.872500",
          "161210.362500",
          "161211.852500",
          "161213.342500",
          "161214.832500",
          "161216.322500",
          "161217.812500",
          "161219.302500",
          "161220.792500",
          "161222.282500",
          "161223.772500",
          "161225.262500",
          "161226.752500",
          "161228.242500",
          "161229.732500",
          "161231.222500",
          "161232.712500",
          "161234.202500",
          "161235.692500",
          "161237.182500",
          "161238.672500",
          "161240.162500",
          "161241.652500",
          "161243.142500",
          "161244.632500",
          "161246.122500",
          "161247.612500",
          "161249.102500",
          "161250.592500",
          "161252.082500",
          "161253.572500",
          "161255.062500",
          "161256.552500",
          "161258.042500",
          "161259.532500",
          "161301.022500",
          "161302.512500",
          "161304.002500",
          "161305.492500",
          "161306.982500",
          "161308.472500",
          "161309.962500",
          "161311.452500",
          "161312.942500",
          "161314.432500",
          "161315.922500",
          "161317.412500",
          "161318.902500",
          "161320.392500",
          "161321.882500",
          "161323.372500",
          "161324.862500",
          "161326.352500",
          "161327.842500",
          "161329.332500",
          "161330.822500",
          "161332.312500",
          "161333.802500",
          "161335.292500",
          "161336.782500",
          "161338.272500",
          "161339.762500",
          "161341.252500",
          "161342.742500",
          "161344.232500",
          "161345.722500",
          "161347.212500",
          "161348.702500",
          "161350.192500",
          "161351.682500",
          "161353.172500",
          "161354.662500",
          "161356.152500",
          "161357.642500",
          "161359.132500",
          "161400.622500",
          "161402.112500",
          "161403.602500",
          "161405.092500",
          "161406.582500",
          "161408.072500",
          "161409.562500",
          "161411.052500",
          "161412.542500",
          "161414.032500",
          "161415.522500",
          "161417.012500",
          "161418.502500",
          "161419.992500",
          "161421.482500",
          "161422.972500",
          "161424.462500",
          "161425.952500",
          "161427.442500",
          "161428.932500",
          "161430.422500",
          "161431.912500",
          "161433.402500",
          "161434.892500",
          "161436.382500",
          "161437.872500",
          "161439.362500",
          "161440.852500",
          "161442.342500",
          "161443.832500",
          "161445.322500",
          "161446.812500",
          "161448.302500",
          "161449.792500",
          "161451.282500",
          "161452.772500",
          "161454.262500",
          "161455.752500",
          "161457.242500",
          "161458.732500",
          "161500.222500",
          "161501.712500",
          "161503.202500",
          "161504.692500",
          "161506.182500",
          "161507.672500",
          "161509.162500",
          "161510.652500",
          "161512.142500",
          "161513.632500",
          "161515.122500",
          "161516.612500",
          "161518.102500",
          "161519.592500",
          "161521.082500",
          "161522.572500",
          "161524.062500",
          "161525.552500",
          "161527.042500",
          "161528.532500",
          "161530.022500",
          "161531.512500",
          "161533.002500",
          "161534.492500",
          "161535.982500",
          "161537.472500",
          "161538.962500",
          "161540.452500",
          "161541.942500",
          "161543.432500",
          "161544.922500",
          "161546.412500",
          "161547.902500",
          "161549.392500",
          "161550.882500",
          "161552.372500",
          "161553.862500",
          "161555.352500",
          "161556.842500",
          "161558.332500",
          "161559.822500",
          "161601.312500",
          "161602.802500",
          "161604.292500",
          "161605.782500",
          "161607.272500",
          "161608.762500",
          "161610.252500",
          "161611.742500",
          "161613.232500",
          "161614.722500",
          "161616.212500",
          "161617.702500",
          "161619.192500",
          "161620.682500",
          "161622.172500",
          "161623.662500",
          "161625.152500",
          "161626.642500",
          "161628.132500",
          "161629.622500",
          "161631.112500",
          "161632.602500",
          "161634.092500",
          "161635.582500",
          "161637.072500",
          "161638.562500",
          "161640.052500",
          "161641.542500",
          "161643.032500",
          "161644.522500",
          "161646.012500",
          "161647.502500",
          "161648.992500",
          "161650.482500",
          "161651.972500",
          "161653.462500",
          "161654.952500",
          "161656.442500",
          "161657.932500",
          "161659.422500",
          "161700.912500",
          "161702.402500",
          "161703.892500",
          "161705.382500",
          "161706.872500",
          "161708.362500",
          "161709.852500",
          "161711.342500",
          "161712.832500",
          "161714.322500",
          "161715.812500",
          "161717.302500",
          "161718.792500",
          "161720.282500",
          "161721.772500",
          "161723.262500",
          "161724.752500",
          "161726.242500",
          "161727.732500",
          "161729.222500",
          "161730.712500",
          "161732.202500",
          "161733.692500",
          "161735.182500",
          "161736.672500",
          "161738.162500",
          "161739.652500",
          "161741.142500",
          "161742.632500",
          "161744.122500",
          "161745.612500",
          "161747.102500",
          "161748.592500",
          "161750.082500",
          "161751.572500",
          "161753.062500",
          "161754.552500",
          "161756.042500",
          "161757.532500",
          "161759.022500",
          "161800.512500",
          "161802.002500",
          "161803.492500",
          "161804.982500",
          "161806.472500",
          "161807.962500",
          "161809.452500",
          "161810.942500",
          "161812.432500",
          "161813.922500",
          "161815.412500",
          "161816.902500",
          "161818.392500",
          "161819.882500",
          "161821.372500",
          "161822.862500",
          "161824.352500",
          "161825.842500",
          "161827.332500",
          "161828.822500",
          "161830.312500",
          "161831.802500",
          "161833.292500",
          "161834.782500",
          "161836.272500",
          "161837.762500",
          "161839.252500",
          "161840.742500",
          "161842.232500",
          "161843.722500",
          "161845.212500",
          "161846.702500",
          "161848.192500",
          "161849.682500",
          "161851.172500",
          "161852.662500",
          "161854.152500",
          "161855.642500",
          "161857.132500",
          "161858.622500",
          "161900.112500",
          "161901.602500",
          "161903.092500",
          "161904.582500",
          "161906.072500",
          "161907.562500",
          "161909.052500",
          "161910.542500",
          "161912.032500",
          "161913.522500",
          "161915.012500",
          "161916.502500",
          "161917.992500",
          "161919.482500",
          "161920.972500",
          "161922.462500",
          "161923.952500",
          "161925.442500",
          "161926.932500",
          "161928.422500",
          "161929.912500",
          "161931.402500",
          "161932.892500",
          "161934.382500",
          "161935.872500",
          "161937.362500",
          "161938.852500",
          "161940.342500",
          "161941.832500",
          "161943.322500",
          "161944.812500",
          "161946.302500",
          "161947.792500",
          "161949.282500",
          "161950.772500",
          "161952.262500",
          "161953.752500",
          "161955.242500",
          "161956.732500",
          "161958.222500",
          "161959.712500",
          "162001.202500",
          "162002.692500",
          "162004.182500",
          "162005.672500",
          "162007.162500",
          "162008.652500",
          "162010.142500",
          "162011.632500",
          "162013.122500",
          "162014.612500",
          "162016.102500",
          "162017.592500",
          "162019.082500",
          "162020.572500",
          "162022.062500",
          "162023.552500",
          "162025.042500",
          "162026.532500",
          "162028.022500",
          "162029.512500",
          "162031.002500",
          "162032.492500",
          "162033.982500",
          "162035.472500",
          "162036.962500",
          "162038.452500",
          "162039.942500",
          "162041.432500",
          "162042.922500",
          "162044.412500",
          "162045.902500",
          "162047.392500",
          "162048.882500",
          "162050.372500",
          "162051.862500",
          "162053.352500",
          "162054.842500",
          "162056.332500",
          "162057.822500",
          "162059.312500",
          "162100.802500",
          "162102.292500",
          "162103.782500",
          "162105.272500",
          "162106.762500",
          "162108.252500",
          "162109.742500",
          "162111.232500",
          "162112.722500",
          "162114.212500",
          "162115.702500",
          "162117.192500",
          "162118.682500",
          "162120.172500",
          "162121.662500",
          "162123.152500",
          "162124.642500",
          "162126.132500",
          "162127.622500",
          "162129.112500",
          "162130.602500",
          "162132.092500",
          "162133.582500",
          "162135.072500",
          "162136.562500",
          "162138.052500",
          "162139.542500",
          "162141.032500",
          "162142.522500",
          "162144.012500",
          "162145.502500",
          "162146.992500",
          "162148.482500",
          "162149.972500",
          "162151.462500",
          "162152.952500",
          "162154.442500",
          "162155.932500",
          "162157.422500",
          "162158.912500",
          "162200.402500",
          "162201.892500",
          "162203.382500",
          "162204.872500",
          "162206.362500",
          "162207.852500",
          "162209.342500",
          "162210.832500",
          "162212.322500",
          "162213.812500",
          "162215.302500",
          "162216.792500",
          "162218.282500",
          "162219.772500",
          "162221.262500",
          "162222.752500",
          "162224.242500",
          "162225.732500",
          "162227.222500",
          "162228.712500",
          "162230.202500",
          "162231.692500",
          "162233.182500",
          "162234.672500",
          "162236.162500",
          "162237.652500",
          "162239.142500",
          "162240.632500",
          "162242.122500",
          "162243.612500",
          "162245.102500",
          "162246.592500",
          "162248.082500",
          "162249.572500",
          "162251.062500",
          "162252.552500",
          "162254.042500",
          "162255.532500",
          "162257.022500",
          "162258.512500",
          "162300.002500",
          "162301.492500",
          "162302.982500",
          "162304.472500",
          "162305.962500",
          "162307.452500",
          "162308.942500",
          "162310.432500",
          "162311.922500",
          "162313.412500",
          "162314.902500",
          "162316.392500",
          "162317.882500",
          "162319.372500",
          "162320.862500",
          "162322.352500",
          "162323.842500",
          "162325.332500",
          "162326.822500",
          "162328.312500",
          "162329.802500",
          "162331.292500"
        ],
        "ContentTime": [
          "161242.383000",
          "161242.386000",
          "161242.390000",
          "161242.392000",
          "161242.395000",
          "161242.398000",
          "161242.401000",
          "161242.404000",
          "161242.407000",
          "161242.410000",
          "161242.413000",
          "161242.417000",
          "161242.420000",
          "161242.423000",
          "161242.426000",
          "161242.429000",
          "161242.432000",
          "161242.434000",
          "161242.438000",
          "161242.440000",
          "161242.443000",
          "161242.446000",
          "161242.449000",
          "161242.452000",
          "161242.455000",
          "161242.458000",
          "161242.461000",
          "161242.464000",
          "161242.467000",
          "161242.470000",
          "161242.472000",
          "161242.475000",
          "161242.478000",
          "161242.481000",
          "161242.484000",
          "161242.487000",
          "161242.490000",
          "161242.493000",
          "161302.352000",
          "161302.355000",
          "161302.358000",
          "161302.361000",
          "161302.363000",
          "161302.366000",
          "161302.369000",
          "161302.372000",
          "161302.375000",
          "161302.378000",
          "161302.381000",
          "161302.383000",
          "161302.386000",
          "161302.389000",
          "161302.392000",
          "161302.395000",
          "161302.398000",
          "161302.401000",
          "161302.404000",
          "161302.406000",
          "161302.409000",
          "161322.352000",
          "161322.355000",
          "161322.358000",
          "161322.361000",
          "161322.364000",
          "161322.367000",
          "161322.369000",
          "161322.372000",
          "161322.375000",
          "161322.378000",
          "161322.381000",
          "161322.384000",
          "161322.387000",
          "161322.390000",
          "161322.393000",
          "161322.395000",
          "161322.398000",
          "161322.401000",
          "161322.404000",
          "161322.407000",
          "161342.351000",
