{
  "aor": 0.003836305418719212,
  "aqi": 0.0125995781773399,
  "bids_meta": {
    "AcquisitionMatrixPE": 104,
    "AcquisitionNumber": 1,
    "AcquisitionTime": "16:48:19.835000",
    "BandwidthPerPixelPhaseEncode": 17.17,
    "BaseResolution": 104,
    "BodyPartExamined": "BRAIN",
    "CogAtlasID": "trm_4c898da401420",
    "ConsistencyInfo": "N4_VE11C_LATEST_20160120",
    "ConversionSoftware": "dcm2niix",
    "ConversionSoftwareVersion": "v1.0.20171215 (OpenJPEG build) GCC7.3.0",
    "DerivedVendorReportedEchoSpacing": 0.000560011,
    "DeviceSerialNumber": "167006",
    "DwellTime": 2.1e-06,
    "EchoTime": 0.037,
    "EchoTrainLength": 104,
    "EffectiveEchoSpacing": 0.000560011,
    "FlipAngle": 52,
    "ImageComments": "Unaliased_MB4_PE3_LB",
    "ImageOrientationPatientDICOM": [
      0.995316,
      0.0914272,
      0.0314095,
      -0.0804309,
      0.963425,
      -0.255623
    ],
    "ImageType": [
      "ORIGINAL",
      "PRIMARY",
      "M",
      "MB",
      "ND",
      "MOSAIC"
    ],
    "InPlanePhaseEncodingDirectionDICOM": "COL",
    "InstitutionAddress": "Chemin_Queen-Mary_4565_Montreal_District_CA_H3W_1W5",
    "InstitutionName": "IUGM",
    "InstitutionalDepartmentName": "Department",
    "MRAcquisitionType": "2D",
    "MagneticFieldStrength": 3,
    "Manufacturer": "Siemens",
    "ManufacturersModelName": "Prisma_fit",
    "Modality": "MR",
    "MultibandAccelerationFactor": 4,
    "PartialFourier": 1,
    "PatientPosition": "HFS",
    "PercentPhaseFOV": 100,
    "PhaseEncodingDirection": "j-",
    "PhaseEncodingSteps": 104,
    "PhaseResolution": 1,
    "PixelBandwidth": 2290,
    "ProcedureStepDescription": "video5_generic",
    "ProtocolName": "func_task-life2",
    "PulseSequenceDetails": "%CustomerSeq%_cmrr_mbep2d_bold",
    "ReceiveCoilActiveElements": "HC1-7;NC1,2",
    "ReceiveCoilName": "HeadNeck_64",
    "ReconMatrixPE": 104,
    "RepetitionTime": 1.49,
    "SAR": 0.0407101,
    "ScanOptions": "FS",
    "ScanningSequence": "EP",
    "SequenceName": "epfid2d1_104",
    "SequenceVariant": "SK_SS",
    "SeriesDescription": "func_task-life2",
    "SeriesNumber": 22,
    "ShimSetting": [
      648,
      -7183,
      -8814,
      684,
      137,
      44,
      -6,
      16
    ],
    "SliceThickness": 2,
    "SliceTiming": [
      0,
      0.785,
      0.1,
      0.8825,
      0.1975,
      0.98,
      0.295,
      1.08,
      0.3925,
      1.1775,
      0.49,
      1.275,
      0.59,
      1.3725,
      0.6875,
      0,
      0.785,
      0.1,
      0.8825,
      0.1975,
      0.98,
      0.295,
      1.08,
      0.3925,
      1.1775,
      0.49,
      1.275,
      0.59,
      1.3725,
      0.6875,
      0,
      0.785,
      0.1,
      0.8825,
      0.1975,
      0.98,
      0.295,
      1.08,
      0.3925,
      1.1775,
      0.49,
      1.275,
      0.59,
      1.3725,
      0.6875,
      0,
      0.785,
      0.1,
      0.8825,
      0.1975,
      0.98,
      0.295,
      1.08,
      0.3925,
      1.1775,
      0.49,
      1.275,
      0.59,
      1.3725,
      0.6875
    ],
    "SoftwareVersions": "syngo_MR_E11",
    "SpacingBetweenSlices": 2,
    "StationName": "MRC35049",
    "TaskName": "life02",
    "TotalReadoutTime": 0.0576811,
    "TxRefAmp": 255.472,
    "dataset": "<unset>",
    "dcmmeta_affine": [
      [
        -1.9906325340270996,
        -0.16086187958717346,
        0.10726310312747955,
        110.94735717773438
      ],
      [
        -0.1828543096780777,
        1.9268500804901123,
        -0.5037988424301147,
        -59.99827575683594
      ],
      [
        0.06281894445419312,
        0.5112459659576416,
        1.9325324296951294,
        -56.706241607666016
      ],
      [
        0.0,
        0.0,
        0.0,
        1.0
      ]
    ],
    "dcmmeta_reorient_transform": [
      [
        0.0,
        -1.0,
        0.0,
        103.0
      ],
      [
        1.0,
        0.0,
        0.0,
        0.0
      ],
      [
        0.0,
        0.0,
        1.0,
        0.0
      ],
      [
        0.0,
        0.0,
        0.0,
        1.0
      ]
    ],
    "dcmmeta_shape": [
      104,
      104,
      60,
      406
    ],
    "dcmmeta_slice_dim": 2,
    "dcmmeta_version": 0.6,
    "global": {
      "const": {
        "AcquisitionMatrix": [
          104,
          0,
          0,
          104
        ],
        "AngioFlag": "N",
        "BitsAllocated": 16,
        "BitsStored": 16,
        "BodyPartExamined": "BRAIN",
        "Columns": 832,
        "EchoNumbers": 1,
        "EchoTime": 37.0,
        "EchoTrainLength": 104,
        "FlipAngle": 52.0,
        "HighBit": 15,
        "ImageOrientationPatient": [
          0.99531629179726,
          0.09142715294634,
          0.03140947288755,
          -0.0804309384062,
          0.96342501509265,
          -0.2556229732258
        ],
        "ImagePositionPatient": [
          -760.41512318331,
          -906.39965525192,
          159.17951861874
        ],
        "ImageType": [
          "ORIGINAL",
          "PRIMARY",
          "M",
          "MB",
          "ND",
          "MOSAIC"
        ],
        "ImagedNucleus": "1H",
        "ImagingFrequency": 123.259457,
        "InPlanePhaseEncodingDirection": "COL",
        "MRAcquisitionType": "2D",
        "MagneticFieldStrength": 3.0,
        "Manufacturer": "SIEMENS",
        "ManufacturerModelName": "Prisma_fit",
        "Modality": "MR",
        "NumberOfAverages": 1.0,
        "NumberOfPhaseEncodingSteps": 104,
        "PercentPhaseFieldOfView": 100.0,
        "PercentSampling": 100.0,
        "PerformedProcedureStepStartTime": "155015.894000",
        "PhotometricInterpretation": "MONOCHROME2",
        "PixelBandwidth": 2290.0,
        "PixelRepresentation": 0,
        "PixelSpacing": [
          2.0,
          2.0
        ],
        "ProtocolName": "func_task-life2",
        "RepetitionTime": 1490.0,
        "Rows": 832,
        "SAR": 0.04071011885621,
        "SamplesPerPixel": 1,
        "ScanOptions": "FS",
        "ScanningSequence": "EP",
        "SequenceName": "epfid2d1_104",
        "SequenceVariant": [
          "SK",
          "SS"
        ],
        "SeriesDescription": "func_task-life2",
        "SeriesNumber": 22,
        "SeriesTime": "164918.709000",
        "SliceLocation": -33.72951435329,
        "SliceThickness": 2.0,
        "SmallestImagePixelValue": 0,
        "SoftwareVersions": "syngo MR E11",
        "SpacingBetweenSlices": 2.0000000148802,
        "SpecificCharacterSet": "ISO_IR 100",
        "StudyID": "1",
        "StudyTime": "155015.847000",
        "TransmitCoilName": "Body",
        "VariableFlipAngleFlag": "N",
        "WindowCenterWidthExplanation": "Algo1",
        "dBdt": 0.0
      },
      "slices": {}
    },
    "modality": "bold",
    "run_id": 1,
    "session_id": "006",
    "subject_id": "01",
    "task_id": "life02",
    "time": {
      "samples": {
        "AcquisitionNumber": [
          1,
          2,
          3,
          4,
          5,
          6,
          7,
          8,
          9,
          10,
          11,
          12,
          13,
          14,
          15,
          16,
          17,
          18,
          19,
          20,
          21,
          22,
          23,
          24,
          25,
          26,
          27,
          28,
          29,
          30,
          31,
          32,
          33,
          34,
          35,
          36,
          37,
          38,
          39,
          40,
          41,
          42,
          43,
          44,
          45,
          46,
          47,
          48,
          49,
          50,
          51,
          52,
          53,
          54,
          55,
          56,
          57,
          58,
          59,
          60,
          61,
          62,
          63,
          64,
          65,
          66,
          67,
          68,
          69,
          70,
          71,
          72,
          73,
          74,
          75,
          76,
          77,
          78,
          79,
          80,
          81,
          82,
          83,
          84,
          85,
          86,
          87,
          88,
          89,
          90,
          91,
          92,
          93,
          94,
          95,
          96,
          97,
          98,
          99,
          100,
          101,
          102,
          103,
          104,
          105,
          106,
          107,
          108,
          109,
          110,
          111,
          112,
          113,
          114,
          115,
          116,
          117,
          118,
          119,
          120,
          121,
          122,
          123,
          124,
          125,
          126,
          127,
          128,
          129,
          130,
          131,
          132,
          133,
          134,
          135,
          136,
          137,
          138,
          139,
          140,
          141,
          142,
          143,
          144,
          145,
          146,
          147,
          148,
          149,
          150,
          151,
          152,
          153,
          154,
          155,
          156,
          157,
          158,
          159,
          160,
          161,
          162,
          163,
          164,
          165,
          166,
          167,
          168,
          169,
          170,
          171,
          172,
          173,
          174,
          175,
          176,
          177,
          178,
          179,
          180,
          181,
          182,
          183,
          184,
          185,
          186,
          187,
          188,
          189,
          190,
          191,
          192,
          193,
          194,
          195,
          196,
          197,
          198,
          199,
          200,
          201,
          202,
          203,
          204,
          205,
          206,
          207,
          208,
          209,
          210,
          211,
          212,
          213,
          214,
          215,
          216,
          217,
          218,
          219,
          220,
          221,
          222,
          223,
          224,
          225,
          226,
          227,
          228,
          229,
          230,
          231,
          232,
          233,
          234,
          235,
          236,
          237,
          238,
          239,
          240,
          241,
          242,
          243,
          244,
          245,
          246,
          247,
          248,
          249,
          250,
          251,
          252,
          253,
          254,
          255,
          256,
          257,
          258,
          259,
          260,
          261,
          262,
          263,
          264,
          265,
          266,
          267,
          268,
          269,
          270,
          271,
          272,
          273,
          274,
          275,
          276,
          277,
          278,
          279,
          280,
          281,
          282,
          283,
          284,
          285,
          286,
          287,
          288,
          289,
          290,
          291,
          292,
          293,
          294,
          295,
          296,
          297,
          298,
          299,
          300,
          301,
          302,
          303,
          304,
          305,
          306,
          307,
          308,
          309,
          310,
          311,
          312,
          313,
          314,
          315,
          316,
          317,
          318,
          319,
          320,
          321,
          322,
          323,
          324,
          325,
          326,
          327,
          328,
          329,
          330,
          331,
          332,
          333,
          334,
          335,
          336,
          337,
          338,
          339,
          340,
          341,
          342,
          343,
          344,
          345,
          346,
          347,
          348,
          349,
          350,
          351,
          352,
          353,
          354,
          355,
          356,
          357,
          358,
          359,
          360,
          361,
          362,
          363,
          364,
          365,
          366,
          367,
          368,
          369,
          370,
          371,
          372,
          373,
          374,
          375,
          376,
          377,
          378,
          379,
          380,
          381,
          382,
          383,
          384,
          385,
          386,
          387,
          388,
          389,
          390,
          391,
          392,
          393,
          394,
          395,
          396,
          397,
          398,
          399,
          400,
          401,
          402,
          403,
          404,
          405,
          406
        ],
        "AcquisitionTime": [
          "164819.835000",
          "164821.325000",
          "164822.815000",
          "164824.305000",
          "164825.795000",
          "164827.285000",
          "164828.775000",
          "164830.265000",
          "164831.755000",
          "164833.245000",
          "164834.735000",
          "164836.225000",
          "164837.715000",
          "164839.205000",
          "164840.695000",
          "164842.185000",
          "164843.675000",
          "164845.165000",
          "164846.655000",
          "164848.145000",
          "164849.635000",
          "164851.125000",
          "164852.615000",
          "164854.105000",
          "164855.595000",
          "164857.085000",
          "164858.575000",
          "164900.065000",
          "164901.555000",
          "164903.045000",
          "164904.535000",
          "164906.025000",
          "164907.515000",
          "164909.005000",
          "164910.495000",
          "164911.985000",
          "164913.475000",
          "164914.965000",
          "164916.455000",
          "164917.945000",
          "164919.435000",
          "164920.925000",
          "164922.415000",
          "164923.905000",
          "164925.395000",
          "164926.885000",
          "164928.375000",
          "164929.865000",
          "164931.355000",
          "164932.845000",
          "164934.335000",
          "164935.825000",
          "164937.315000",
          "164938.805000",
          "164940.295000",
          "164941.785000",
          "164943.275000",
          "164944.765000",
          "164946.255000",
          "164947.745000",
          "164949.235000",
          "164950.725000",
          "164952.215000",
          "164953.705000",
          "164955.195000",
          "164956.685000",
          "164958.175000",
          "164959.665000",
          "165001.155000",
          "165002.645000",
          "165004.135000",
          "165005.625000",
          "165007.115000",
          "165008.605000",
          "165010.095000",
          "165011.585000",
          "165013.075000",
          "165014.565000",
          "165016.055000",
          "165017.545000",
          "165019.035000",
          "165020.525000",
          "165022.015000",
          "165023.505000",
          "165024.995000",
          "165026.485000",
          "165027.975000",
          "165029.465000",
          "165030.955000",
          "165032.445000",
          "165033.935000",
          "165035.425000",
          "165036.915000",
          "165038.405000",
          "165039.895000",
          "165041.385000",
          "165042.875000",
          "165044.365000",
          "165045.855000",
          "165047.345000",
          "165048.835000",
          "165050.325000",
          "165051.815000",
          "165053.305000",
          "165054.795000",
          "165056.285000",
          "165057.775000",
          "165059.265000",
          "165100.755000",
          "165102.245000",
          "165103.735000",
          "165105.225000",
          "165106.715000",
          "165108.205000",
          "165109.695000",
          "165111.185000",
          "165112.675000",
          "165114.165000",
          "165115.655000",
          "165117.145000",
          "165118.635000",
          "165120.125000",
          "165121.615000",
          "165123.105000",
          "165124.595000",
          "165126.085000",
          "165127.575000",
          "165129.065000",
          "165130.555000",
          "165132.045000",
          "165133.535000",
          "165135.025000",
          "165136.515000",
          "165138.005000",
          "165139.495000",
          "165140.985000",
          "165142.475000",
          "165143.965000",
          "165145.455000",
          "165146.945000",
          "165148.435000",
          "165149.925000",
          "165151.415000",
          "165152.905000",
          "165154.395000",
          "165155.885000",
          "165157.375000",
          "165158.865000",
          "165200.355000",
          "165201.845000",
          "165203.335000",
          "165204.825000",
          "165206.315000",
          "165207.805000",
          "165209.295000",
          "165210.785000",
          "165212.275000",
          "165213.765000",
          "165215.255000",
          "165216.745000",
          "165218.235000",
          "165219.725000",
          "165221.215000",
          "165222.705000",
          "165224.195000",
          "165225.685000",
          "165227.175000",
          "165228.665000",
          "165230.155000",
          "165231.645000",
          "165233.135000",
          "165234.625000",
          "165236.115000",
          "165237.605000",
          "165239.095000",
          "165240.585000",
          "165242.075000",
          "165243.565000",
          "165245.055000",
          "165246.545000",
          "165248.035000",
          "165249.525000",
          "165251.015000",
          "165252.505000",
          "165253.995000",
          "165255.485000",
          "165256.975000",
          "165258.465000",
          "165259.955000",
          "165301.445000",
          "165302.935000",
          "165304.425000",
          "165305.915000",
          "165307.405000",
          "165308.895000",
          "165310.385000",
          "165311.875000",
          "165313.365000",
          "165314.855000",
          "165316.345000",
          "165317.835000",
          "165319.325000",
          "165320.815000",
          "165322.305000",
          "165323.795000",
          "165325.285000",
          "165326.775000",
          "165328.265000",
          "165329.755000",
          "165331.245000",
          "165332.735000",
          "165334.225000",
          "165335.715000",
          "165337.205000",
          "165338.695000",
          "165340.185000",
          "165341.675000",
          "165343.165000",
          "165344.655000",
          "165346.145000",
          "165347.635000",
          "165349.125000",
          "165350.615000",
          "165352.105000",
          "165353.595000",
          "165355.085000",
          "165356.575000",
          "165358.065000",
          "165359.555000",
          "165401.045000",
          "165402.535000",
          "165404.025000",
          "165405.515000",
          "165407.005000",
          "165408.495000",
          "165409.985000",
          "165411.475000",
          "165412.965000",
          "165414.455000",
          "165415.945000",
          "165417.435000",
          "165418.925000",
          "165420.415000",
          "165421.905000",
          "165423.395000",
          "165424.885000",
          "165426.375000",
          "165427.865000",
          "165429.355000",
          "165430.845000",
          "165432.335000",
          "165433.825000",
          "165435.315000",
          "165436.805000",
          "165438.295000",
          "165439.785000",
          "165441.275000",
          "165442.765000",
          "165444.255000",
          "165445.745000",
          "165447.235000",
          "165448.725000",
          "165450.215000",
          "165451.705000",
          "165453.195000",
          "165454.685000",
          "165456.175000",
          "165457.665000",
          "165459.155000",
          "165500.645000",
          "165502.135000",
          "165503.625000",
          "165505.115000",
          "165506.605000",
          "165508.095000",
          "165509.585000",
          "165511.075000",
          "165512.565000",
          "165514.055000",
          "165515.545000",
          "165517.035000",
          "165518.525000",
          "165520.015000",
          "165521.505000",
          "165522.995000",
          "165524.485000",
          "165525.975000",
          "165527.465000",
          "165528.955000",
          "165530.445000",
          "165531.935000",
          "165533.425000",
          "165534.915000",
          "165536.405000",
          "165537.895000",
          "165539.385000",
          "165540.875000",
          "165542.365000",
          "165543.855000",
          "165545.345000",
          "165546.835000",
          "165548.325000",
          "165549.815000",
          "165551.305000",
          "165552.795000",
          "165554.285000",
          "165555.775000",
          "165557.265000",
          "165558.755000",
          "165600.245000",
          "165601.735000",
          "165603.225000",
          "165604.715000",
          "165606.205000",
          "165607.695000",
          "165609.185000",
          "165610.675000",
          "165612.165000",
          "165613.655000",
          "165615.145000",
          "165616.635000",
          "165618.125000",
          "165619.615000",
          "165621.105000",
          "165622.595000",
          "165624.085000",
          "165625.575000",
          "165627.065000",
          "165628.555000",
          "165630.045000",
          "165631.535000",
          "165633.025000",
          "165634.515000",
          "165636.005000",
          "165637.495000",
          "165638.985000",
          "165640.475000",
          "165641.965000",
          "165643.455000",
          "165644.945000",
          "165646.435000",
          "165647.925000",
          "165649.415000",
          "165650.905000",
          "165652.395000",
          "165653.885000",
          "165655.375000",
          "165656.865000",
          "165658.355000",
          "165659.845000",
          "165701.335000",
          "165702.825000",
          "165704.315000",
          "165705.805000",
          "165707.295000",
          "165708.785000",
          "165710.275000",
          "165711.765000",
          "165713.255000",
          "165714.745000",
          "165716.235000",
          "165717.725000",
          "165719.215000",
          "165720.705000",
          "165722.195000",
          "165723.685000",
          "165725.175000",
          "165726.665000",
          "165728.155000",
          "165729.645000",
          "165731.135000",
          "165732.625000",
          "165734.115000",
          "165735.605000",
          "165737.095000",
          "165738.585000",
          "165740.075000",
          "165741.565000",
          "165743.055000",
          "165744.545000",
          "165746.035000",
          "165747.525000",
          "165749.015000",
          "165750.505000",
          "165751.995000",
          "165753.485000",
          "165754.975000",
          "165756.465000",
          "165757.955000",
          "165759.445000",
          "165800.935000",
          "165802.425000",
          "165803.915000",
          "165805.405000",
          "165806.895000",
          "165808.385000",
          "165809.875000",
          "165811.365000",
          "165812.855000",
          "165814.345000",
          "165815.835000",
          "165817.325000",
          "165818.815000",
          "165820.305000",
          "165821.795000",
          "165823.285000"
        ],
        "ContentTime": [
          "164918.712000",
          "164918.716000",
          "164918.719000",
          "164918.722000",
          "164918.725000",
          "164918.727000",
          "164938.681000",
          "164938.684000",
          "164938.687000",
          "164938.689000",
          "164938.692000",
          "164938.695000",
          "164938.698000",
          "164938.701000",
          "164938.704000",
          "164938.707000",
          "164938.710000",
          "164938.712000",
          "164938.715000",
          "164938.718000",
          "164938.721000",
          "164938.724000",
          "164938.726000",
          "164938.729000",
          "164938.732000",
          "164938.735000",
          "164958.680000",
          "164958.683000",
          "164958.686000",
          "164958.692000",
          "164958.695000",
          "164958.698000",
          "164958.700000",
          "164958.703000",
          "164958.706000",
          "164958.709000",
          "164958.712000",
          "164958.715000",
          "164958.717000",
          "164958.720000",
          "164958.723000",
          "164958.726000",
          "164958.729000",
          "164958.732000",
          "164958.735000",
          "164958.737000",
          "165018.680000",
          "165018.683000",
          "165018.686000",
          "165018.689000",
          "165018.691000",
          "165018.694000",
          "165018.697000",
          "165018.700000",
          "165018.703000",
          "165018.706000",
          "165018.709000",
          "165018.712000",
          "165018.714000",
          "165018.717000",
          "165018.720000",
          "165018.723000",
          "165018.726000",
          "165018.729000",
          "165018.732000",
          "165018.735000",
          "165018.737000",
          "165038.680000",
          "165038.683000",
          "165038.686000",
          "165038.689000",
          "165038.691000",
          "165038.694000",
          "165038.697000",
          "165038.700000",
          "165038.703000",
          "165038.706000",
          "165038.709000",
          "165038.711000",
          "165038.714000",
          "165038.717000",
          "165038.720000",
          "165038.723000",
          "165038.726000",
          "165038.729000",
          "165038.731000",
          "165038.734000",
          "165118.681000",
          "165118.684000",
          "165118.687000",
          "165118.690000",
          "165118.692000",
          "165118.696000",
          "165118.699000",
          "165118.702000",
          "165118.705000",
          "165118.708000",
          "165118.711000",
          "165118.714000",
          "165118.716000",
          "165118.719000",
          "165118.722000",
          "165118.725000",
          "165118.728000",
          "165118.731000",
          "165118.734000",
          "165118.737000",
          "165118.740000",
          "165118.742000",
          "165118.745000",
          "165118.748000",
          "165118.751000",
          "165118.754000",
          "165118.757000",
          "165118.760000",
          "165118.763000",
          "165118.766000",
          "165118.769000",
          "165118.771000",
          "165158.681000",
          "165158.684000",
          "165158.687000",
          "165158.690000",
          "165158.693000",
          "165158.695000",
          "165158.698000",
          "165158.701000",
          "165158.704000",
          "165158.707000",
          "165158.710000",
          "165158.713000",
          "165158.715000",
          "165158.718000",
          "165158.721000",
          "165158.724000",
          "165158.727000",
          "165158.730000",
          "165158.733000",
          "165158.735000",
          "165158.738000",
          "165158.741000",
          "165158.744000",
          "165158.747000",
          "165158.750000",
          "165158.753000",
          "165158.755000",
          "165238.680000",
          "165238.683000",
          "165238.686000",
          "165238.689000",
          "165238.691000",
          "165238.694000",
          "165238.697000",
          "165238.700000",
          "165238.703000",
          "165238.706000",
          "165238.709000",
          "165238.711000",
          "165238.714000",
          "165238.717000",
          "165238.720000",
          "165238.723000",
          "165238.726000",
          "165238.729000",
          "165238.732000",
          "165238.735000",
          "165238.738000",
          "165238.741000",
          "165238.743000",
          "165238.752000",
          "165238.755000",
          "165238.757000",
          "165238.760000",
          "165318.680000",
          "165318.683000",
          "165318.686000",
          "165318.689000",
          "165318.692000",
          "165318.694000",
          "165318.697000",
          "165318.700000",
          "165318.703000",
          "165318.728000",
          "165318.731000",
          "165318.733000",
          "165318.736000",
          "165318.739000",
          "165318.742000",
          "165318.745000",
          "165318.748000",
          "165318.751000",
          "165318.753000",
          "165318.756000",
          "165318.759000",
          "165318.762000",
          "165318.765000",
          "165318.768000",
          "165318.771000",
          "165318.774000",
          "165318.777000",
          "165358.681000",
          "165358.684000",
          "165358.687000",
          "165358.690000",
          "165358.693000",
          "165358.696000",
          "165358.699000",
          "165358.702000",
          "165358.704000",
          "165358.707000",
          "165358.710000",
          "165358.713000",
          "165358.716000",
          "165358.719000",
          "165358.722000",
          "165358.724000",
          "165358.727000",
          "165358.730000",
          "165358.733000",
          "165358.736000",
          "165358.739000",
          "165358.742000",
          "165358.745000",
          "165358.747000",
