{
  "aor": 0.0006312345679012347,
  "aqi": 0.008655713827160494,
  "bids_meta": {
    "AcquisitionMatrixPE": 104,
    "AcquisitionNumber": 1,
    "AcquisitionTime": "16:00:33.910000",
    "BandwidthPerPixelPhaseEncode": 17.17,
    "BaseResolution": 104,
    "BodyPartExamined": "BRAIN",
    "CogAtlasID": "trm_4c898da401420",
    "ConsistencyInfo": "N4_VE11C_LATEST_20160120",
    "ConversionSoftware": "dcm2niix",
    "ConversionSoftwareVersion": "v1.0.20171215 (OpenJPEG build) GCC7.3.0",
    "DerivedVendorReportedEchoSpacing": 0.000560011,
    "DeviceSerialNumber": "167006",
    "DwellTime": 2.1e-06,
    "EchoTime": 0.037,
    "EchoTrainLength": 104,
    "EffectiveEchoSpacing": 0.000560011,
    "FlipAngle": 52,
    "ImageComments": "Unaliased_MB4_PE3_LB",
    "ImageOrientationPatientDICOM": [
      0.994763,
      0.100464,
      0.0188061,
      -0.0926316,
      0.963922,
      -0.249549
    ],
    "ImageType": [
      "ORIGINAL",
      "PRIMARY",
      "M",
      "MB",
      "ND",
      "MOSAIC"
    ],
    "InPlanePhaseEncodingDirectionDICOM": "COL",
    "InstitutionAddress": "Chemin_Queen-Mary_4565_Montreal_District_CA_H3W_1W5",
    "InstitutionName": "IUGM",
    "InstitutionalDepartmentName": "Department",
    "MRAcquisitionType": "2D",
    "MagneticFieldStrength": 3,
    "Manufacturer": "Siemens",
    "ManufacturersModelName": "Prisma_fit",
    "Modality": "MR",
    "MultibandAccelerationFactor": 4,
    "PartialFourier": 1,
    "PatientPosition": "HFS",
    "PercentPhaseFOV": 100,
    "PhaseEncodingDirection": "j-",
    "PhaseEncodingSteps": 104,
    "PhaseResolution": 1,
    "PixelBandwidth": 2290,
    "ProcedureStepDescription": "video5_generic",
    "ProtocolName": "func_task-wolf16",
    "PulseSequenceDetails": "%CustomerSeq%_cmrr_mbep2d_bold",
    "ReceiveCoilActiveElements": "HC1-7;NC1,2",
    "ReceiveCoilName": "HeadNeck_64",
    "ReconMatrixPE": 104,
    "RepetitionTime": 1.49,
    "SAR": 0.0388004,
    "ScanOptions": "FS",
    "ScanningSequence": "EP",
    "SequenceName": "epfid2d1_104",
    "SequenceVariant": "SK_SS",
    "SeriesDescription": "func_task-wolf16",
    "SeriesNumber": 7,
    "ShimSetting": [
      644,
      -7191,
      -8813,
      670,
      139,
      35,
      -9,
      3
    ],
    "SliceThickness": 2,
    "SliceTiming": [
      0,
      0.785,
      0.0975,
      0.8825,
      0.195,
      0.98,
      0.295,
      1.0775,
      0.3925,
      1.175,
      0.49,
      1.275,
      0.5875,
      1.3725,
      0.685,
      0,
      0.785,
      0.0975,
      0.8825,
      0.195,
      0.98,
      0.295,
      1.0775,
      0.3925,
      1.175,
      0.49,
      1.275,
      0.5875,
      1.3725,
      0.685,
      0,
      0.785,
      0.0975,
      0.8825,
      0.195,
      0.98,
      0.295,
      1.0775,
      0.3925,
      1.175,
      0.49,
      1.275,
      0.5875,
      1.3725,
      0.685,
      0,
      0.785,
      0.0975,
      0.8825,
      0.195,
      0.98,
      0.295,
      1.0775,
      0.3925,
      1.175,
      0.49,
      1.275,
      0.5875,
      1.3725,
      0.685
    ],
    "SoftwareVersions": "syngo_MR_E11",
    "SpacingBetweenSlices": 2,
    "StationName": "MRC35049",
    "TaskName": "wolf16",
    "TotalReadoutTime": 0.0576811,
    "TxRefAmp": 252.138,
    "dataset": "<unset>",
    "dcmmeta_affine": [
      [
        -1.9895257949829102,
        -0.18526329100131989,
        0.0863967314362526,
        112.6333236694336
      ],
      [
        -0.20092833042144775,
        1.9278430938720703,
        -0.49299994111061096,
        -52.77704620361328
      ],
      [
        0.037612274289131165,
        0.4990978240966797,
        1.936359167098999,
        -53.305606842041016
      ],
      [
        0.0,
        0.0,
        0.0,
        1.0
      ]
    ],
    "dcmmeta_reorient_transform": [
      [
        0.0,
        -1.0,
        0.0,
        103.0
      ],
      [
        1.0,
        0.0,
        0.0,
        0.0
      ],
      [
        0.0,
        0.0,
        1.0,
        0.0
      ],
      [
        0.0,
        0.0,
        0.0,
        1.0
      ]
    ],
    "dcmmeta_shape": [
      104,
      104,
      60,
      406
    ],
    "dcmmeta_slice_dim": 2,
    "dcmmeta_version": 0.6,
    "global": {
      "const": {
        "AcquisitionMatrix": [
          104,
          0,
          0,
          104
        ],
        "AngioFlag": "N",
        "BitsAllocated": 16,
        "BitsStored": 16,
        "BodyPartExamined": "BRAIN",
        "Columns": 832,
        "EchoNumbers": 1,
        "EchoTime": 37.0,
        "EchoTrainLength": 104,
        "FlipAngle": 52.0,
        "HighBit": 15,
        "ImageOrientationPatient": [
          0.99476292656553,
          0.10046416858129,
          0.01880613628734,
          -0.0926316428437,
          0.96392153006476,
          -0.249548918294
        ],
        "ImagePositionPatient": [
          -750.3027835144,
          -920.66357824495,
          166.08221597351
        ],
        "ImageType": [
          "ORIGINAL",
          "PRIMARY",
          "M",
          "MB",
          "ND",
          "MOSAIC"
        ],
        "ImagedNucleus": "1H",
        "ImagingFrequency": 123.259446,
        "InPlanePhaseEncodingDirection": "COL",
        "MRAcquisitionType": "2D",
        "MagneticFieldStrength": 3.0,
        "Manufacturer": "SIEMENS",
        "ManufacturerModelName": "Prisma_fit",
        "Modality": "MR",
        "NumberOfAverages": 1.0,
        "NumberOfPhaseEncodingSteps": 104,
        "PercentPhaseFieldOfView": 100.0,
        "PercentSampling": 100.0,
        "PerformedProcedureStepStartTime": "155015.894000",
        "PhotometricInterpretation": "MONOCHROME2",
        "PixelBandwidth": 2290.0,
        "PixelRepresentation": 0,
        "PixelSpacing": [
          2.0,
          2.0
        ],
        "ProtocolName": "func_task-wolf16",
        "RepetitionTime": 1490.0,
        "Rows": 832,
        "SAR": 0.03880039773238,
        "SamplesPerPixel": 1,
        "ScanOptions": "FS",
        "ScanningSequence": "EP",
        "SequenceName": "epfid2d1_104",
        "SequenceVariant": [
          "SK",
          "SS"
        ],
        "SeriesDescription": "func_task-wolf16",
        "SeriesNumber": 7,
        "SeriesTime": "160206.521000",
        "SliceLocation": -33.734283214929,
        "SliceThickness": 2.0,
        "SmallestImagePixelValue": 0,
        "SoftwareVersions": "syngo MR E11",
        "SpacingBetweenSlices": 2.0000000180549,
        "SpecificCharacterSet": "ISO_IR 100",
        "StudyID": "1",
        "StudyTime": "155015.847000",
        "TransmitCoilName": "Body",
        "VariableFlipAngleFlag": "N",
        "WindowCenterWidthExplanation": "Algo1",
        "dBdt": 0.0
      },
      "slices": {}
    },
    "modality": "bold",
    "session_id": "006",
    "subject_id": "01",
    "task_id": "wolf16",
    "time": {
      "samples": {
        "AcquisitionNumber": [
          1,
          2,
          3,
          4,
          5,
          6,
          7,
          8,
          9,
          10,
          11,
          12,
          13,
          14,
          15,
          16,
          17,
          18,
          19,
          20,
          21,
          22,
          23,
          24,
          25,
          26,
          27,
          28,
          29,
          30,
          31,
          32,
          33,
          34,
          35,
          36,
          37,
          38,
          39,
          40,
          41,
          42,
          43,
          44,
          45,
          46,
          47,
          48,
          49,
          50,
          51,
          52,
          53,
          54,
          55,
          56,
          57,
          58,
          59,
          60,
          61,
          62,
          63,
          64,
          65,
          66,
          67,
          68,
          69,
          70,
          71,
          72,
          73,
          74,
          75,
          76,
          77,
          78,
          79,
          80,
          81,
          82,
          83,
          84,
          85,
          86,
          87,
          88,
          89,
          90,
          91,
          92,
          93,
          94,
          95,
          96,
          97,
          98,
          99,
          100,
          101,
          102,
          103,
          104,
          105,
          106,
          107,
          108,
          109,
          110,
          111,
          112,
          113,
          114,
          115,
          116,
          117,
          118,
          119,
          120,
          121,
          122,
          123,
          124,
          125,
          126,
          127,
          128,
          129,
          130,
          131,
          132,
          133,
          134,
          135,
          136,
          137,
          138,
          139,
          140,
          141,
          142,
          143,
          144,
          145,
          146,
          147,
          148,
          149,
          150,
          151,
          152,
          153,
          154,
          155,
          156,
          157,
          158,
          159,
          160,
          161,
          162,
          163,
          164,
          165,
          166,
          167,
          168,
          169,
          170,
          171,
          172,
          173,
          174,
          175,
          176,
          177,
          178,
          179,
          180,
          181,
          182,
          183,
          184,
          185,
          186,
          187,
          188,
          189,
          190,
          191,
          192,
          193,
          194,
          195,
          196,
          197,
          198,
          199,
          200,
          201,
          202,
          203,
          204,
          205,
          206,
          207,
          208,
          209,
          210,
          211,
          212,
          213,
          214,
          215,
          216,
          217,
          218,
          219,
          220,
          221,
          222,
          223,
          224,
          225,
          226,
          227,
          228,
          229,
          230,
          231,
          232,
          233,
          234,
          235,
          236,
          237,
          238,
          239,
          240,
          241,
          242,
          243,
          244,
          245,
          246,
          247,
          248,
          249,
          250,
          251,
          252,
          253,
          254,
          255,
          256,
          257,
          258,
          259,
          260,
          261,
          262,
          263,
          264,
          265,
          266,
          267,
          268,
          269,
          270,
          271,
          272,
          273,
          274,
          275,
          276,
          277,
          278,
          279,
          280,
          281,
          282,
          283,
          284,
          285,
          286,
          287,
          288,
          289,
          290,
          291,
          292,
          293,
          294,
          295,
          296,
          297,
          298,
          299,
          300,
          301,
          302,
          303,
          304,
          305,
          306,
          307,
          308,
          309,
          310,
          311,
          312,
          313,
          314,
          315,
          316,
          317,
          318,
          319,
          320,
          321,
          322,
          323,
          324,
          325,
          326,
          327,
          328,
          329,
          330,
          331,
          332,
          333,
          334,
          335,
          336,
          337,
          338,
          339,
          340,
          341,
          342,
          343,
          344,
          345,
          346,
          347,
          348,
          349,
          350,
          351,
          352,
          353,
          354,
          355,
          356,
          357,
          358,
          359,
          360,
          361,
          362,
          363,
          364,
          365,
          366,
          367,
          368,
          369,
          370,
          371,
          372,
          373,
          374,
          375,
          376,
          377,
          378,
          379,
          380,
          381,
          382,
          383,
          384,
          385,
          386,
          387,
          388,
          389,
          390,
          391,
          392,
          393,
          394,
          395,
          396,
          397,
          398,
          399,
          400,
          401,
          402,
          403,
          404,
          405,
          406
        ],
        "AcquisitionTime": [
          "160033.910000",
          "160035.400000",
          "160036.890000",
          "160038.380000",
          "160039.870000",
          "160041.360000",
          "160042.850000",
          "160044.340000",
          "160045.830000",
          "160047.320000",
          "160048.810000",
          "160050.300000",
          "160051.790000",
          "160053.280000",
          "160054.770000",
          "160056.260000",
          "160057.750000",
          "160059.240000",
          "160100.730000",
          "160102.220000",
          "160103.710000",
          "160105.200000",
          "160106.690000",
          "160108.180000",
          "160109.670000",
          "160111.160000",
          "160112.650000",
          "160114.140000",
          "160115.630000",
          "160117.120000",
          "160118.610000",
          "160120.100000",
          "160121.590000",
          "160123.080000",
          "160124.570000",
          "160126.060000",
          "160127.550000",
          "160129.040000",
          "160130.530000",
          "160132.020000",
          "160133.510000",
          "160135.000000",
          "160136.490000",
          "160137.980000",
          "160139.470000",
          "160140.960000",
          "160142.450000",
          "160143.940000",
          "160145.430000",
          "160146.920000",
          "160148.410000",
          "160149.900000",
          "160151.390000",
          "160152.880000",
          "160154.370000",
          "160155.860000",
          "160157.350000",
          "160158.840000",
          "160200.330000",
          "160201.820000",
          "160203.310000",
          "160204.800000",
          "160206.290000",
          "160207.780000",
          "160209.270000",
          "160210.760000",
          "160212.250000",
          "160213.740000",
          "160215.230000",
          "160216.720000",
          "160218.210000",
          "160219.700000",
          "160221.190000",
          "160222.680000",
          "160224.170000",
          "160225.660000",
          "160227.150000",
          "160228.640000",
          "160230.130000",
          "160231.620000",
          "160233.110000",
          "160234.600000",
          "160236.090000",
          "160237.580000",
          "160239.070000",
          "160240.560000",
          "160242.050000",
          "160243.540000",
          "160245.030000",
          "160246.520000",
          "160248.010000",
          "160249.500000",
          "160250.990000",
          "160252.480000",
          "160253.970000",
          "160255.460000",
          "160256.950000",
          "160258.440000",
          "160259.930000",
          "160301.420000",
          "160302.910000",
          "160304.400000",
          "160305.890000",
          "160307.380000",
          "160308.870000",
          "160310.360000",
          "160311.850000",
          "160313.340000",
          "160314.830000",
          "160316.320000",
          "160317.810000",
          "160319.300000",
          "160320.790000",
          "160322.280000",
          "160323.770000",
          "160325.260000",
          "160326.750000",
          "160328.240000",
          "160329.730000",
          "160331.220000",
          "160332.710000",
          "160334.200000",
          "160335.690000",
          "160337.180000",
          "160338.670000",
          "160340.160000",
          "160341.650000",
          "160343.140000",
          "160344.630000",
          "160346.120000",
          "160347.610000",
          "160349.100000",
          "160350.590000",
          "160352.080000",
          "160353.570000",
          "160355.060000",
          "160356.550000",
          "160358.040000",
          "160359.530000",
          "160401.020000",
          "160402.510000",
          "160404.000000",
          "160405.490000",
          "160406.980000",
          "160408.470000",
          "160409.960000",
          "160411.450000",
          "160412.940000",
          "160414.430000",
          "160415.920000",
          "160417.410000",
          "160418.900000",
          "160420.390000",
          "160421.880000",
          "160423.370000",
          "160424.860000",
          "160426.350000",
          "160427.840000",
          "160429.330000",
          "160430.820000",
          "160432.310000",
          "160433.800000",
          "160435.290000",
          "160436.780000",
          "160438.270000",
          "160439.760000",
          "160441.250000",
          "160442.740000",
          "160444.230000",
          "160445.720000",
          "160447.210000",
          "160448.700000",
          "160450.190000",
          "160451.680000",
          "160453.170000",
          "160454.660000",
          "160456.150000",
          "160457.640000",
          "160459.130000",
          "160500.620000",
          "160502.110000",
          "160503.600000",
          "160505.090000",
          "160506.580000",
          "160508.070000",
          "160509.560000",
          "160511.050000",
          "160512.540000",
          "160514.030000",
          "160515.520000",
          "160517.010000",
          "160518.500000",
          "160519.990000",
          "160521.480000",
          "160522.970000",
          "160524.460000",
          "160525.950000",
          "160527.440000",
          "160528.930000",
          "160530.420000",
          "160531.910000",
          "160533.400000",
          "160534.890000",
          "160536.380000",
          "160537.870000",
          "160539.360000",
          "160540.850000",
          "160542.340000",
          "160543.830000",
          "160545.320000",
          "160546.810000",
          "160548.300000",
          "160549.790000",
          "160551.280000",
          "160552.770000",
          "160554.260000",
          "160555.750000",
          "160557.240000",
          "160558.730000",
          "160600.220000",
          "160601.710000",
          "160603.200000",
          "160604.690000",
          "160606.180000",
          "160607.670000",
          "160609.160000",
          "160610.650000",
          "160612.140000",
          "160613.630000",
          "160615.120000",
          "160616.610000",
          "160618.100000",
          "160619.590000",
          "160621.080000",
          "160622.570000",
          "160624.060000",
          "160625.550000",
          "160627.040000",
          "160628.530000",
          "160630.020000",
          "160631.510000",
          "160633.000000",
          "160634.490000",
          "160635.980000",
          "160637.470000",
          "160638.960000",
          "160640.450000",
          "160641.940000",
          "160643.430000",
          "160644.920000",
          "160646.410000",
          "160647.900000",
          "160649.390000",
          "160650.880000",
          "160652.370000",
          "160653.860000",
          "160655.350000",
          "160656.840000",
          "160658.330000",
          "160659.820000",
          "160701.310000",
          "160702.800000",
          "160704.290000",
          "160705.780000",
          "160707.270000",
          "160708.760000",
          "160710.250000",
          "160711.740000",
          "160713.230000",
          "160714.720000",
          "160716.210000",
          "160717.700000",
          "160719.190000",
          "160720.680000",
          "160722.170000",
          "160723.660000",
          "160725.150000",
          "160726.640000",
          "160728.130000",
          "160729.620000",
          "160731.110000",
          "160732.600000",
          "160734.090000",
          "160735.580000",
          "160737.070000",
          "160738.560000",
          "160740.050000",
          "160741.540000",
          "160743.030000",
          "160744.520000",
          "160746.010000",
          "160747.500000",
          "160748.990000",
          "160750.480000",
          "160751.970000",
          "160753.460000",
          "160754.950000",
          "160756.440000",
          "160757.930000",
          "160759.420000",
          "160800.910000",
          "160802.400000",
          "160803.890000",
          "160805.380000",
          "160806.870000",
          "160808.360000",
          "160809.850000",
          "160811.340000",
          "160812.830000",
          "160814.320000",
          "160815.810000",
          "160817.300000",
          "160818.790000",
          "160820.280000",
          "160821.770000",
          "160823.260000",
          "160824.750000",
          "160826.240000",
          "160827.730000",
          "160829.220000",
          "160830.710000",
          "160832.200000",
          "160833.690000",
          "160835.180000",
          "160836.670000",
          "160838.160000",
          "160839.650000",
          "160841.140000",
          "160842.630000",
          "160844.120000",
          "160845.610000",
          "160847.100000",
          "160848.590000",
          "160850.080000",
          "160851.570000",
          "160853.060000",
          "160854.550000",
          "160856.040000",
          "160857.530000",
          "160859.020000",
          "160900.510000",
          "160902.000000",
          "160903.490000",
          "160904.980000",
          "160906.470000",
          "160907.960000",
          "160909.450000",
          "160910.940000",
          "160912.430000",
          "160913.920000",
          "160915.410000",
          "160916.900000",
          "160918.390000",
          "160919.880000",
          "160921.370000",
          "160922.860000",
          "160924.350000",
          "160925.840000",
          "160927.330000",
          "160928.820000",
          "160930.310000",
          "160931.800000",
          "160933.290000",
          "160934.780000",
          "160936.270000",
          "160937.760000",
          "160939.250000",
          "160940.740000",
          "160942.230000",
          "160943.720000",
          "160945.210000",
          "160946.700000",
          "160948.190000",
          "160949.680000",
          "160951.170000",
          "160952.660000",
          "160954.150000",
          "160955.640000",
          "160957.130000",
          "160958.620000",
          "161000.110000",
          "161001.600000",
          "161003.090000",
          "161004.580000",
          "161006.070000",
          "161007.560000",
          "161009.050000",
          "161010.540000",
          "161012.030000",
          "161013.520000",
          "161015.010000",
          "161016.500000",
          "161017.990000",
          "161019.480000",
          "161020.970000",
          "161022.460000",
          "161023.950000",
          "161025.440000",
          "161026.930000",
          "161028.420000",
          "161029.910000",
          "161031.400000",
          "161032.890000",
          "161034.380000",
          "161035.870000",
          "161037.360000"
        ],
        "ContentTime": [
          "160206.523000",
          "160206.527000",
          "160206.530000",
          "160206.533000",
          "160206.536000",
          "160206.539000",
          "160206.541000",
          "160206.545000",
          "160206.548000",
          "160206.551000",
          "160206.554000",
          "160206.557000",
          "160206.560000",
          "160206.563000",
          "160206.566000",
          "160206.569000",
          "160206.571000",
          "160206.574000",
          "160206.577000",
          "160206.580000",
          "160206.583000",
          "160206.586000",
          "160206.589000",
          "160206.592000",
          "160206.594000",
          "160206.597000",
          "160206.600000",
          "160206.603000",
          "160206.606000",
          "160206.609000",
          "160206.612000",
          "160206.614000",
          "160206.617000",
          "160206.620000",
          "160206.623000",
          "160206.626000",
          "160206.629000",
          "160226.482000",
          "160226.485000",
          "160226.488000",
          "160226.491000",
          "160226.493000",
          "160226.496000",
          "160226.499000",
          "160226.502000",
          "160226.505000",
          "160226.507000",
          "160226.510000",
          "160226.513000",
          "160226.516000",
          "160226.519000",
          "160226.526000",
          "160226.529000",
          "160226.532000",
          "160226.534000",
          "160226.537000",
          "160226.540000",
          "160246.482000",
          "160246.485000",
          "160246.488000",
          "160246.491000",
          "160246.493000",
          "160246.496000",
          "160246.499000",
          "160246.502000",
          "160246.505000",
          "160246.508000",
          "160246.511000",
          "160246.514000",
          "160246.516000",
          "160246.519000",
          "160246.522000",
          "160246.525000",
          "160246.528000",
          "160246.531000",
          "160246.533000",
          "160246.536000",
          "160246.539000",
          "160306.481000",
          "160306.484000",
          "160306.487000",
          "160306.490000",
          "160306.493000",
          "160306.495000",
          "160306.498000",
          "160306.501000",
          "160306.504000",
          "160306.507000",
          "160306.513000",
          "160306.516000",
          "160306.518000",
          "160306.521000",
          "160306.524000",
          "160306.527000",
          "160306.530000",
          "160306.533000",
          "160306.536000",
          "160306.539000",
          "160346.481000",
          "160346.484000",
          "160346.487000",
          "160346.490000",
          "160346.493000",
          "160346.496000",
          "160346.499000",
          "160346.502000",
          "160346.505000",
          "160346.508000",
          "160346.511000",
          "160346.513000",
          "160346.516000",
          "160346.519000",
          "160346.522000",
          "160346.525000",
          "160346.528000",
          "160346.531000",
          "160346.534000",
          "160346.537000",
          "160346.540000",
          "160346.543000",
          "160346.546000",
          "160346.549000",
          "160346.551000",
          "160346.554000",
          "160346.567000",
          "160346.570000",
          "160346.573000",
          "160346.576000",
          "160426.482000",
          "160426.492000",
          "160426.495000",
          "160426.497000",
          "160426.500000",
          "160426.503000",
          "160426.506000",
          "160426.509000",
          "160426.512000",
          "160426.515000",
          "160426.518000",
          "160426.520000",
          "160426.523000",
          "160426.526000",
          "160426.529000",
          "160426.532000",
          "160426.535000",
          "160426.538000",
          "160426.540000",
          "160426.543000",
          "160426.546000",
          "160426.549000",
          "160426.552000",
          "160426.555000",
          "160426.557000",
          "160426.560000",
          "160426.563000",
          "160506.482000",
          "160506.485000",
          "160506.488000",
          "160506.491000",
          "160506.494000",
          "160506.508000",
          "160506.511000",
          "160506.513000",
          "160506.516000",
          "160506.519000",
          "160506.522000",
          "160506.525000",
          "160506.528000",
          "160506.531000",
          "160506.533000",
          "160506.536000",
          "160506.539000",
          "160506.542000",
          "160506.545000",
          "160506.548000",
          "160506.551000",
          "160506.553000",
          "160506.556000",
          "160506.559000",
          "160506.562000",
          "160506.565000",
          "160506.568000",
          "160546.481000",
          "160546.484000",
          "160546.487000",
          "160546.490000",
          "160546.493000",
          "160546.496000",
          "160546.499000",
          "160546.501000",
          "160546.504000",
          "160546.507000",
          "160546.510000",
          "160546.513000",
          "160546.516000",
          "160546.519000",
          "160546.522000",
          "160546.524000",
          "160546.527000",
          "160546.530000",
          "160546.533000",
          "160546.536000",
          "160546.539000",
          "160546.542000",
          "160546.545000",
          "160546.547000",
          "160546.550000",
          "160546.553000",
          "160546.556000",
          "160626.482000",
          "160626.485000",
          "160626.488000",
          "160626.491000",
          "160626.494000",
          "160626.496000",
          "160626.499000",
          "160626.502000",
          "160626.505000",
          "160626.508000",
          "160626.511000",
          "160626.513000",
          "160626.516000",
          "160626.519000",
          "160626.522000",
