{
  "aor": 0.0007365853658536586,
  "aqi": 0.007356551951219511,
  "bids_meta": {
    "AcquisitionMatrixPE": 104,
    "AcquisitionNumber": 1,
    "AcquisitionTime": "09:36:47.535000",
    "BandwidthPerPixelPhaseEncode": 17.17,
    "BaseResolution": 104,
    "BodyPartExamined": "BRAIN",
    "CogAtlasID": "trm_4c898da401420",
    "ConsistencyInfo": "N4_VE11C_LATEST_20160120",
    "ConversionSoftware": "dcm2niix",
    "ConversionSoftwareVersion": "v1.0.20171215 (OpenJPEG build) GCC7.3.0",
    "DerivedVendorReportedEchoSpacing": 0.000560011,
    "DeviceSerialNumber": "167006",
    "DwellTime": 2.1e-06,
    "EchoTime": 0.037,
    "EchoTrainLength": 104,
    "EffectiveEchoSpacing": 0.000560011,
    "FlipAngle": 52,
    "ImageComments": "Unaliased_MB4_PE3_LB",
    "ImageOrientationPatientDICOM": [
      0.999301,
      0.0353521,
      -0.0121497,
      -0.0373413,
      0.959113,
      -0.280548
    ],
    "ImageType": [
      "ORIGINAL",
      "PRIMARY",
      "M",
      "MB",
      "ND",
      "MOSAIC"
    ],
    "InPlanePhaseEncodingDirectionDICOM": "COL",
    "InstitutionAddress": "Chemin_Queen-Mary_4565_Montreal_District_CA_H3W_1W5",
    "InstitutionName": "IUGM",
    "InstitutionalDepartmentName": "Department",
    "MRAcquisitionType": "2D",
    "MagneticFieldStrength": 3,
    "Manufacturer": "Siemens",
    "ManufacturersModelName": "Prisma_fit",
    "Modality": "MR",
    "MultibandAccelerationFactor": 4,
    "PartialFourier": 1,
    "PatientPosition": "HFS",
    "PercentPhaseFOV": 100,
    "PhaseEncodingDirection": "j-",
    "PhaseEncodingSteps": 104,
    "PhaseResolution": 1,
    "PixelBandwidth": 2290,
    "ProcedureStepDescription": "video5_generic",
    "ProtocolName": "func_task-figures3",
    "PulseSequenceDetails": "%CustomerSeq%_cmrr_mbep2d_bold",
    "ReceiveCoilActiveElements": "HC1-7;NC1,2",
    "ReceiveCoilName": "HeadNeck_64",
    "ReconMatrixPE": 104,
    "RepetitionTime": 1.49,
    "SAR": 0.0295983,
    "ScanOptions": "FS",
    "ScanningSequence": "EP",
    "SequenceName": "epfid2d1_104",
    "SequenceVariant": "SK_SS",
    "SeriesDescription": "func_task-figures3",
    "SeriesNumber": 11,
    "ShimSetting": [
      624,
      -7164,
      -8838,
      648,
      20,
      133,
      9,
      20
    ],
    "SliceThickness": 2,
    "SliceTiming": [
      0,
      0.785,
      0.0975,
      0.8825,
      0.195,
      0.98,
      0.295,
      1.0775,
      0.3925,
      1.175,
      0.49,
      1.275,
      0.5875,
      1.3725,
      0.685,
      0,
      0.785,
      0.0975,
      0.8825,
      0.195,
      0.98,
      0.295,
      1.0775,
      0.3925,
      1.175,
      0.49,
      1.275,
      0.5875,
      1.3725,
      0.685,
      0,
      0.785,
      0.0975,
      0.8825,
      0.195,
      0.98,
      0.295,
      1.0775,
      0.3925,
      1.175,
      0.49,
      1.275,
      0.5875,
      1.3725,
      0.685,
      0,
      0.785,
      0.0975,
      0.8825,
      0.195,
      0.98,
      0.295,
      1.0775,
      0.3925,
      1.175,
      0.49,
      1.275,
      0.5875,
      1.3725,
      0.685
    ],
    "SoftwareVersions": "syngo_MR_E11",
    "SpacingBetweenSlices": 2,
    "StationName": "MRC35049",
    "TaskName": "figures03",
    "TotalReadoutTime": 0.0576811,
    "TxRefAmp": 210.784,
    "dataset": "<unset>",
    "dcmmeta_affine": [
      [
        -1.9986021518707275,
        -0.07468262314796448,
        -0.003470036666840315,
        111.05653381347656
      ],
      [
        -0.07070410996675491,
        1.918226718902588,
        -0.5616114139556885,
        -74.88619232177734
      ],
      [
        -0.024299466982483864,
        0.5610962510108948,
        1.919526219367981,
        -70.24858093261719
      ],
      [
        0.0,
        0.0,
        0.0,
        1.0
      ]
    ],
    "dcmmeta_reorient_transform": [
      [
        0.0,
        -1.0,
        0.0,
        103.0
      ],
      [
        1.0,
        0.0,
        0.0,
        0.0
      ],
      [
        0.0,
        0.0,
        1.0,
        0.0
      ],
      [
        0.0,
        0.0,
        0.0,
        1.0
      ]
    ],
    "dcmmeta_shape": [
      104,
      104,
      60,
      410
    ],
    "dcmmeta_slice_dim": 2,
    "dcmmeta_version": 0.6,
    "global": {
      "const": {
        "AcquisitionMatrix": [
          104,
          0,
          0,
          104
        ],
        "AngioFlag": "N",
        "BitsAllocated": 16,
        "BitsStored": 16,
        "BodyPartExamined": "BRAIN",
        "Columns": 832,
        "EchoNumbers": 1,
        "EchoTime": 37.0,
        "EchoTrainLength": 104,
        "FlipAngle": 52.0,
        "HighBit": 15,
        "ImageOrientationPatient": [
          0.99930106377728,
          0.03535205677107,
          -0.0121497331513,
          -0.0373413128462,
          0.95911333210284,
          -0.2805481109142
        ],
        "ImagePositionPatient": [
          -803.67092350307,
          -846.66195960083,
          200.6283583987
        ],
        "ImageType": [
          "ORIGINAL",
          "PRIMARY",
          "M",
          "MB",
          "ND",
          "MOSAIC"
        ],
        "ImagedNucleus": "1H",
        "ImagingFrequency": 123.259008,
        "InPlanePhaseEncodingDirection": "COL",
        "MRAcquisitionType": "2D",
        "MagneticFieldStrength": 3.0,
        "Manufacturer": "SIEMENS",
        "ManufacturerModelName": "Prisma_fit",
        "Modality": "MR",
        "NumberOfAverages": 1.0,
        "NumberOfPhaseEncodingSteps": 104,
        "PercentPhaseFieldOfView": 100.0,
        "PercentSampling": 100.0,
        "PerformedProcedureStepStartTime": "091207.466000",
        "PhotometricInterpretation": "MONOCHROME2",
        "PixelBandwidth": 2290.0,
        "PixelRepresentation": 0,
        "PixelSpacing": [
          2.0,
          2.0
        ],
        "ProtocolName": "func_task-figures3",
        "RepetitionTime": 1490.0,
        "Rows": 832,
        "SAR": 0.02959826541301,
        "SamplesPerPixel": 1,
        "ScanOptions": "FS",
        "ScanningSequence": "EP",
        "SequenceName": "epfid2d1_104",
        "SequenceVariant": [
          "SK",
          "SS"
        ],
        "SeriesDescription": "func_task-figures3",
        "SeriesNumber": 11,
        "SeriesTime": "093807.047000",
        "SliceLocation": -46.586210476999,
        "SliceThickness": 2.0,
        "SmallestImagePixelValue": 0,
        "SoftwareVersions": "syngo MR E11",
        "SpacingBetweenSlices": 2.0000000463537,
        "SpecificCharacterSet": "ISO_IR 100",
        "StudyID": "1",
        "StudyTime": "091207.321000",
        "TransmitCoilName": "Body",
        "VariableFlipAngleFlag": "N",
        "WindowCenterWidthExplanation": "Algo1",
        "dBdt": 0.0
      },
      "slices": {}
    },
    "modality": "bold",
    "run_id": 1,
    "session_id": "007",
    "subject_id": "03",
    "task_id": "figures03",
    "time": {
      "samples": {
        "AcquisitionNumber": [
          1,
          2,
          3,
          4,
          5,
          6,
          7,
          8,
          9,
          10,
          11,
          12,
          13,
          14,
          15,
          16,
          17,
          18,
          19,
          20,
          21,
          22,
          23,
          24,
          25,
          26,
          27,
          28,
          29,
          30,
          31,
          32,
          33,
          34,
          35,
          36,
          37,
          38,
          39,
          40,
          41,
          42,
          43,
          44,
          45,
          46,
          47,
          48,
          49,
          50,
          51,
          52,
          53,
          54,
          55,
          56,
          57,
          58,
          59,
          60,
          61,
          62,
          63,
          64,
          65,
          66,
          67,
          68,
          69,
          70,
          71,
          72,
          73,
          74,
          75,
          76,
          77,
          78,
          79,
          80,
          81,
          82,
          83,
          84,
          85,
          86,
          87,
          88,
          89,
          90,
          91,
          92,
          93,
          94,
          95,
          96,
          97,
          98,
          99,
          100,
          101,
          102,
          103,
          104,
          105,
          106,
          107,
          108,
          109,
          110,
          111,
          112,
          113,
          114,
          115,
          116,
          117,
          118,
          119,
          120,
          121,
          122,
          123,
          124,
          125,
          126,
          127,
          128,
          129,
          130,
          131,
          132,
          133,
          134,
          135,
          136,
          137,
          138,
          139,
          140,
          141,
          142,
          143,
          144,
          145,
          146,
          147,
          148,
          149,
          150,
          151,
          152,
          153,
          154,
          155,
          156,
          157,
          158,
          159,
          160,
          161,
          162,
          163,
          164,
          165,
          166,
          167,
          168,
          169,
          170,
          171,
          172,
          173,
          174,
          175,
          176,
          177,
          178,
          179,
          180,
          181,
          182,
          183,
          184,
          185,
          186,
          187,
          188,
          189,
          190,
          191,
          192,
          193,
          194,
          195,
          196,
          197,
          198,
          199,
          200,
          201,
          202,
          203,
          204,
          205,
          206,
          207,
          208,
          209,
          210,
          211,
          212,
          213,
          214,
          215,
          216,
          217,
          218,
          219,
          220,
          221,
          222,
          223,
          224,
          225,
          226,
          227,
          228,
          229,
          230,
          231,
          232,
          233,
          234,
          235,
          236,
          237,
          238,
          239,
          240,
          241,
          242,
          243,
          244,
          245,
          246,
          247,
          248,
          249,
          250,
          251,
          252,
          253,
          254,
          255,
          256,
          257,
          258,
          259,
          260,
          261,
          262,
          263,
          264,
          265,
          266,
          267,
          268,
          269,
          270,
          271,
          272,
          273,
          274,
          275,
          276,
          277,
          278,
          279,
          280,
          281,
          282,
          283,
          284,
          285,
          286,
          287,
          288,
          289,
          290,
          291,
          292,
          293,
          294,
          295,
          296,
          297,
          298,
          299,
          300,
          301,
          302,
          303,
          304,
          305,
          306,
          307,
          308,
          309,
          310,
          311,
          312,
          313,
          314,
          315,
          316,
          317,
          318,
          319,
          320,
          321,
          322,
          323,
          324,
          325,
          326,
          327,
          328,
          329,
          330,
          331,
          332,
          333,
          334,
          335,
          336,
          337,
          338,
          339,
          340,
          341,
          342,
          343,
          344,
          345,
          346,
          347,
          348,
          349,
          350,
          351,
          352,
          353,
          354,
          355,
          356,
          357,
          358,
          359,
          360,
          361,
          362,
          363,
          364,
          365,
          366,
          367,
          368,
          369,
          370,
          371,
          372,
          373,
          374,
          375,
          376,
          377,
          378,
          379,
          380,
          381,
          382,
          383,
          384,
          385,
          386,
          387,
          388,
          389,
          390,
          391,
          392,
          393,
          394,
          395,
          396,
          397,
          398,
          399,
          400,
          401,
          402,
          403,
          404,
          405,
          406,
          407,
          408,
          409,
          410
        ],
        "AcquisitionTime": [
          "093647.535000",
          "093649.025000",
          "093650.515000",
          "093652.005000",
          "093653.495000",
          "093654.985000",
          "093656.475000",
          "093657.965000",
          "093659.455000",
          "093700.945000",
          "093702.435000",
          "093703.925000",
          "093705.415000",
          "093706.905000",
          "093708.395000",
          "093709.885000",
          "093711.375000",
          "093712.865000",
          "093714.355000",
          "093715.845000",
          "093717.335000",
          "093718.825000",
          "093720.315000",
          "093721.805000",
          "093723.295000",
          "093724.785000",
          "093726.275000",
          "093727.765000",
          "093729.255000",
          "093730.745000",
          "093732.235000",
          "093733.725000",
          "093735.215000",
          "093736.705000",
          "093738.195000",
          "093739.685000",
          "093741.175000",
          "093742.665000",
          "093744.155000",
          "093745.645000",
          "093747.135000",
          "093748.625000",
          "093750.115000",
          "093751.605000",
          "093753.095000",
          "093754.585000",
          "093756.075000",
          "093757.565000",
          "093759.055000",
          "093800.545000",
          "093802.035000",
          "093803.525000",
          "093805.015000",
          "093806.505000",
          "093807.995000",
          "093809.485000",
          "093810.975000",
          "093812.465000",
          "093813.955000",
          "093815.445000",
          "093816.935000",
          "093818.425000",
          "093819.915000",
          "093821.405000",
          "093822.895000",
          "093824.385000",
          "093825.875000",
          "093827.365000",
          "093828.855000",
          "093830.345000",
          "093831.835000",
          "093833.325000",
          "093834.815000",
          "093836.305000",
          "093837.795000",
          "093839.285000",
          "093840.775000",
          "093842.265000",
          "093843.755000",
          "093845.245000",
          "093846.735000",
          "093848.225000",
          "093849.715000",
          "093851.205000",
          "093852.695000",
          "093854.185000",
          "093855.675000",
          "093857.165000",
          "093858.655000",
          "093900.145000",
          "093901.635000",
          "093903.125000",
          "093904.615000",
          "093906.105000",
          "093907.595000",
          "093909.085000",
          "093910.575000",
          "093912.065000",
          "093913.555000",
          "093915.045000",
          "093916.535000",
          "093918.025000",
          "093919.515000",
          "093921.005000",
          "093922.495000",
          "093923.985000",
          "093925.475000",
          "093926.965000",
          "093928.455000",
          "093929.945000",
          "093931.435000",
          "093932.925000",
          "093934.415000",
          "093935.905000",
          "093937.395000",
          "093938.885000",
          "093940.375000",
          "093941.865000",
          "093943.355000",
          "093944.845000",
          "093946.335000",
          "093947.825000",
          "093949.315000",
          "093950.805000",
          "093952.295000",
          "093953.785000",
          "093955.275000",
          "093956.765000",
          "093958.255000",
          "093959.745000",
          "094001.235000",
          "094002.725000",
          "094004.215000",
          "094005.705000",
          "094007.195000",
          "094008.685000",
          "094010.175000",
          "094011.665000",
          "094013.155000",
          "094014.645000",
          "094016.135000",
          "094017.625000",
          "094019.115000",
          "094020.605000",
          "094022.095000",
          "094023.585000",
          "094025.075000",
          "094026.565000",
          "094028.055000",
          "094029.545000",
          "094031.035000",
          "094032.525000",
          "094034.015000",
          "094035.505000",
          "094036.995000",
          "094038.485000",
          "094039.975000",
          "094041.465000",
          "094042.955000",
          "094044.445000",
          "094045.935000",
          "094047.425000",
          "094048.915000",
          "094050.405000",
          "094051.895000",
          "094053.385000",
          "094054.875000",
          "094056.365000",
          "094057.855000",
          "094059.345000",
          "094100.835000",
          "094102.325000",
          "094103.815000",
          "094105.305000",
          "094106.795000",
          "094108.285000",
          "094109.775000",
          "094111.265000",
          "094112.755000",
          "094114.245000",
          "094115.735000",
          "094117.225000",
          "094118.715000",
          "094120.205000",
          "094121.695000",
          "094123.185000",
          "094124.675000",
          "094126.165000",
          "094127.655000",
          "094129.145000",
          "094130.635000",
          "094132.125000",
          "094133.615000",
          "094135.105000",
          "094136.595000",
          "094138.085000",
          "094139.575000",
          "094141.065000",
          "094142.555000",
          "094144.045000",
          "094145.535000",
          "094147.025000",
          "094148.515000",
          "094150.005000",
          "094151.495000",
          "094152.985000",
          "094154.475000",
          "094155.965000",
          "094157.455000",
          "094158.945000",
          "094200.435000",
          "094201.925000",
          "094203.415000",
          "094204.905000",
          "094206.395000",
          "094207.885000",
          "094209.375000",
          "094210.865000",
          "094212.355000",
          "094213.845000",
          "094215.335000",
          "094216.825000",
          "094218.315000",
          "094219.805000",
          "094221.295000",
          "094222.785000",
          "094224.275000",
          "094225.765000",
          "094227.255000",
          "094228.745000",
          "094230.235000",
          "094231.725000",
          "094233.215000",
          "094234.705000",
          "094236.195000",
          "094237.685000",
          "094239.175000",
          "094240.665000",
          "094242.155000",
          "094243.645000",
          "094245.135000",
          "094246.625000",
          "094248.115000",
          "094249.605000",
          "094251.095000",
          "094252.585000",
          "094254.075000",
          "094255.565000",
          "094257.055000",
          "094258.545000",
          "094300.035000",
          "094301.525000",
          "094303.015000",
          "094304.505000",
          "094305.995000",
          "094307.485000",
          "094308.975000",
          "094310.465000",
          "094311.955000",
          "094313.445000",
          "094314.935000",
          "094316.425000",
          "094317.915000",
          "094319.405000",
          "094320.895000",
          "094322.385000",
          "094323.875000",
          "094325.365000",
          "094326.855000",
          "094328.345000",
          "094329.835000",
          "094331.325000",
          "094332.815000",
          "094334.305000",
          "094335.795000",
          "094337.285000",
          "094338.775000",
          "094340.265000",
          "094341.755000",
          "094343.245000",
          "094344.735000",
          "094346.225000",
          "094347.715000",
          "094349.205000",
          "094350.695000",
          "094352.185000",
          "094353.675000",
          "094355.165000",
          "094356.655000",
          "094358.145000",
          "094359.635000",
          "094401.125000",
          "094402.615000",
          "094404.105000",
          "094405.595000",
          "094407.085000",
          "094408.575000",
          "094410.065000",
          "094411.555000",
          "094413.045000",
          "094414.535000",
          "094416.025000",
          "094417.515000",
          "094419.005000",
          "094420.495000",
          "094421.985000",
          "094423.475000",
          "094424.965000",
          "094426.455000",
          "094427.945000",
          "094429.435000",
          "094430.925000",
          "094432.415000",
          "094433.905000",
          "094435.395000",
          "094436.885000",
          "094438.375000",
          "094439.865000",
          "094441.355000",
          "094442.845000",
          "094444.335000",
          "094445.825000",
          "094447.315000",
          "094448.805000",
          "094450.295000",
          "094451.785000",
          "094453.275000",
          "094454.765000",
          "094456.255000",
          "094457.745000",
          "094459.235000",
          "094500.725000",
          "094502.215000",
          "094503.705000",
          "094505.195000",
          "094506.685000",
          "094508.175000",
          "094509.665000",
          "094511.155000",
          "094512.645000",
          "094514.135000",
          "094515.625000",
          "094517.115000",
          "094518.605000",
          "094520.095000",
          "094521.585000",
          "094523.075000",
          "094524.565000",
          "094526.055000",
          "094527.545000",
          "094529.035000",
          "094530.525000",
          "094532.015000",
          "094533.505000",
          "094534.995000",
          "094536.485000",
          "094537.975000",
          "094539.465000",
          "094540.955000",
          "094542.445000",
          "094543.935000",
          "094545.425000",
          "094546.915000",
          "094548.405000",
          "094549.895000",
          "094551.385000",
          "094552.875000",
          "094554.365000",
          "094555.855000",
          "094557.345000",
          "094558.835000",
          "094600.325000",
          "094601.815000",
          "094603.305000",
          "094604.795000",
          "094606.285000",
          "094607.775000",
          "094609.265000",
          "094610.755000",
          "094612.245000",
          "094613.735000",
          "094615.225000",
          "094616.715000",
          "094618.205000",
          "094619.695000",
          "094621.185000",
          "094622.675000",
          "094624.165000",
          "094625.655000",
          "094627.145000",
          "094628.635000",
          "094630.125000",
          "094631.615000",
          "094633.105000",
          "094634.595000",
          "094636.085000",
          "094637.575000",
          "094639.065000",
          "094640.555000",
          "094642.045000",
          "094643.535000",
          "094645.025000",
          "094646.515000",
          "094648.005000",
          "094649.495000",
          "094650.985000",
          "094652.475000",
          "094653.965000",
          "094655.455000",
          "094656.945000"
        ],
        "ContentTime": [
          "093807.050000",
          "093807.053000",
          "093807.056000",
          "093807.068000",
          "093807.071000",
          "093807.083000",
          "093807.086000",
          "093807.096000",
          "093807.099000",
          "093807.102000",
          "093807.104000",
          "093807.107000",
          "093807.110000",
          "093807.113000",
          "093807.116000",
          "093807.119000",
          "093807.122000",
          "093807.125000",
          "093807.128000",
          "093807.131000",
          "093807.133000",
          "093807.136000",
          "093807.139000",
          "093807.142000",
          "093807.145000",
          "093807.148000",
          "093827.016000",
          "093827.019000",
          "093827.022000",
          "093827.025000",
          "093827.028000",
          "093827.031000",
          "093827.033000",
          "093827.036000",
          "093827.039000",
          "093827.042000",
          "093827.045000",
          "093827.048000",
          "093827.051000",
          "093827.057000",
          "093827.060000",
          "093827.063000",
          "093827.066000",
          "093827.069000",
          "093827.072000",
          "093827.075000",
          "093847.016000",
          "093847.019000",
          "093847.022000",
          "093847.025000",
          "093847.028000",
          "093847.031000",
          "093847.034000",
          "093847.037000",
          "093847.039000",
          "093847.042000",
          "093847.045000",
          "093847.048000",
          "093847.051000",
          "093847.061000",
          "093847.064000",
          "093847.066000",
          "093847.069000",
          "093847.072000",
          "093847.075000",
          "093847.078000",
          "093907.016000",
          "093907.019000",
          "093907.029000",
          "093907.032000",
          "093907.034000",
          "093907.037000",
          "093907.040000",
          "093907.043000",
          "093907.046000",
          "093907.049000",
          "093907.060000",
          "093907.063000",
          "093907.066000",
          "093907.069000",
          "093907.072000",
          "093907.075000",
          "093907.078000",
          "093907.080000",
          "093907.083000",
          "093907.086000",
          "093927.016000",
          "093927.019000",
          "093927.022000",
          "093927.025000",
          "093927.028000",
          "093927.031000",
          "093927.034000",
          "093927.037000",
          "093927.039000",
          "093927.042000",
          "093927.045000",
          "093927.048000",
          "093927.051000",
          "093927.054000",
          "093927.057000",
          "093927.060000",
          "093927.063000",
          "093927.066000",
          "093927.069000",
          "093927.072000",
          "094007.017000",
          "094007.020000",
          "094007.023000",
          "094007.026000",
          "094007.029000",
          "094007.032000",
          "094007.035000",
          "094007.038000",
          "094007.040000",
          "094007.043000",
          "094007.046000",
          "094007.049000",
          "094007.052000",
          "094007.058000",
          "094007.061000",
          "094007.064000",
          "094007.070000",
          "094007.073000",
          "094007.076000",
          "094007.079000",
          "094007.082000",
          "094007.085000",
          "094007.088000",
          "094007.091000",
          "094007.093000",
          "094007.096000",
          "094007.099000",
          "094047.016000",
          "094047.029000",
          "094047.032000",
          "094047.035000",
          "094047.038000",
          "094047.041000",
          "094047.044000",
          "094047.047000",
          "094047.049000",
          "094047.052000",
          "094047.055000",
          "094047.058000",
          "094047.061000",
          "094047.064000",
          "094047.067000",
          "094047.070000",
          "094047.073000",
          "094047.076000",
          "094047.079000",
          "094047.082000",
          "094047.085000",
          "094047.088000",
          "094047.091000",
          "094047.093000",
          "094047.096000",
          "094047.099000",
          "094047.102000",
          "094127.028000",
          "094127.032000",
          "094127.035000",
          "094127.038000",
          "094127.041000",
          "094127.043000",
          "094127.047000",
          "094127.049000",
          "094127.052000",
          "094127.055000",
          "094127.058000",
          "094127.061000",
          "094127.064000",
          "094127.067000",
          "094127.070000",
          "094127.073000",
          "094127.076000",
          "094127.079000",
          "094127.082000",
          "094127.085000",
          "094127.088000",
          "094127.091000",
          "094127.094000",
          "094127.096000",
          "094127.099000",
          "094127.102000",
          "094127.105000",
          "094207.017000",
          "094207.020000",
          "094207.023000",
          "094207.026000",
          "094207.029000",
          "094207.032000",
          "094207.035000",
          "094207.038000",
          "094207.041000",
          "094207.044000",
          "094207.047000",
          "094207.050000",
          "094207.053000",
          "094207.055000",
          "094207.058000",
          "094207.061000",
          "094207.064000",
          "094207.067000",
          "094207.070000",
          "094207.073000",
          "094207.076000",
          "094207.079000",
          "094207.082000",
          "094207.085000",
          "094207.087000",
          "094207.090000",
          "094207.093000",
          "094247.016000",
          "094247.019000",
