{
  "aor": 0.001543390243902439,
  "aqi": 0.008699810658536585,
  "bids_meta": {
    "AcquisitionMatrixPE": 104,
    "AcquisitionNumber": 1,
    "AcquisitionTime": "09:47:22.977500",
    "BandwidthPerPixelPhaseEncode": 17.17,
    "BaseResolution": 104,
    "BodyPartExamined": "BRAIN",
    "CogAtlasID": "trm_4c898da401420",
    "ConsistencyInfo": "N4_VE11C_LATEST_20160120",
    "ConversionSoftware": "dcm2niix",
    "ConversionSoftwareVersion": "v1.0.20171215 (OpenJPEG build) GCC7.3.0",
    "DerivedVendorReportedEchoSpacing": 0.000560011,
    "DeviceSerialNumber": "167006",
    "DwellTime": 2.1e-06,
    "EchoTime": 0.037,
    "EchoTrainLength": 104,
    "EffectiveEchoSpacing": 0.000560011,
    "FlipAngle": 52,
    "ImageComments": "Unaliased_MB4_PE3_LB",
    "ImageOrientationPatientDICOM": [
      0.999301,
      0.0353521,
      -0.0121497,
      -0.0373413,
      0.959113,
      -0.280548
    ],
    "ImageType": [
      "ORIGINAL",
      "PRIMARY",
      "M",
      "MB",
      "ND",
      "MOSAIC"
    ],
    "InPlanePhaseEncodingDirectionDICOM": "COL",
    "InstitutionAddress": "Chemin_Queen-Mary_4565_Montreal_District_CA_H3W_1W5",
    "InstitutionName": "IUGM",
    "InstitutionalDepartmentName": "Department",
    "MRAcquisitionType": "2D",
    "MagneticFieldStrength": 3,
    "Manufacturer": "Siemens",
    "ManufacturersModelName": "Prisma_fit",
    "Modality": "MR",
    "MultibandAccelerationFactor": 4,
    "PartialFourier": 1,
    "PatientPosition": "HFS",
    "PercentPhaseFOV": 100,
    "PhaseEncodingDirection": "j-",
    "PhaseEncodingSteps": 104,
    "PhaseResolution": 1,
    "PixelBandwidth": 2290,
    "ProcedureStepDescription": "video5_generic",
    "ProtocolName": "func_task-figures4",
    "PulseSequenceDetails": "%CustomerSeq%_cmrr_mbep2d_bold",
    "ReceiveCoilActiveElements": "HC1-7;NC1,2",
    "ReceiveCoilName": "HeadNeck_64",
    "ReconMatrixPE": 104,
    "RepetitionTime": 1.49,
    "SAR": 0.0295983,
    "ScanOptions": "FS",
    "ScanningSequence": "EP",
    "SequenceName": "epfid2d1_104",
    "SequenceVariant": "SK_SS",
    "SeriesDescription": "func_task-figures4",
    "SeriesNumber": 13,
    "ShimSetting": [
      624,
      -7164,
      -8838,
      648,
      20,
      133,
      9,
      20
    ],
    "SliceThickness": 2,
    "SliceTiming": [
      0,
      0.7825,
      0.0975,
      0.88,
      0.195,
      0.98,
      0.2925,
      1.0775,
      0.39,
      1.175,
      0.49,
      1.2725,
      0.5875,
      1.37,
      0.685,
      0,
      0.7825,
      0.0975,
      0.88,
      0.195,
      0.98,
      0.2925,
      1.0775,
      0.39,
      1.175,
      0.49,
      1.2725,
      0.5875,
      1.37,
      0.685,
      0,
      0.7825,
      0.0975,
      0.88,
      0.195,
      0.98,
      0.2925,
      1.0775,
      0.39,
      1.175,
      0.49,
      1.2725,
      0.5875,
      1.37,
      0.685,
      0,
      0.7825,
      0.0975,
      0.88,
      0.195,
      0.98,
      0.2925,
      1.0775,
      0.39,
      1.175,
      0.49,
      1.2725,
      0.5875,
      1.37,
      0.685
    ],
    "SoftwareVersions": "syngo_MR_E11",
    "SpacingBetweenSlices": 2,
    "StationName": "MRC35049",
    "TaskName": "figures04",
    "TotalReadoutTime": 0.0576811,
    "TxRefAmp": 210.784,
    "dataset": "<unset>",
    "dcmmeta_affine": [
      [
        -1.9986021518707275,
        -0.07468262314796448,
        -0.003470036666840315,
        111.05653381347656
      ],
      [
        -0.07070410996675491,
        1.918226718902588,
        -0.5616114139556885,
        -74.88619232177734
      ],
      [
        -0.024299466982483864,
        0.5610962510108948,
        1.919526219367981,
        -70.24858093261719
      ],
      [
        0.0,
        0.0,
        0.0,
        1.0
      ]
    ],
    "dcmmeta_reorient_transform": [
      [
        0.0,
        -1.0,
        0.0,
        103.0
      ],
      [
        1.0,
        0.0,
        0.0,
        0.0
      ],
      [
        0.0,
        0.0,
        1.0,
        0.0
      ],
      [
        0.0,
        0.0,
        0.0,
        1.0
      ]
    ],
    "dcmmeta_shape": [
      104,
      104,
      60,
      410
    ],
    "dcmmeta_slice_dim": 2,
    "dcmmeta_version": 0.6,
    "global": {
      "const": {
        "AcquisitionMatrix": [
          104,
          0,
          0,
          104
        ],
        "AngioFlag": "N",
        "BitsAllocated": 16,
        "BitsStored": 16,
        "BodyPartExamined": "BRAIN",
        "Columns": 832,
        "EchoNumbers": 1,
        "EchoTime": 37.0,
        "EchoTrainLength": 104,
        "FlipAngle": 52.0,
        "HighBit": 15,
        "ImageOrientationPatient": [
          0.99930106377728,
          0.03535205677107,
          -0.0121497331513,
          -0.0373413128462,
          0.95911333210284,
          -0.2805481109142
        ],
        "ImagePositionPatient": [
          -803.67092350307,
          -846.66195960083,
          200.6283583987
        ],
        "ImageType": [
          "ORIGINAL",
          "PRIMARY",
          "M",
          "MB",
          "ND",
          "MOSAIC"
        ],
        "ImagedNucleus": "1H",
        "ImagingFrequency": 123.259018,
        "InPlanePhaseEncodingDirection": "COL",
        "MRAcquisitionType": "2D",
        "MagneticFieldStrength": 3.0,
        "Manufacturer": "SIEMENS",
        "ManufacturerModelName": "Prisma_fit",
        "Modality": "MR",
        "NumberOfAverages": 1.0,
        "NumberOfPhaseEncodingSteps": 104,
        "PercentPhaseFieldOfView": 100.0,
        "PercentSampling": 100.0,
        "PerformedProcedureStepStartTime": "091207.466000",
        "PhotometricInterpretation": "MONOCHROME2",
        "PixelBandwidth": 2290.0,
        "PixelRepresentation": 0,
        "PixelSpacing": [
          2.0,
          2.0
        ],
        "ProtocolName": "func_task-figures4",
        "RepetitionTime": 1490.0,
        "Rows": 832,
        "SAR": 0.02959826541301,
        "SamplesPerPixel": 1,
        "ScanOptions": "FS",
        "ScanningSequence": "EP",
        "SequenceName": "epfid2d1_104",
        "SequenceVariant": [
          "SK",
          "SS"
        ],
        "SeriesDescription": "func_task-figures4",
        "SeriesNumber": 13,
        "SeriesTime": "094843.351000",
        "SliceLocation": -46.586210476999,
        "SliceThickness": 2.0,
        "SmallestImagePixelValue": 0,
        "SoftwareVersions": "syngo MR E11",
        "SpacingBetweenSlices": 2.0000000463537,
        "SpecificCharacterSet": "ISO_IR 100",
        "StudyID": "1",
        "StudyTime": "091207.321000",
        "TransmitCoilName": "Body",
        "VariableFlipAngleFlag": "N",
        "WindowCenterWidthExplanation": "Algo1",
        "dBdt": 0.0
      },
      "slices": {}
    },
    "modality": "bold",
    "run_id": 1,
    "session_id": "007",
    "subject_id": "03",
    "task_id": "figures04",
    "time": {
      "samples": {
        "AcquisitionNumber": [
          1,
          2,
          3,
          4,
          5,
          6,
          7,
          8,
          9,
          10,
          11,
          12,
          13,
          14,
          15,
          16,
          17,
          18,
          19,
          20,
          21,
          22,
          23,
          24,
          25,
          26,
          27,
          28,
          29,
          30,
          31,
          32,
          33,
          34,
          35,
          36,
          37,
          38,
          39,
          40,
          41,
          42,
          43,
          44,
          45,
          46,
          47,
          48,
          49,
          50,
          51,
          52,
          53,
          54,
          55,
          56,
          57,
          58,
          59,
          60,
          61,
          62,
          63,
          64,
          65,
          66,
          67,
          68,
          69,
          70,
          71,
          72,
          73,
          74,
          75,
          76,
          77,
          78,
          79,
          80,
          81,
          82,
          83,
          84,
          85,
          86,
          87,
          88,
          89,
          90,
          91,
          92,
          93,
          94,
          95,
          96,
          97,
          98,
          99,
          100,
          101,
          102,
          103,
          104,
          105,
          106,
          107,
          108,
          109,
          110,
          111,
          112,
          113,
          114,
          115,
          116,
          117,
          118,
          119,
          120,
          121,
          122,
          123,
          124,
          125,
          126,
          127,
          128,
          129,
          130,
          131,
          132,
          133,
          134,
          135,
          136,
          137,
          138,
          139,
          140,
          141,
          142,
          143,
          144,
          145,
          146,
          147,
          148,
          149,
          150,
          151,
          152,
          153,
          154,
          155,
          156,
          157,
          158,
          159,
          160,
          161,
          162,
          163,
          164,
          165,
          166,
          167,
          168,
          169,
          170,
          171,
          172,
          173,
          174,
          175,
          176,
          177,
          178,
          179,
          180,
          181,
          182,
          183,
          184,
          185,
          186,
          187,
          188,
          189,
          190,
          191,
          192,
          193,
          194,
          195,
          196,
          197,
          198,
          199,
          200,
          201,
          202,
          203,
          204,
          205,
          206,
          207,
          208,
          209,
          210,
          211,
          212,
          213,
          214,
          215,
          216,
          217,
          218,
          219,
          220,
          221,
          222,
          223,
          224,
          225,
          226,
          227,
          228,
          229,
          230,
          231,
          232,
          233,
          234,
          235,
          236,
          237,
          238,
          239,
          240,
          241,
          242,
          243,
          244,
          245,
          246,
          247,
          248,
          249,
          250,
          251,
          252,
          253,
          254,
          255,
          256,
          257,
          258,
          259,
          260,
          261,
          262,
          263,
          264,
          265,
          266,
          267,
          268,
          269,
          270,
          271,
          272,
          273,
          274,
          275,
          276,
          277,
          278,
          279,
          280,
          281,
          282,
          283,
          284,
          285,
          286,
          287,
          288,
          289,
          290,
          291,
          292,
          293,
          294,
          295,
          296,
          297,
          298,
          299,
          300,
          301,
          302,
          303,
          304,
          305,
          306,
          307,
          308,
          309,
          310,
          311,
          312,
          313,
          314,
          315,
          316,
          317,
          318,
          319,
          320,
          321,
          322,
          323,
          324,
          325,
          326,
          327,
          328,
          329,
          330,
          331,
          332,
          333,
          334,
          335,
          336,
          337,
          338,
          339,
          340,
          341,
          342,
          343,
          344,
          345,
          346,
          347,
          348,
          349,
          350,
          351,
          352,
          353,
          354,
          355,
          356,
          357,
          358,
          359,
          360,
          361,
          362,
          363,
          364,
          365,
          366,
          367,
          368,
          369,
          370,
          371,
          372,
          373,
          374,
          375,
          376,
          377,
          378,
          379,
          380,
          381,
          382,
          383,
          384,
          385,
          386,
          387,
          388,
          389,
          390,
          391,
          392,
          393,
          394,
          395,
          396,
          397,
          398,
          399,
          400,
          401,
          402,
          403,
          404,
          405,
          406,
          407,
          408,
          409,
          410
        ],
        "AcquisitionTime": [
          "094722.977500",
          "094724.467500",
          "094725.957500",
          "094727.447500",
          "094728.937500",
          "094730.427500",
          "094731.917500",
          "094733.407500",
          "094734.897500",
          "094736.387500",
          "094737.877500",
          "094739.367500",
          "094740.857500",
          "094742.347500",
          "094743.837500",
          "094745.327500",
          "094746.817500",
          "094748.307500",
          "094749.797500",
          "094751.287500",
          "094752.777500",
          "094754.267500",
          "094755.757500",
          "094757.247500",
          "094758.737500",
          "094800.227500",
          "094801.717500",
          "094803.207500",
          "094804.697500",
          "094806.187500",
          "094807.677500",
          "094809.167500",
          "094810.657500",
          "094812.147500",
          "094813.637500",
          "094815.127500",
          "094816.617500",
          "094818.107500",
          "094819.597500",
          "094821.087500",
          "094822.577500",
          "094824.067500",
          "094825.557500",
          "094827.047500",
          "094828.537500",
          "094830.027500",
          "094831.517500",
          "094833.007500",
          "094834.497500",
          "094835.987500",
          "094837.477500",
          "094838.967500",
          "094840.457500",
          "094841.947500",
          "094843.437500",
          "094844.927500",
          "094846.417500",
          "094847.907500",
          "094849.397500",
          "094850.887500",
          "094852.377500",
          "094853.867500",
          "094855.357500",
          "094856.847500",
          "094858.337500",
          "094859.827500",
          "094901.317500",
          "094902.807500",
          "094904.297500",
          "094905.787500",
          "094907.277500",
          "094908.767500",
          "094910.257500",
          "094911.747500",
          "094913.237500",
          "094914.727500",
          "094916.217500",
          "094917.707500",
          "094919.197500",
          "094920.687500",
          "094922.177500",
          "094923.667500",
          "094925.157500",
          "094926.647500",
          "094928.137500",
          "094929.627500",
          "094931.117500",
          "094932.607500",
          "094934.097500",
          "094935.587500",
          "094937.077500",
          "094938.567500",
          "094940.057500",
          "094941.547500",
          "094943.037500",
          "094944.527500",
          "094946.017500",
          "094947.507500",
          "094948.997500",
          "094950.487500",
          "094951.977500",
          "094953.467500",
          "094954.957500",
          "094956.447500",
          "094957.937500",
          "094959.427500",
          "095000.917500",
          "095002.407500",
          "095003.897500",
          "095005.387500",
          "095006.877500",
          "095008.367500",
          "095009.857500",
          "095011.347500",
          "095012.837500",
          "095014.327500",
          "095015.817500",
          "095017.307500",
          "095018.797500",
          "095020.287500",
          "095021.777500",
          "095023.267500",
          "095024.757500",
          "095026.247500",
          "095027.737500",
          "095029.227500",
          "095030.717500",
          "095032.207500",
          "095033.697500",
          "095035.187500",
          "095036.677500",
          "095038.167500",
          "095039.657500",
          "095041.147500",
          "095042.637500",
          "095044.127500",
          "095045.617500",
          "095047.107500",
          "095048.597500",
          "095050.087500",
          "095051.577500",
          "095053.067500",
          "095054.557500",
          "095056.047500",
          "095057.537500",
          "095059.027500",
          "095100.517500",
          "095102.007500",
          "095103.497500",
          "095104.987500",
          "095106.477500",
          "095107.967500",
          "095109.457500",
          "095110.947500",
          "095112.437500",
          "095113.927500",
          "095115.417500",
          "095116.907500",
          "095118.397500",
          "095119.887500",
          "095121.377500",
          "095122.867500",
          "095124.357500",
          "095125.847500",
          "095127.337500",
          "095128.827500",
          "095130.317500",
          "095131.807500",
          "095133.297500",
          "095134.787500",
          "095136.277500",
          "095137.767500",
          "095139.257500",
          "095140.747500",
          "095142.237500",
          "095143.727500",
          "095145.217500",
          "095146.707500",
          "095148.197500",
          "095149.687500",
          "095151.177500",
          "095152.667500",
          "095154.157500",
          "095155.647500",
          "095157.137500",
          "095158.627500",
          "095200.117500",
          "095201.607500",
          "095203.097500",
          "095204.587500",
          "095206.077500",
          "095207.567500",
          "095209.057500",
          "095210.547500",
          "095212.037500",
          "095213.527500",
          "095215.017500",
          "095216.507500",
          "095217.997500",
          "095219.487500",
          "095220.977500",
          "095222.467500",
          "095223.957500",
          "095225.447500",
          "095226.937500",
          "095228.427500",
          "095229.917500",
          "095231.407500",
          "095232.897500",
          "095234.387500",
          "095235.877500",
          "095237.367500",
          "095238.857500",
          "095240.347500",
          "095241.837500",
          "095243.327500",
          "095244.817500",
          "095246.307500",
          "095247.797500",
          "095249.287500",
          "095250.777500",
          "095252.267500",
          "095253.757500",
          "095255.247500",
          "095256.737500",
          "095258.227500",
          "095259.717500",
          "095301.207500",
          "095302.697500",
          "095304.187500",
          "095305.677500",
          "095307.167500",
          "095308.657500",
          "095310.147500",
          "095311.637500",
          "095313.127500",
          "095314.617500",
          "095316.107500",
          "095317.597500",
          "095319.087500",
          "095320.577500",
          "095322.067500",
          "095323.557500",
          "095325.047500",
          "095326.537500",
          "095328.027500",
          "095329.517500",
          "095331.007500",
          "095332.497500",
          "095333.987500",
          "095335.477500",
          "095336.967500",
          "095338.457500",
          "095339.947500",
          "095341.437500",
          "095342.927500",
          "095344.417500",
          "095345.907500",
          "095347.397500",
          "095348.887500",
          "095350.377500",
          "095351.867500",
          "095353.357500",
          "095354.847500",
          "095356.337500",
          "095357.827500",
          "095359.317500",
          "095400.807500",
          "095402.297500",
          "095403.787500",
          "095405.277500",
          "095406.767500",
          "095408.257500",
          "095409.747500",
          "095411.237500",
          "095412.727500",
          "095414.217500",
          "095415.707500",
          "095417.197500",
          "095418.687500",
          "095420.177500",
          "095421.667500",
          "095423.157500",
          "095424.647500",
          "095426.137500",
          "095427.627500",
          "095429.117500",
          "095430.607500",
          "095432.097500",
          "095433.587500",
          "095435.077500",
          "095436.567500",
          "095438.057500",
          "095439.547500",
          "095441.037500",
          "095442.527500",
          "095444.017500",
          "095445.507500",
          "095446.997500",
          "095448.487500",
          "095449.977500",
          "095451.467500",
          "095452.957500",
          "095454.447500",
          "095455.937500",
          "095457.427500",
          "095458.917500",
          "095500.407500",
          "095501.897500",
          "095503.387500",
          "095504.877500",
          "095506.367500",
          "095507.857500",
          "095509.347500",
          "095510.837500",
          "095512.327500",
          "095513.817500",
          "095515.307500",
          "095516.797500",
          "095518.287500",
          "095519.777500",
          "095521.267500",
          "095522.757500",
          "095524.247500",
          "095525.737500",
          "095527.227500",
          "095528.717500",
          "095530.207500",
          "095531.697500",
          "095533.187500",
          "095534.677500",
          "095536.167500",
          "095537.657500",
          "095539.147500",
          "095540.637500",
          "095542.127500",
          "095543.617500",
          "095545.107500",
          "095546.597500",
          "095548.087500",
          "095549.577500",
          "095551.067500",
          "095552.557500",
          "095554.047500",
          "095555.537500",
          "095557.027500",
          "095558.517500",
          "095600.007500",
          "095601.497500",
          "095602.987500",
          "095604.477500",
          "095605.967500",
          "095607.457500",
          "095608.947500",
          "095610.437500",
          "095611.927500",
          "095613.417500",
          "095614.907500",
          "095616.397500",
          "095617.887500",
          "095619.377500",
          "095620.867500",
          "095622.357500",
          "095623.847500",
          "095625.337500",
          "095626.827500",
          "095628.317500",
          "095629.807500",
          "095631.297500",
          "095632.787500",
          "095634.277500",
          "095635.767500",
          "095637.257500",
          "095638.747500",
          "095640.237500",
          "095641.727500",
          "095643.217500",
          "095644.707500",
          "095646.197500",
          "095647.687500",
          "095649.177500",
          "095650.667500",
          "095652.157500",
          "095653.647500",
          "095655.137500",
          "095656.627500",
          "095658.117500",
          "095659.607500",
          "095701.097500",
          "095702.587500",
          "095704.077500",
          "095705.567500",
          "095707.057500",
          "095708.547500",
          "095710.037500",
          "095711.527500",
          "095713.017500",
          "095714.507500",
          "095715.997500",
          "095717.487500",
          "095718.977500",
          "095720.467500",
          "095721.957500",
          "095723.447500",
          "095724.937500",
          "095726.427500",
          "095727.917500",
          "095729.407500",
          "095730.897500",
          "095732.387500"
        ],
        "ContentTime": [
          "094843.354000",
          "094843.357000",
          "094843.360000",
          "094843.363000",
          "094843.366000",
          "094843.369000",
          "094843.381000",
          "094843.384000",
          "094843.387000",
          "094843.390000",
          "094843.393000",
          "094843.396000",
          "094843.399000",
          "094843.402000",
          "094843.404000",
          "094843.407000",
          "094843.410000",
          "094843.413000",
          "094843.416000",
          "094843.419000",
          "094843.422000",
          "094843.425000",
          "094843.427000",
          "094843.430000",
          "094843.433000",
          "094903.315000",
          "094903.323000",
          "094903.326000",
          "094903.329000",
          "094903.332000",
          "094903.341000",
          "094903.344000",
          "094903.347000",
          "094903.350000",
          "094903.353000",
          "094903.356000",
          "094903.359000",
          "094903.362000",
          "094903.365000",
          "094903.367000",
          "094903.370000",
          "094903.373000",
          "094903.376000",
          "094903.379000",
          "094903.382000",
          "094923.316000",
          "094923.319000",
          "094923.322000",
          "094923.325000",
          "094923.328000",
          "094923.331000",
          "094923.334000",
          "094923.336000",
          "094923.339000",
          "094923.342000",
          "094923.345000",
          "094923.348000",
          "094923.351000",
          "094923.354000",
          "094923.357000",
          "094923.360000",
          "094923.362000",
          "094923.365000",
          "094923.368000",
          "094923.371000",
          "094943.316000",
          "094943.319000",
          "094943.322000",
          "094943.325000",
          "094943.328000",
          "094943.331000",
          "094943.334000",
          "094943.336000",
          "094943.339000",
          "094943.342000",
          "094943.345000",
          "094943.354000",
          "094943.357000",
          "094943.360000",
          "094943.363000",
          "094943.366000",
          "094943.369000",
          "094943.372000",
          "094943.375000",
          "094943.378000",
          "095003.316000",
          "095003.319000",
          "095003.322000",
          "095003.325000",
          "095003.328000",
          "095003.331000",
          "095003.333000",
          "095003.336000",
          "095003.339000",
          "095003.342000",
          "095003.345000",
          "095003.348000",
          "095003.351000",
          "095003.354000",
          "095003.357000",
          "095003.360000",
          "095003.363000",
          "095003.366000",
          "095003.369000",
          "095003.371000",
          "095043.316000",
          "095043.319000",
          "095043.322000",
          "095043.325000",
          "095043.328000",
          "095043.331000",
          "095043.334000",
          "095043.337000",
          "095043.339000",
          "095043.342000",
          "095043.345000",
          "095043.348000",
          "095043.351000",
          "095043.354000",
          "095043.372000",
          "095043.375000",
          "095043.378000",
          "095043.381000",
          "095043.384000",
          "095043.387000",
          "095043.398000",
          "095043.401000",
          "095043.404000",
          "095043.406000",
          "095043.409000",
          "095043.412000",
          "095043.415000",
          "095043.418000",
          "095123.315000",
          "095123.318000",
          "095123.321000",
          "095123.324000",
          "095123.327000",
          "095123.330000",
          "095123.333000",
          "095123.336000",
          "095123.339000",
          "095123.342000",
          "095123.345000",
          "095123.348000",
          "095123.351000",
          "095123.354000",
          "095123.356000",
          "095123.359000",
          "095123.362000",
          "095123.365000",
          "095123.368000",
          "095123.371000",
          "095123.374000",
          "095123.377000",
          "095123.379000",
          "095123.382000",
          "095123.385000",
          "095123.388000",
          "095123.391000",
          "095203.316000",
          "095203.319000",
          "095203.322000",
          "095203.325000",
          "095203.328000",
          "095203.331000",
          "095203.334000",
          "095203.337000",
          "095203.352000",
          "095203.355000",
          "095203.358000",
          "095203.361000",
          "095203.364000",
          "095203.367000",
          "095203.370000",
          "095203.373000",
          "095203.376000",
          "095203.378000",
          "095203.381000",
          "095203.384000",
          "095203.387000",
          "095203.390000",
          "095203.393000",
          "095203.396000",
          "095203.399000",
          "095203.402000",
          "095203.405000",
          "095243.316000",
          "095243.319000",
          "095243.322000",
          "095243.332000",
          "095243.335000",
          "095243.338000",
          "095243.341000",
          "095243.344000",
          "095243.347000",
          "095243.350000",
          "095243.352000",
          "095243.356000",
          "095243.359000",
          "095243.361000",
          "095243.364000",
          "095243.367000",
          "095243.370000",
          "095243.373000",
          "095243.376000",
          "095243.379000",
          "095243.382000",
          "095243.385000",
          "095243.388000",
          "095243.391000",
          "095243.394000",
          "095243.396000",
          "095243.399000",
          "095323.315000",
          "095323.318000",
          "095323.326000",
