{
  "aor": 0.0021243950617283952,
  "aqi": 0.009722454666666666,
  "bids_meta": {
    "AcquisitionMatrixPE": 104,
    "AcquisitionNumber": 1,
    "AcquisitionTime": "15:59:57.082500",
    "BandwidthPerPixelPhaseEncode": 17.17,
    "BaseResolution": 104,
    "BodyPartExamined": "BRAIN",
    "CogAtlasID": "trm_4c898da401420",
    "ConsistencyInfo": "N4_VE11C_LATEST_20160120",
    "ConversionSoftware": "dcm2niix",
    "ConversionSoftwareVersion": "v1.0.20171215 (OpenJPEG build) GCC7.3.0",
    "DerivedVendorReportedEchoSpacing": 0.000560011,
    "DeviceSerialNumber": "167006",
    "DwellTime": 2.1e-06,
    "EchoTime": 0.037,
    "EchoTrainLength": 104,
    "EffectiveEchoSpacing": 0.000560011,
    "FlipAngle": 52,
    "ImageComments": "Unaliased_MB4_PE3_LB",
    "ImageOrientationPatientDICOM": [
      0.999913,
      0.00383354,
      -0.0126166,
      -0.00924969,
      0.885832,
      -0.463914
    ],
    "ImageType": [
      "ORIGINAL",
      "PRIMARY",
      "M",
      "MB",
      "ND",
      "MOSAIC"
    ],
    "InPlanePhaseEncodingDirectionDICOM": "COL",
    "InstitutionAddress": "Chemin_Queen-Mary_4565_Montreal_District_CA_H3W_1W5",
    "InstitutionName": "IUGM",
    "InstitutionalDepartmentName": "Department",
    "MRAcquisitionType": "2D",
    "MagneticFieldStrength": 3,
    "Manufacturer": "Siemens",
    "ManufacturersModelName": "Prisma_fit",
    "Modality": "MR",
    "MultibandAccelerationFactor": 4,
    "PartialFourier": 1,
    "PatientPosition": "HFS",
    "PercentPhaseFOV": 100,
    "PhaseEncodingDirection": "j-",
    "PhaseEncodingSteps": 104,
    "PhaseResolution": 1,
    "PixelBandwidth": 2290,
    "ProcedureStepDescription": "video5_generic",
    "ProtocolName": "func_task-bourne1",
    "PulseSequenceDetails": "%CustomerSeq%_cmrr_mbep2d_bold",
    "ReceiveCoilActiveElements": "HC1-7;NC1,2",
    "ReceiveCoilName": "HeadNeck_64",
    "ReconMatrixPE": 104,
    "RepetitionTime": 1.49,
    "SAR": 0.0361855,
    "ScanOptions": "FS",
    "ScanningSequence": "EP",
    "SequenceName": "epfid2d1_104",
    "SequenceVariant": "SK_SS",
    "SeriesDescription": "func_task-bourne1",
    "SeriesNumber": 7,
    "ShimSetting": [
      619,
      -7174,
      -8883,
      379,
      0,
      -177,
      13,
      -28
    ],
    "SliceThickness": 2,
    "SliceTiming": [
      0,
      0.785,
      0.0975,
      0.8825,
      0.1975,
      0.98,
      0.295,
      1.0775,
      0.3925,
      1.1775,
      0.49,
      1.275,
      0.5875,
      1.3725,
      0.6875,
      0,
      0.785,
      0.0975,
      0.8825,
      0.1975,
      0.98,
      0.295,
      1.0775,
      0.3925,
      1.1775,
      0.49,
      1.275,
      0.5875,
      1.3725,
      0.6875,
      0,
      0.785,
      0.0975,
      0.8825,
      0.1975,
      0.98,
      0.295,
      1.0775,
      0.3925,
      1.1775,
      0.49,
      1.275,
      0.5875,
      1.3725,
      0.6875,
      0,
      0.785,
      0.0975,
      0.8825,
      0.1975,
      0.98,
      0.295,
      1.0775,
      0.3925,
      1.1775,
      0.49,
      1.275,
      0.5875,
      1.3725,
      0.6875
    ],
    "SoftwareVersions": "syngo_MR_E11",
    "SpacingBetweenSlices": 2,
    "StationName": "MRC35049",
    "TaskName": "bourne01",
    "TotalReadoutTime": 0.0576811,
    "TxRefAmp": 248.875,
    "dataset": "<unset>",
    "dcmmeta_affine": [
      [
        -1.9998260736465454,
        -0.018499387428164482,
        -0.018795527517795563,
        107.7254867553711
      ],
      [
        -0.007667082827538252,
        1.7716643810272217,
        -0.9279798865318298,
        -60.30348205566406
      ],
      [
        -0.025233212858438492,
        0.9278271198272705,
        1.7715811729431152,
        -97.35588073730469
      ],
      [
        0.0,
        0.0,
        0.0,
        1.0
      ]
    ],
    "dcmmeta_reorient_transform": [
      [
        0.0,
        -1.0,
        0.0,
        103.0
      ],
      [
        1.0,
        0.0,
        0.0,
        0.0
      ],
      [
        0.0,
        0.0,
        1.0,
        0.0
      ],
      [
        0.0,
        0.0,
        0.0,
        1.0
      ]
    ],
    "dcmmeta_shape": [
      104,
      104,
      60,
      405
    ],
    "dcmmeta_slice_dim": 2,
    "dcmmeta_version": 0.6,
    "global": {
      "const": {
        "AcquisitionMatrix": [
          104,
          0,
          0,
          104
        ],
        "AngioFlag": "N",
        "BitsAllocated": 16,
        "BitsStored": 16,
        "BodyPartExamined": "BRAIN",
        "Columns": 832,
        "EchoNumbers": 1,
        "EchoTime": 37.0,
        "EchoTrainLength": 104,
        "FlipAngle": 52.0,
        "HighBit": 15,
        "ImageOrientationPatient": [
          0.99991305882317,
          0.00383354131441,
          -0.0126166063537,
          -0.0092496933004,
          0.88583217601769,
          -0.4639135685724
        ],
        "ImagePositionPatient": [
          -827.0229817547,
          -769.85458678124,
          345.1242819912
        ],
        "ImageType": [
          "ORIGINAL",
          "PRIMARY",
          "M",
          "MB",
          "ND",
          "MOSAIC"
        ],
        "ImagedNucleus": "1H",
        "ImagingFrequency": 123.259238,
        "InPlanePhaseEncodingDirection": "COL",
        "MRAcquisitionType": "2D",
        "MagneticFieldStrength": 3.0,
        "Manufacturer": "SIEMENS",
        "ManufacturerModelName": "Prisma_fit",
        "Modality": "MR",
        "NumberOfAverages": 1.0,
        "NumberOfPhaseEncodingSteps": 104,
        "PercentPhaseFieldOfView": 100.0,
        "PercentSampling": 100.0,
        "PerformedProcedureStepStartTime": "155059.991000",
        "PhotometricInterpretation": "MONOCHROME2",
        "PixelBandwidth": 2290.0,
        "PixelRepresentation": 0,
        "PixelSpacing": [
          2.0,
          2.0
        ],
        "ProtocolName": "func_task-bourne1",
        "RepetitionTime": 1490.0,
        "Rows": 832,
        "SAR": 0.03618545766646,
        "SamplesPerPixel": 1,
        "ScanOptions": "FS",
        "ScanningSequence": "EP",
        "SequenceName": "epfid2d1_104",
        "SequenceVariant": [
          "SK",
          "SS"
        ],
        "SeriesDescription": "func_task-bourne1",
        "SeriesNumber": 7,
        "SeriesTime": "160122.349000",
        "SliceLocation": -59.269094945983,
        "SliceThickness": 2.0,
        "SmallestImagePixelValue": 0,
        "SoftwareVersions": "syngo MR E11",
        "SpacingBetweenSlices": 1.999999977451,
        "SpecificCharacterSet": "ISO_IR 100",
        "StudyID": "1",
        "StudyTime": "155059.837000",
        "TransmitCoilName": "Body",
        "VariableFlipAngleFlag": "N",
        "WindowCenterWidthExplanation": "Algo1",
        "dBdt": 0.0
      },
      "slices": {}
    },
    "modality": "bold",
    "session_id": "004",
    "subject_id": "02",
    "task_id": "bourne01",
    "time": {
      "samples": {
        "AcquisitionNumber": [
          1,
          2,
          3,
          4,
          5,
          6,
          7,
          8,
          9,
          10,
          11,
          12,
          13,
          14,
          15,
          16,
          17,
          18,
          19,
          20,
          21,
          22,
          23,
          24,
          25,
          26,
          27,
          28,
          29,
          30,
          31,
          32,
          33,
          34,
          35,
          36,
          37,
          38,
          39,
          40,
          41,
          42,
          43,
          44,
          45,
          46,
          47,
          48,
          49,
          50,
          51,
          52,
          53,
          54,
          55,
          56,
          57,
          58,
          59,
          60,
          61,
          62,
          63,
          64,
          65,
          66,
          67,
          68,
          69,
          70,
          71,
          72,
          73,
          74,
          75,
          76,
          77,
          78,
          79,
          80,
          81,
          82,
          83,
          84,
          85,
          86,
          87,
          88,
          89,
          90,
          91,
          92,
          93,
          94,
          95,
          96,
          97,
          98,
          99,
          100,
          101,
          102,
          103,
          104,
          105,
          106,
          107,
          108,
          109,
          110,
          111,
          112,
          113,
          114,
          115,
          116,
          117,
          118,
          119,
          120,
          121,
          122,
          123,
          124,
          125,
          126,
          127,
          128,
          129,
          130,
          131,
          132,
          133,
          134,
          135,
          136,
          137,
          138,
          139,
          140,
          141,
          142,
          143,
          144,
          145,
          146,
          147,
          148,
          149,
          150,
          151,
          152,
          153,
          154,
          155,
          156,
          157,
          158,
          159,
          160,
          161,
          162,
          163,
          164,
          165,
          166,
          167,
          168,
          169,
          170,
          171,
          172,
          173,
          174,
          175,
          176,
          177,
          178,
          179,
          180,
          181,
          182,
          183,
          184,
          185,
          186,
          187,
          188,
          189,
          190,
          191,
          192,
          193,
          194,
          195,
          196,
          197,
          198,
          199,
          200,
          201,
          202,
          203,
          204,
          205,
          206,
          207,
          208,
          209,
          210,
          211,
          212,
          213,
          214,
          215,
          216,
          217,
          218,
          219,
          220,
          221,
          222,
          223,
          224,
          225,
          226,
          227,
          228,
          229,
          230,
          231,
          232,
          233,
          234,
          235,
          236,
          237,
          238,
          239,
          240,
          241,
          242,
          243,
          244,
          245,
          246,
          247,
          248,
          249,
          250,
          251,
          252,
          253,
          254,
          255,
          256,
          257,
          258,
          259,
          260,
          261,
          262,
          263,
          264,
          265,
          266,
          267,
          268,
          269,
          270,
          271,
          272,
          273,
          274,
          275,
          276,
          277,
          278,
          279,
          280,
          281,
          282,
          283,
          284,
          285,
          286,
          287,
          288,
          289,
          290,
          291,
          292,
          293,
          294,
          295,
          296,
          297,
          298,
          299,
          300,
          301,
          302,
          303,
          304,
          305,
          306,
          307,
          308,
          309,
          310,
          311,
          312,
          313,
          314,
          315,
          316,
          317,
          318,
          319,
          320,
          321,
          322,
          323,
          324,
          325,
          326,
          327,
          328,
          329,
          330,
          331,
          332,
          333,
          334,
          335,
          336,
          337,
          338,
          339,
          340,
          341,
          342,
          343,
          344,
          345,
          346,
          347,
          348,
          349,
          350,
          351,
          352,
          353,
          354,
          355,
          356,
          357,
          358,
          359,
          360,
          361,
          362,
          363,
          364,
          365,
          366,
          367,
          368,
          369,
          370,
          371,
          372,
          373,
          374,
          375,
          376,
          377,
          378,
          379,
          380,
          381,
          382,
          383,
          384,
          385,
          386,
          387,
          388,
          389,
          390,
          391,
          392,
          393,
          394,
          395,
          396,
          397,
          398,
          399,
          400,
          401,
          402,
          403,
          404,
          405
        ],
        "AcquisitionTime": [
          "155957.082500",
          "155958.572500",
          "160000.062500",
          "160001.552500",
          "160003.042500",
          "160004.532500",
          "160006.022500",
          "160007.512500",
          "160009.002500",
          "160010.492500",
          "160011.982500",
          "160013.472500",
          "160014.962500",
          "160016.452500",
          "160017.942500",
          "160019.432500",
          "160020.922500",
          "160022.412500",
          "160023.902500",
          "160025.392500",
          "160026.882500",
          "160028.372500",
          "160029.862500",
          "160031.352500",
          "160032.842500",
          "160034.332500",
          "160035.822500",
          "160037.312500",
          "160038.802500",
          "160040.292500",
          "160041.782500",
          "160043.272500",
          "160044.762500",
          "160046.252500",
          "160047.742500",
          "160049.232500",
          "160050.722500",
          "160052.212500",
          "160053.702500",
          "160055.192500",
          "160056.682500",
          "160058.172500",
          "160059.662500",
          "160101.152500",
          "160102.642500",
          "160104.132500",
          "160105.622500",
          "160107.112500",
          "160108.602500",
          "160110.092500",
          "160111.582500",
          "160113.072500",
          "160114.562500",
          "160116.052500",
          "160117.542500",
          "160119.032500",
          "160120.522500",
          "160122.012500",
          "160123.502500",
          "160124.992500",
          "160126.482500",
          "160127.972500",
          "160129.462500",
          "160130.952500",
          "160132.442500",
          "160133.932500",
          "160135.422500",
          "160136.912500",
          "160138.402500",
          "160139.892500",
          "160141.382500",
          "160142.872500",
          "160144.362500",
          "160145.852500",
          "160147.342500",
          "160148.832500",
          "160150.322500",
          "160151.812500",
          "160153.302500",
          "160154.792500",
          "160156.282500",
          "160157.772500",
          "160159.262500",
          "160200.752500",
          "160202.242500",
          "160203.732500",
          "160205.222500",
          "160206.712500",
          "160208.202500",
          "160209.692500",
          "160211.182500",
          "160212.672500",
          "160214.162500",
          "160215.652500",
          "160217.142500",
          "160218.632500",
          "160220.122500",
          "160221.612500",
          "160223.102500",
          "160224.592500",
          "160226.082500",
          "160227.572500",
          "160229.062500",
          "160230.552500",
          "160232.042500",
          "160233.532500",
          "160235.022500",
          "160236.512500",
          "160238.002500",
          "160239.492500",
          "160240.982500",
          "160242.472500",
          "160243.962500",
          "160245.452500",
          "160246.942500",
          "160248.432500",
          "160249.922500",
          "160251.412500",
          "160252.902500",
          "160254.392500",
          "160255.882500",
          "160257.372500",
          "160258.862500",
          "160300.352500",
          "160301.842500",
          "160303.332500",
          "160304.822500",
          "160306.312500",
          "160307.802500",
          "160309.292500",
          "160310.782500",
          "160312.272500",
          "160313.762500",
          "160315.252500",
          "160316.742500",
          "160318.232500",
          "160319.722500",
          "160321.212500",
          "160322.702500",
          "160324.192500",
          "160325.682500",
          "160327.172500",
          "160328.662500",
          "160330.152500",
          "160331.642500",
          "160333.132500",
          "160334.622500",
          "160336.112500",
          "160337.602500",
          "160339.092500",
          "160340.582500",
          "160342.072500",
          "160343.562500",
          "160345.052500",
          "160346.542500",
          "160348.032500",
          "160349.522500",
          "160351.012500",
          "160352.502500",
          "160353.992500",
          "160355.482500",
          "160356.972500",
          "160358.462500",
          "160359.952500",
          "160401.442500",
          "160402.932500",
          "160404.422500",
          "160405.912500",
          "160407.402500",
          "160408.892500",
          "160410.382500",
          "160411.872500",
          "160413.362500",
          "160414.852500",
          "160416.342500",
          "160417.832500",
          "160419.322500",
          "160420.812500",
          "160422.302500",
          "160423.792500",
          "160425.282500",
          "160426.772500",
          "160428.262500",
          "160429.752500",
          "160431.242500",
          "160432.732500",
          "160434.222500",
          "160435.712500",
          "160437.202500",
          "160438.692500",
          "160440.182500",
          "160441.672500",
          "160443.162500",
          "160444.652500",
          "160446.142500",
          "160447.632500",
          "160449.122500",
          "160450.612500",
          "160452.102500",
          "160453.592500",
          "160455.082500",
          "160456.572500",
          "160458.062500",
          "160459.552500",
          "160501.042500",
          "160502.532500",
          "160504.022500",
          "160505.512500",
          "160507.002500",
          "160508.492500",
          "160509.982500",
          "160511.472500",
          "160512.962500",
          "160514.452500",
          "160515.942500",
          "160517.432500",
          "160518.922500",
          "160520.412500",
          "160521.902500",
          "160523.392500",
          "160524.882500",
          "160526.372500",
          "160527.862500",
          "160529.352500",
          "160530.842500",
          "160532.332500",
          "160533.822500",
          "160535.312500",
          "160536.802500",
          "160538.292500",
          "160539.782500",
          "160541.272500",
          "160542.762500",
          "160544.252500",
          "160545.742500",
          "160547.232500",
          "160548.722500",
          "160550.212500",
          "160551.702500",
          "160553.192500",
          "160554.682500",
          "160556.172500",
          "160557.662500",
          "160559.152500",
          "160600.642500",
          "160602.132500",
          "160603.622500",
          "160605.112500",
          "160606.602500",
          "160608.092500",
          "160609.582500",
          "160611.072500",
          "160612.562500",
          "160614.052500",
          "160615.542500",
          "160617.032500",
          "160618.522500",
          "160620.012500",
          "160621.502500",
          "160622.992500",
          "160624.482500",
          "160625.972500",
          "160627.462500",
          "160628.952500",
          "160630.442500",
          "160631.932500",
          "160633.422500",
          "160634.912500",
          "160636.402500",
          "160637.892500",
          "160639.382500",
          "160640.872500",
          "160642.362500",
          "160643.852500",
          "160645.342500",
          "160646.832500",
          "160648.322500",
          "160649.812500",
          "160651.302500",
          "160652.792500",
          "160654.282500",
          "160655.772500",
          "160657.262500",
          "160658.752500",
          "160700.242500",
          "160701.732500",
          "160703.222500",
          "160704.712500",
          "160706.202500",
          "160707.692500",
          "160709.182500",
          "160710.672500",
          "160712.162500",
          "160713.652500",
          "160715.142500",
          "160716.632500",
          "160718.122500",
          "160719.612500",
          "160721.102500",
          "160722.592500",
          "160724.082500",
          "160725.572500",
          "160727.062500",
          "160728.552500",
          "160730.042500",
          "160731.532500",
          "160733.022500",
          "160734.512500",
          "160736.002500",
          "160737.492500",
          "160738.982500",
          "160740.472500",
          "160741.962500",
          "160743.452500",
          "160744.942500",
          "160746.432500",
          "160747.922500",
          "160749.412500",
          "160750.902500",
          "160752.392500",
          "160753.882500",
          "160755.372500",
          "160756.862500",
          "160758.352500",
          "160759.842500",
          "160801.332500",
          "160802.822500",
          "160804.312500",
          "160805.802500",
          "160807.292500",
          "160808.782500",
          "160810.272500",
          "160811.762500",
          "160813.252500",
          "160814.742500",
          "160816.232500",
          "160817.722500",
          "160819.212500",
          "160820.702500",
          "160822.192500",
          "160823.682500",
          "160825.172500",
          "160826.662500",
          "160828.152500",
          "160829.642500",
          "160831.132500",
          "160832.622500",
          "160834.112500",
          "160835.602500",
          "160837.092500",
          "160838.582500",
          "160840.072500",
          "160841.562500",
          "160843.052500",
          "160844.542500",
          "160846.032500",
          "160847.522500",
          "160849.012500",
          "160850.502500",
          "160851.992500",
          "160853.482500",
          "160854.972500",
          "160856.462500",
          "160857.952500",
          "160859.442500",
          "160900.932500",
          "160902.422500",
          "160903.912500",
          "160905.402500",
          "160906.892500",
          "160908.382500",
          "160909.872500",
          "160911.362500",
          "160912.852500",
          "160914.342500",
          "160915.832500",
          "160917.322500",
          "160918.812500",
          "160920.302500",
          "160921.792500",
          "160923.282500",
          "160924.772500",
          "160926.262500",
          "160927.752500",
          "160929.242500",
          "160930.732500",
          "160932.222500",
          "160933.712500",
          "160935.202500",
          "160936.692500",
          "160938.182500",
          "160939.672500",
          "160941.162500",
          "160942.652500",
          "160944.142500",
          "160945.632500",
          "160947.122500",
          "160948.612500",
          "160950.102500",
          "160951.592500",
          "160953.082500",
          "160954.572500",
          "160956.062500",
          "160957.552500",
          "160959.042500"
        ],
        "ContentTime": [
          "160122.352000",
          "160122.355000",
          "160122.358000",
          "160122.361000",
          "160122.364000",
          "160122.367000",
          "160122.370000",
          "160122.373000",
          "160122.376000",
          "160122.379000",
          "160122.382000",
          "160122.385000",
          "160122.388000",
          "160122.391000",
          "160122.394000",
          "160122.396000",
          "160122.399000",
          "160122.402000",
          "160122.405000",
          "160122.408000",
          "160122.411000",
          "160122.414000",
          "160122.417000",
          "160122.431000",
          "160122.434000",
          "160122.456000",
          "160122.459000",
          "160122.462000",
          "160122.465000",
          "160122.468000",
          "160122.471000",
          "160142.319000",
          "160142.322000",
          "160142.335000",
          "160142.338000",
          "160142.341000",
          "160142.344000",
          "160142.347000",
          "160142.350000",
          "160142.353000",
          "160142.356000",
          "160142.359000",
          "160142.362000",
          "160142.364000",
          "160142.367000",
          "160142.370000",
          "160142.373000",
          "160142.376000",
          "160142.379000",
          "160142.382000",
          "160142.385000",
          "160142.388000",
          "160202.319000",
          "160202.322000",
          "160202.325000",
          "160202.328000",
          "160202.331000",
          "160202.334000",
          "160202.336000",
          "160202.339000",
          "160202.342000",
          "160202.345000",
          "160202.348000",
          "160202.355000",
          "160202.358000",
          "160202.361000",
          "160202.364000",
          "160202.367000",
          "160202.370000",
          "160202.373000",
          "160202.376000",
          "160202.378000",
          "160222.319000",
          "160222.322000",
          "160222.325000",
          "160222.328000",
          "160222.331000",
          "160222.334000",
          "160222.337000",
          "160222.339000",
          "160222.342000",
          "160222.345000",
          "160222.348000",
          "160222.351000",
          "160222.354000",
          "160222.357000",
          "160222.360000",
          "160222.363000",
          "160222.366000",
          "160222.369000",
          "160222.372000",
          "160222.375000",
          "160302.319000",
          "160302.322000",
          "160302.325000",
          "160302.328000",
          "160302.331000",
          "160302.334000",
          "160302.337000",
          "160302.339000",
          "160302.343000",
          "160302.345000",
          "160302.348000",
          "160302.352000",
          "160302.354000",
          "160302.357000",
          "160302.360000",
          "160302.363000",
          "160302.366000",
          "160302.369000",
          "160302.372000",
          "160302.375000",
          "160302.378000",
          "160302.381000",
          "160302.384000",
          "160302.386000",
          "160302.389000",
          "160302.393000",
          "160302.396000",
          "160302.398000",
          "160302.401000",
          "160302.404000",
          "160302.407000",
          "160302.410000",
          "160342.319000",
          "160342.322000",
          "160342.325000",
          "160342.328000",
          "160342.331000",
          "160342.334000",
          "160342.337000",
          "160342.340000",
          "160342.343000",
          "160342.346000",
          "160342.357000",
          "160342.360000",
          "160342.363000",
          "160342.366000",
          "160342.369000",
          "160342.372000",
          "160342.375000",
          "160342.379000",
          "160342.383000",
          "160342.386000",
          "160342.389000",
          "160342.393000",
          "160342.396000",
          "160342.399000",
          "160342.402000",
          "160342.405000",
          "160422.319000",
          "160422.322000",
          "160422.325000",
          "160422.328000",
          "160422.338000",
          "160422.341000",
          "160422.344000",
          "160422.347000",
          "160422.350000",
          "160422.353000",
          "160422.356000",
          "160422.359000",
          "160422.362000",
          "160422.365000",
          "160422.368000",
          "160422.370000",
          "160422.373000",
          "160422.376000",
          "160422.379000",
          "160422.382000",
          "160422.389000",
          "160422.391000",
          "160422.394000",
          "160422.397000",
          "160422.400000",
          "160422.403000",
          "160422.406000",
          "160502.319000",
          "160502.322000",
          "160502.325000",
          "160502.328000",
          "160502.331000",
          "160502.334000",
          "160502.337000",
          "160502.340000",
          "160502.343000",
          "160502.346000",
          "160502.349000",
          "160502.352000",
          "160502.354000",
          "160502.358000",
          "160502.361000",
          "160502.364000",
          "160502.367000",
          "160502.370000",
          "160502.373000",
          "160502.376000",
          "160502.379000",
          "160502.382000",
          "160502.385000",
          "160502.388000",
          "160502.391000",
          "160502.393000",
          "160502.396000",
          "160542.319000",
          "160542.322000",
          "160542.325000",
          "160542.336000",
          "160542.339000",
          "160542.342000",
          "160542.345000",
          "160542.347000",
          "160542.350000",
          "160542.353000",
          "160542.362000",
          "160542.365000",
          "160542.368000",
          "160542.371000",
          "160542.374000",
          "160542.377000",
          "160542.379000",
          "160542.383000",
          "160542.385000",
          "160542.388000",
