{
  "aor": 0.0009939506172839505,
  "aqi": 0.006432675259259259,
  "bids_meta": {
    "AcquisitionMatrixPE": 104,
    "AcquisitionNumber": 1,
    "AcquisitionTime": "16:43:58.710000",
    "BandwidthPerPixelPhaseEncode": 17.17,
    "BaseResolution": 104,
    "BodyPartExamined": "BRAIN",
    "CogAtlasID": "trm_4c898da401420",
    "ConsistencyInfo": "N4_VE11C_LATEST_20160120",
    "ConversionSoftware": "dcm2niix",
    "ConversionSoftwareVersion": "v1.0.20171215 (OpenJPEG build) GCC7.3.0",
    "DerivedVendorReportedEchoSpacing": 0.000560011,
    "DeviceSerialNumber": "167006",
    "DwellTime": 2.1e-06,
    "EchoTime": 0.037,
    "EchoTrainLength": 104,
    "EffectiveEchoSpacing": 0.000560011,
    "FlipAngle": 52,
    "ImageComments": "Unaliased_MB4_PE3_LB",
    "ImageOrientationPatientDICOM": [
      0.999913,
      0.00383354,
      -0.0126166,
      -0.00924969,
      0.885832,
      -0.463914
    ],
    "ImageType": [
      "ORIGINAL",
      "PRIMARY",
      "M",
      "MB",
      "ND",
      "MOSAIC"
    ],
    "InPlanePhaseEncodingDirectionDICOM": "COL",
    "InstitutionAddress": "Chemin_Queen-Mary_4565_Montreal_District_CA_H3W_1W5",
    "InstitutionName": "IUGM",
    "InstitutionalDepartmentName": "Department",
    "MRAcquisitionType": "2D",
    "MagneticFieldStrength": 3,
    "Manufacturer": "Siemens",
    "ManufacturersModelName": "Prisma_fit",
    "Modality": "MR",
    "MultibandAccelerationFactor": 4,
    "PartialFourier": 1,
    "PatientPosition": "HFS",
    "PercentPhaseFOV": 100,
    "PhaseEncodingDirection": "j-",
    "PhaseEncodingSteps": 104,
    "PhaseResolution": 1,
    "PixelBandwidth": 2290,
    "ProcedureStepDescription": "video5_generic",
    "ProtocolName": "func_task-bourne5",
    "PulseSequenceDetails": "%CustomerSeq%_cmrr_mbep2d_bold",
    "ReceiveCoilActiveElements": "HC1-7;NC1,2",
    "ReceiveCoilName": "HeadNeck_64",
    "ReconMatrixPE": 104,
    "RepetitionTime": 1.49,
    "SAR": 0.0361855,
    "ScanOptions": "FS",
    "ScanningSequence": "EP",
    "SequenceName": "epfid2d1_104",
    "SequenceVariant": "SK_SS",
    "SeriesDescription": "func_task-bourne5",
    "SeriesNumber": 15,
    "ShimSetting": [
      619,
      -7174,
      -8883,
      379,
      0,
      -177,
      13,
      -28
    ],
    "SliceThickness": 2,
    "SliceTiming": [
      0,
      0.785,
      0.0975,
      0.8825,
      0.195,
      0.98,
      0.295,
      1.0775,
      0.3925,
      1.175,
      0.49,
      1.275,
      0.5875,
      1.3725,
      0.685,
      0,
      0.785,
      0.0975,
      0.8825,
      0.195,
      0.98,
      0.295,
      1.0775,
      0.3925,
      1.175,
      0.49,
      1.275,
      0.5875,
      1.3725,
      0.685,
      0,
      0.785,
      0.0975,
      0.8825,
      0.195,
      0.98,
      0.295,
      1.0775,
      0.3925,
      1.175,
      0.49,
      1.275,
      0.5875,
      1.3725,
      0.685,
      0,
      0.785,
      0.0975,
      0.8825,
      0.195,
      0.98,
      0.295,
      1.0775,
      0.3925,
      1.175,
      0.49,
      1.275,
      0.5875,
      1.3725,
      0.685
    ],
    "SoftwareVersions": "syngo_MR_E11",
    "SpacingBetweenSlices": 2,
    "StationName": "MRC35049",
    "TaskName": "bourne05",
    "TotalReadoutTime": 0.0576811,
    "TxRefAmp": 248.875,
    "dataset": "<unset>",
    "dcmmeta_affine": [
      [
        -1.9998260736465454,
        -0.018499387428164482,
        -0.018795527517795563,
        107.7254867553711
      ],
      [
        -0.007667082827538252,
        1.7716643810272217,
        -0.9279798865318298,
        -60.30348205566406
      ],
      [
        -0.025233212858438492,
        0.9278271198272705,
        1.7715811729431152,
        -97.35588073730469
      ],
      [
        0.0,
        0.0,
        0.0,
        1.0
      ]
    ],
    "dcmmeta_reorient_transform": [
      [
        0.0,
        -1.0,
        0.0,
        103.0
      ],
      [
        1.0,
        0.0,
        0.0,
        0.0
      ],
      [
        0.0,
        0.0,
        1.0,
        0.0
      ],
      [
        0.0,
        0.0,
        0.0,
        1.0
      ]
    ],
    "dcmmeta_shape": [
      104,
      104,
      60,
      405
    ],
    "dcmmeta_slice_dim": 2,
    "dcmmeta_version": 0.6,
    "global": {
      "const": {
        "AcquisitionMatrix": [
          104,
          0,
          0,
          104
        ],
        "AngioFlag": "N",
        "BitsAllocated": 16,
        "BitsStored": 16,
        "BodyPartExamined": "BRAIN",
        "Columns": 832,
        "EchoNumbers": 1,
        "EchoTime": 37.0,
        "EchoTrainLength": 104,
        "FlipAngle": 52.0,
        "HighBit": 15,
        "ImageOrientationPatient": [
          0.99991305882317,
          0.00383354131441,
          -0.0126166063537,
          -0.0092496933004,
          0.88583217601769,
          -0.4639135685724
        ],
        "ImagePositionPatient": [
          -827.0229817547,
          -769.85458678124,
          345.1242819912
        ],
        "ImageType": [
          "ORIGINAL",
          "PRIMARY",
          "M",
          "MB",
          "ND",
          "MOSAIC"
        ],
        "ImagedNucleus": "1H",
        "ImagingFrequency": 123.259263,
        "InPlanePhaseEncodingDirection": "COL",
        "MRAcquisitionType": "2D",
        "MagneticFieldStrength": 3.0,
        "Manufacturer": "SIEMENS",
        "ManufacturerModelName": "Prisma_fit",
        "Modality": "MR",
        "NumberOfAverages": 1.0,
        "NumberOfPhaseEncodingSteps": 104,
        "PercentPhaseFieldOfView": 100.0,
        "PercentSampling": 100.0,
        "PerformedProcedureStepStartTime": "155059.991000",
        "PhotometricInterpretation": "MONOCHROME2",
        "PixelBandwidth": 2290.0,
        "PixelRepresentation": 0,
        "PixelSpacing": [
          2.0,
          2.0
        ],
        "ProtocolName": "func_task-bourne5",
        "RepetitionTime": 1490.0,
        "Rows": 832,
        "SAR": 0.03618545766646,
        "SamplesPerPixel": 1,
        "ScanOptions": "FS",
        "ScanningSequence": "EP",
        "SequenceName": "epfid2d1_104",
        "SequenceVariant": [
          "SK",
          "SS"
        ],
        "SeriesDescription": "func_task-bourne5",
        "SeriesNumber": 15,
        "SeriesTime": "164520.378000",
        "SliceLocation": -59.269094945983,
        "SliceThickness": 2.0,
        "SmallestImagePixelValue": 0,
        "SoftwareVersions": "syngo MR E11",
        "SpacingBetweenSlices": 1.999999977451,
        "SpecificCharacterSet": "ISO_IR 100",
        "StudyID": "1",
        "StudyTime": "155059.837000",
        "TransmitCoilName": "Body",
        "VariableFlipAngleFlag": "N",
        "WindowCenterWidthExplanation": "Algo1",
        "dBdt": 0.0
      },
      "slices": {}
    },
    "modality": "bold",
    "session_id": "004",
    "subject_id": "02",
    "task_id": "bourne05",
    "time": {
      "samples": {
        "AcquisitionNumber": [
          1,
          2,
          3,
          4,
          5,
          6,
          7,
          8,
          9,
          10,
          11,
          12,
          13,
          14,
          15,
          16,
          17,
          18,
          19,
          20,
          21,
          22,
          23,
          24,
          25,
          26,
          27,
          28,
          29,
          30,
          31,
          32,
          33,
          34,
          35,
          36,
          37,
          38,
          39,
          40,
          41,
          42,
          43,
          44,
          45,
          46,
          47,
          48,
          49,
          50,
          51,
          52,
          53,
          54,
          55,
          56,
          57,
          58,
          59,
          60,
          61,
          62,
          63,
          64,
          65,
          66,
          67,
          68,
          69,
          70,
          71,
          72,
          73,
          74,
          75,
          76,
          77,
          78,
          79,
          80,
          81,
          82,
          83,
          84,
          85,
          86,
          87,
          88,
          89,
          90,
          91,
          92,
          93,
          94,
          95,
          96,
          97,
          98,
          99,
          100,
          101,
          102,
          103,
          104,
          105,
          106,
          107,
          108,
          109,
          110,
          111,
          112,
          113,
          114,
          115,
          116,
          117,
          118,
          119,
          120,
          121,
          122,
          123,
          124,
          125,
          126,
          127,
          128,
          129,
          130,
          131,
          132,
          133,
          134,
          135,
          136,
          137,
          138,
          139,
          140,
          141,
          142,
          143,
          144,
          145,
          146,
          147,
          148,
          149,
          150,
          151,
          152,
          153,
          154,
          155,
          156,
          157,
          158,
          159,
          160,
          161,
          162,
          163,
          164,
          165,
          166,
          167,
          168,
          169,
          170,
          171,
          172,
          173,
          174,
          175,
          176,
          177,
          178,
          179,
          180,
          181,
          182,
          183,
          184,
          185,
          186,
          187,
          188,
          189,
          190,
          191,
          192,
          193,
          194,
          195,
          196,
          197,
          198,
          199,
          200,
          201,
          202,
          203,
          204,
          205,
          206,
          207,
          208,
          209,
          210,
          211,
          212,
          213,
          214,
          215,
          216,
          217,
          218,
          219,
          220,
          221,
          222,
          223,
          224,
          225,
          226,
          227,
          228,
          229,
          230,
          231,
          232,
          233,
          234,
          235,
          236,
          237,
          238,
          239,
          240,
          241,
          242,
          243,
          244,
          245,
          246,
          247,
          248,
          249,
          250,
          251,
          252,
          253,
          254,
          255,
          256,
          257,
          258,
          259,
          260,
          261,
          262,
          263,
          264,
          265,
          266,
          267,
          268,
          269,
          270,
          271,
          272,
          273,
          274,
          275,
          276,
          277,
          278,
          279,
          280,
          281,
          282,
          283,
          284,
          285,
          286,
          287,
          288,
          289,
          290,
          291,
          292,
          293,
          294,
          295,
          296,
          297,
          298,
          299,
          300,
          301,
          302,
          303,
          304,
          305,
          306,
          307,
          308,
          309,
          310,
          311,
          312,
          313,
          314,
          315,
          316,
          317,
          318,
          319,
          320,
          321,
          322,
          323,
          324,
          325,
          326,
          327,
          328,
          329,
          330,
          331,
          332,
          333,
          334,
          335,
          336,
          337,
          338,
          339,
          340,
          341,
          342,
          343,
          344,
          345,
          346,
          347,
          348,
          349,
          350,
          351,
          352,
          353,
          354,
          355,
          356,
          357,
          358,
          359,
          360,
          361,
          362,
          363,
          364,
          365,
          366,
          367,
          368,
          369,
          370,
          371,
          372,
          373,
          374,
          375,
          376,
          377,
          378,
          379,
          380,
          381,
          382,
          383,
          384,
          385,
          386,
          387,
          388,
          389,
          390,
          391,
          392,
          393,
          394,
          395,
          396,
          397,
          398,
          399,
          400,
          401,
          402,
          403,
          404,
          405
        ],
        "AcquisitionTime": [
          "164358.710000",
          "164400.200000",
          "164401.690000",
          "164403.180000",
          "164404.670000",
          "164406.160000",
          "164407.650000",
          "164409.140000",
          "164410.630000",
          "164412.120000",
          "164413.610000",
          "164415.100000",
          "164416.590000",
          "164418.080000",
          "164419.570000",
          "164421.060000",
          "164422.550000",
          "164424.040000",
          "164425.530000",
          "164427.020000",
          "164428.510000",
          "164430.000000",
          "164431.490000",
          "164432.980000",
          "164434.470000",
          "164435.960000",
          "164437.450000",
          "164438.940000",
          "164440.430000",
          "164441.920000",
          "164443.410000",
          "164444.900000",
          "164446.390000",
          "164447.880000",
          "164449.370000",
          "164450.860000",
          "164452.350000",
          "164453.840000",
          "164455.330000",
          "164456.820000",
          "164458.310000",
          "164459.800000",
          "164501.290000",
          "164502.780000",
          "164504.270000",
          "164505.760000",
          "164507.250000",
          "164508.740000",
          "164510.230000",
          "164511.720000",
          "164513.210000",
          "164514.700000",
          "164516.190000",
          "164517.680000",
          "164519.170000",
          "164520.660000",
          "164522.150000",
          "164523.640000",
          "164525.130000",
          "164526.620000",
          "164528.110000",
          "164529.600000",
          "164531.090000",
          "164532.580000",
          "164534.070000",
          "164535.560000",
          "164537.050000",
          "164538.540000",
          "164540.030000",
          "164541.520000",
          "164543.010000",
          "164544.500000",
          "164545.990000",
          "164547.480000",
          "164548.970000",
          "164550.460000",
          "164551.950000",
          "164553.440000",
          "164554.930000",
          "164556.420000",
          "164557.910000",
          "164559.400000",
          "164600.890000",
          "164602.380000",
          "164603.870000",
          "164605.360000",
          "164606.850000",
          "164608.340000",
          "164609.830000",
          "164611.320000",
          "164612.810000",
          "164614.300000",
          "164615.790000",
          "164617.280000",
          "164618.770000",
          "164620.260000",
          "164621.750000",
          "164623.240000",
          "164624.730000",
          "164626.220000",
          "164627.710000",
          "164629.200000",
          "164630.690000",
          "164632.180000",
          "164633.670000",
          "164635.160000",
          "164636.650000",
          "164638.140000",
          "164639.630000",
          "164641.120000",
          "164642.610000",
          "164644.100000",
          "164645.590000",
          "164647.080000",
          "164648.570000",
          "164650.060000",
          "164651.550000",
          "164653.040000",
          "164654.530000",
          "164656.020000",
          "164657.510000",
          "164659.000000",
          "164700.490000",
          "164701.980000",
          "164703.470000",
          "164704.960000",
          "164706.450000",
          "164707.940000",
          "164709.430000",
          "164710.920000",
          "164712.410000",
          "164713.900000",
          "164715.390000",
          "164716.880000",
          "164718.370000",
          "164719.860000",
          "164721.350000",
          "164722.840000",
          "164724.330000",
          "164725.820000",
          "164727.310000",
          "164728.800000",
          "164730.290000",
          "164731.780000",
          "164733.270000",
          "164734.760000",
          "164736.250000",
          "164737.740000",
          "164739.230000",
          "164740.720000",
          "164742.210000",
          "164743.700000",
          "164745.190000",
          "164746.680000",
          "164748.170000",
          "164749.660000",
          "164751.150000",
          "164752.640000",
          "164754.130000",
          "164755.620000",
          "164757.110000",
          "164758.600000",
          "164800.090000",
          "164801.580000",
          "164803.070000",
          "164804.560000",
          "164806.050000",
          "164807.540000",
          "164809.030000",
          "164810.520000",
          "164812.010000",
          "164813.500000",
          "164814.990000",
          "164816.480000",
          "164817.970000",
          "164819.460000",
          "164820.950000",
          "164822.440000",
          "164823.930000",
          "164825.420000",
          "164826.910000",
          "164828.400000",
          "164829.890000",
          "164831.380000",
          "164832.870000",
          "164834.360000",
          "164835.850000",
          "164837.340000",
          "164838.830000",
          "164840.320000",
          "164841.810000",
          "164843.300000",
          "164844.790000",
          "164846.280000",
          "164847.770000",
          "164849.260000",
          "164850.750000",
          "164852.240000",
          "164853.730000",
          "164855.220000",
          "164856.710000",
          "164858.200000",
          "164859.690000",
          "164901.180000",
          "164902.670000",
          "164904.160000",
          "164905.650000",
          "164907.140000",
          "164908.630000",
          "164910.120000",
          "164911.610000",
          "164913.100000",
          "164914.590000",
          "164916.080000",
          "164917.570000",
          "164919.060000",
          "164920.550000",
          "164922.040000",
          "164923.530000",
          "164925.020000",
          "164926.510000",
          "164928.000000",
          "164929.490000",
          "164930.980000",
          "164932.470000",
          "164933.960000",
          "164935.450000",
          "164936.940000",
          "164938.430000",
          "164939.920000",
          "164941.410000",
          "164942.900000",
          "164944.390000",
          "164945.880000",
          "164947.370000",
          "164948.860000",
          "164950.350000",
          "164951.840000",
          "164953.330000",
          "164954.820000",
          "164956.310000",
          "164957.800000",
          "164959.290000",
          "165000.780000",
          "165002.270000",
          "165003.760000",
          "165005.250000",
          "165006.740000",
          "165008.230000",
          "165009.720000",
          "165011.210000",
          "165012.700000",
          "165014.190000",
          "165015.680000",
          "165017.170000",
          "165018.660000",
          "165020.150000",
          "165021.640000",
          "165023.130000",
          "165024.620000",
          "165026.110000",
          "165027.600000",
          "165029.090000",
          "165030.580000",
          "165032.070000",
          "165033.560000",
          "165035.050000",
          "165036.540000",
          "165038.030000",
          "165039.520000",
          "165041.010000",
          "165042.500000",
          "165043.990000",
          "165045.480000",
          "165046.970000",
          "165048.460000",
          "165049.950000",
          "165051.440000",
          "165052.930000",
          "165054.420000",
          "165055.910000",
          "165057.400000",
          "165058.890000",
          "165100.380000",
          "165101.870000",
          "165103.360000",
          "165104.850000",
          "165106.340000",
          "165107.830000",
          "165109.320000",
          "165110.810000",
          "165112.300000",
          "165113.790000",
          "165115.280000",
          "165116.770000",
          "165118.260000",
          "165119.750000",
          "165121.240000",
          "165122.730000",
          "165124.220000",
          "165125.710000",
          "165127.200000",
          "165128.690000",
          "165130.180000",
          "165131.670000",
          "165133.160000",
          "165134.650000",
          "165136.140000",
          "165137.630000",
          "165139.120000",
          "165140.610000",
          "165142.100000",
          "165143.590000",
          "165145.080000",
          "165146.570000",
          "165148.060000",
          "165149.550000",
          "165151.040000",
          "165152.530000",
          "165154.020000",
          "165155.510000",
          "165157.000000",
          "165158.490000",
          "165159.980000",
          "165201.470000",
          "165202.960000",
          "165204.450000",
          "165205.940000",
          "165207.430000",
          "165208.920000",
          "165210.410000",
          "165211.900000",
          "165213.390000",
          "165214.880000",
          "165216.370000",
          "165217.860000",
          "165219.350000",
          "165220.840000",
          "165222.330000",
          "165223.820000",
          "165225.310000",
          "165226.800000",
          "165228.290000",
          "165229.780000",
          "165231.270000",
          "165232.760000",
          "165234.250000",
          "165235.740000",
          "165237.230000",
          "165238.720000",
          "165240.210000",
          "165241.700000",
          "165243.190000",
          "165244.680000",
          "165246.170000",
          "165247.660000",
          "165249.150000",
          "165250.640000",
          "165252.130000",
          "165253.620000",
          "165255.110000",
          "165256.600000",
          "165258.090000",
          "165259.580000",
          "165301.070000",
          "165302.560000",
          "165304.050000",
          "165305.540000",
          "165307.030000",
          "165308.520000",
          "165310.010000",
          "165311.500000",
          "165312.990000",
          "165314.480000",
          "165315.970000",
          "165317.460000",
          "165318.950000",
          "165320.440000",
          "165321.930000",
          "165323.420000",
          "165324.910000",
          "165326.400000",
          "165327.890000",
          "165329.380000",
          "165330.870000",
          "165332.360000",
          "165333.850000",
          "165335.340000",
          "165336.830000",
          "165338.320000",
          "165339.810000",
          "165341.300000",
          "165342.790000",
          "165344.280000",
          "165345.770000",
          "165347.260000",
          "165348.750000",
          "165350.240000",
          "165351.730000",
          "165353.220000",
          "165354.710000",
          "165356.200000",
          "165357.690000",
          "165359.180000",
          "165400.670000"
        ],
        "ContentTime": [
          "164520.381000",
          "164520.384000",
          "164520.387000",
          "164520.390000",
          "164520.399000",
          "164520.402000",
          "164520.405000",
          "164520.408000",
          "164520.411000",
          "164520.414000",
          "164520.417000",
          "164520.420000",
          "164520.423000",
          "164520.426000",
          "164520.429000",
          "164520.431000",
          "164520.434000",
          "164520.437000",
          "164520.440000",
          "164520.443000",
          "164520.446000",
          "164520.449000",
          "164520.452000",
          "164520.462000",
          "164520.465000",
          "164520.468000",
          "164520.471000",
          "164520.474000",
          "164540.338000",
          "164540.341000",
          "164540.344000",
          "164540.347000",
          "164540.350000",
          "164540.353000",
          "164540.356000",
          "164540.359000",
          "164540.361000",
          "164540.371000",
          "164540.374000",
          "164540.382000",
          "164540.385000",
          "164540.388000",
          "164540.391000",
          "164540.394000",
          "164540.397000",
          "164540.400000",
          "164540.403000",
          "164540.405000",
          "164600.337000",
          "164600.340000",
          "164600.343000",
          "164600.346000",
          "164600.349000",
          "164600.352000",
          "164600.355000",
          "164600.358000",
          "164600.360000",
          "164600.363000",
          "164600.366000",
          "164600.369000",
          "164600.372000",
          "164600.375000",
          "164600.379000",
          "164600.383000",
          "164600.387000",
          "164600.390000",
          "164600.394000",
          "164600.401000",
          "164620.337000",
          "164620.340000",
          "164620.343000",
          "164620.346000",
          "164620.349000",
          "164620.352000",
          "164620.355000",
          "164620.358000",
          "164620.361000",
          "164620.368000",
          "164620.371000",
          "164620.374000",
          "164620.377000",
          "164620.380000",
          "164620.383000",
          "164620.386000",
          "164620.389000",
          "164620.391000",
          "164620.394000",
          "164620.397000",
          "164620.400000",
          "164640.337000",
          "164640.340000",
          "164640.343000",
          "164640.346000",
          "164640.349000",
          "164640.352000",
          "164640.355000",
          "164640.358000",
          "164640.361000",
          "164640.364000",
          "164640.367000",
          "164640.370000",
          "164640.372000",
          "164640.375000",
          "164640.378000",
          "164640.381000",
          "164640.384000",
          "164640.387000",
          "164640.390000",
          "164720.338000",
          "164720.341000",
          "164720.344000",
          "164720.347000",
          "164720.350000",
          "164720.353000",
          "164720.356000",
          "164720.359000",
          "164720.362000",
          "164720.365000",
          "164720.368000",
          "164720.370000",
          "164720.373000",
          "164720.376000",
          "164720.379000",
          "164720.382000",
          "164720.385000",
          "164720.388000",
          "164720.391000",
          "164720.394000",
          "164720.397000",
          "164720.400000",
          "164720.403000",
          "164720.406000",
          "164720.409000",
          "164720.411000",
          "164720.414000",
          "164800.338000",
          "164800.341000",
          "164800.344000",
          "164800.347000",
          "164800.350000",
          "164800.353000",
          "164800.358000",
          "164800.362000",
          "164800.366000",
          "164800.369000",
          "164800.373000",
          "164800.375000",
          "164800.379000",
          "164800.382000",
          "164800.385000",
          "164800.388000",
          "164800.390000",
          "164800.394000",
          "164800.397000",
          "164800.399000",
          "164800.402000",
          "164800.405000",
          "164800.408000",
          "164800.411000",
          "164800.414000",
          "164800.417000",
          "164840.337000",
          "164840.340000",
          "164840.343000",
          "164840.346000",
          "164840.349000",
          "164840.352000",
          "164840.355000",
          "164840.358000",
          "164840.361000",
          "164840.364000",
          "164840.366000",
          "164840.369000",
          "164840.372000",
          "164840.375000",
          "164840.378000",
          "164840.381000",
          "164840.384000",
          "164840.387000",
          "164840.390000",
          "164840.393000",
          "164840.396000",
          "164840.404000",
          "164840.407000",
          "164840.409000",
          "164840.412000",
          "164840.415000",
          "164840.418000",
          "164920.338000",
          "164920.341000",
          "164920.344000",
          "164920.347000",
          "164920.350000",
          "164920.353000",
          "164920.356000",
          "164920.359000",
          "164920.362000",
          "164920.365000",
          "164920.368000",
          "164920.371000",
          "164920.374000",
          "164920.377000",
          "164920.380000",
          "164920.382000",
          "164920.385000",
          "164920.388000",
          "164920.391000",
          "164920.394000",
          "164920.397000",
          "164920.400000",
          "164920.403000",
          "164920.406000",
          "164920.409000",
          "164920.412000",
          "164920.415000",
          "165000.338000",
          "165000.341000",
          "165000.344000",
          "165000.347000",
          "165000.350000",
          "165000.353000",
          "165000.356000",
          "165000.359000",
          "165000.362000",
          "165000.365000",
