{
  "aor": 0.0008251358024691359,
  "aqi": 0.009187475432098765,
  "bids_meta": {
    "AcquisitionMatrixPE": 104,
    "AcquisitionNumber": 1,
    "AcquisitionTime": "16:33:29.217500",
    "BandwidthPerPixelPhaseEncode": 17.17,
    "BaseResolution": 104,
    "BodyPartExamined": "BRAIN",
    "CogAtlasID": "trm_4c898da401420",
    "ConsistencyInfo": "N4_VE11C_LATEST_20160120",
    "ConversionSoftware": "dcm2niix",
    "ConversionSoftwareVersion": "v1.0.20171215 (OpenJPEG build) GCC7.3.0",
    "DerivedVendorReportedEchoSpacing": 0.000560011,
    "DeviceSerialNumber": "167006",
    "DwellTime": 2.1e-06,
    "EchoTime": 0.037,
    "EchoTrainLength": 104,
    "EffectiveEchoSpacing": 0.000560011,
    "FlipAngle": 52,
    "ImageComments": "Unaliased_MB4_PE3_LB",
    "ImageOrientationPatientDICOM": [
      0.999913,
      0.00383354,
      -0.0126166,
      -0.00924969,
      0.885832,
      -0.463914
    ],
    "ImageType": [
      "ORIGINAL",
      "PRIMARY",
      "M",
      "MB",
      "ND",
      "MOSAIC"
    ],
    "InPlanePhaseEncodingDirectionDICOM": "COL",
    "InstitutionAddress": "Chemin_Queen-Mary_4565_Montreal_District_CA_H3W_1W5",
    "InstitutionName": "IUGM",
    "InstitutionalDepartmentName": "Department",
    "MRAcquisitionType": "2D",
    "MagneticFieldStrength": 3,
    "Manufacturer": "Siemens",
    "ManufacturersModelName": "Prisma_fit",
    "Modality": "MR",
    "MultibandAccelerationFactor": 4,
    "PartialFourier": 1,
    "PatientPosition": "HFS",
    "PercentPhaseFOV": 100,
    "PhaseEncodingDirection": "j-",
    "PhaseEncodingSteps": 104,
    "PhaseResolution": 1,
    "PixelBandwidth": 2290,
    "ProcedureStepDescription": "video5_generic",
    "ProtocolName": "func_task-bourne4",
    "PulseSequenceDetails": "%CustomerSeq%_cmrr_mbep2d_bold",
    "ReceiveCoilActiveElements": "HC1-7;NC1,2",
    "ReceiveCoilName": "HeadNeck_64",
    "ReconMatrixPE": 104,
    "RepetitionTime": 1.49,
    "SAR": 0.0361855,
    "ScanOptions": "FS",
    "ScanningSequence": "EP",
    "SequenceName": "epfid2d1_104",
    "SequenceVariant": "SK_SS",
    "SeriesDescription": "func_task-bourne4",
    "SeriesNumber": 13,
    "ShimSetting": [
      619,
      -7174,
      -8883,
      379,
      0,
      -177,
      13,
      -28
    ],
    "SliceThickness": 2,
    "SliceTiming": [
      0,
      0.7825,
      0.0975,
      0.88,
      0.195,
      0.98,
      0.2925,
      1.0775,
      0.39,
      1.175,
      0.49,
      1.2725,
      0.5875,
      1.37,
      0.685,
      0,
      0.7825,
      0.0975,
      0.88,
      0.195,
      0.98,
      0.2925,
      1.0775,
      0.39,
      1.175,
      0.49,
      1.2725,
      0.5875,
      1.37,
      0.685,
      0,
      0.7825,
      0.0975,
      0.88,
      0.195,
      0.98,
      0.2925,
      1.0775,
      0.39,
      1.175,
      0.49,
      1.2725,
      0.5875,
      1.37,
      0.685,
      0,
      0.7825,
      0.0975,
      0.88,
      0.195,
      0.98,
      0.2925,
      1.0775,
      0.39,
      1.175,
      0.49,
      1.2725,
      0.5875,
      1.37,
      0.685
    ],
    "SoftwareVersions": "syngo_MR_E11",
    "SpacingBetweenSlices": 2,
    "StationName": "MRC35049",
    "TaskName": "bourne04",
    "TotalReadoutTime": 0.0576811,
    "TxRefAmp": 248.875,
    "dataset": "<unset>",
    "dcmmeta_affine": [
      [
        -1.9998260736465454,
        -0.018499387428164482,
        -0.018795527517795563,
        107.7254867553711
      ],
      [
        -0.007667082827538252,
        1.7716643810272217,
        -0.9279798865318298,
        -60.30348205566406
      ],
      [
        -0.025233212858438492,
        0.9278271198272705,
        1.7715811729431152,
        -97.35588073730469
      ],
      [
        0.0,
        0.0,
        0.0,
        1.0
      ]
    ],
    "dcmmeta_reorient_transform": [
      [
        0.0,
        -1.0,
        0.0,
        103.0
      ],
      [
        1.0,
        0.0,
        0.0,
        0.0
      ],
      [
        0.0,
        0.0,
        1.0,
        0.0
      ],
      [
        0.0,
        0.0,
        0.0,
        1.0
      ]
    ],
    "dcmmeta_shape": [
      104,
      104,
      60,
      405
    ],
    "dcmmeta_slice_dim": 2,
    "dcmmeta_version": 0.6,
    "global": {
      "const": {
        "AcquisitionMatrix": [
          104,
          0,
          0,
          104
        ],
        "AngioFlag": "N",
        "BitsAllocated": 16,
        "BitsStored": 16,
        "BodyPartExamined": "BRAIN",
        "Columns": 832,
        "EchoNumbers": 1,
        "EchoTime": 37.0,
        "EchoTrainLength": 104,
        "FlipAngle": 52.0,
        "HighBit": 15,
        "ImageOrientationPatient": [
          0.99991305882317,
          0.00383354131441,
          -0.0126166063537,
          -0.0092496933004,
          0.88583217601769,
          -0.4639135685724
        ],
        "ImagePositionPatient": [
          -827.0229817547,
          -769.85458678124,
          345.1242819912
        ],
        "ImageType": [
          "ORIGINAL",
          "PRIMARY",
          "M",
          "MB",
          "ND",
          "MOSAIC"
        ],
        "ImagedNucleus": "1H",
        "ImagingFrequency": 123.25926,
        "InPlanePhaseEncodingDirection": "COL",
        "MRAcquisitionType": "2D",
        "MagneticFieldStrength": 3.0,
        "Manufacturer": "SIEMENS",
        "ManufacturerModelName": "Prisma_fit",
        "Modality": "MR",
        "NumberOfAverages": 1.0,
        "NumberOfPhaseEncodingSteps": 104,
        "PercentPhaseFieldOfView": 100.0,
        "PercentSampling": 100.0,
        "PerformedProcedureStepStartTime": "155059.991000",
        "PhotometricInterpretation": "MONOCHROME2",
        "PixelBandwidth": 2290.0,
        "PixelRepresentation": 0,
        "PixelSpacing": [
          2.0,
          2.0
        ],
        "ProtocolName": "func_task-bourne4",
        "RepetitionTime": 1490.0,
        "Rows": 832,
        "SAR": 0.03618545766646,
        "SamplesPerPixel": 1,
        "ScanOptions": "FS",
        "ScanningSequence": "EP",
        "SequenceName": "epfid2d1_104",
        "SequenceVariant": [
          "SK",
          "SS"
        ],
        "SeriesDescription": "func_task-bourne4",
        "SeriesNumber": 13,
        "SeriesTime": "163502.345000",
        "SliceLocation": -59.269094945983,
        "SliceThickness": 2.0,
        "SmallestImagePixelValue": 0,
        "SoftwareVersions": "syngo MR E11",
        "SpacingBetweenSlices": 1.999999977451,
        "SpecificCharacterSet": "ISO_IR 100",
        "StudyID": "1",
        "StudyTime": "155059.837000",
        "TransmitCoilName": "Body",
        "VariableFlipAngleFlag": "N",
        "WindowCenterWidthExplanation": "Algo1",
        "dBdt": 0.0
      },
      "slices": {}
    },
    "modality": "bold",
    "session_id": "004",
    "subject_id": "02",
    "task_id": "bourne04",
    "time": {
      "samples": {
        "AcquisitionNumber": [
          1,
          2,
          3,
          4,
          5,
          6,
          7,
          8,
          9,
          10,
          11,
          12,
          13,
          14,
          15,
          16,
          17,
          18,
          19,
          20,
          21,
          22,
          23,
          24,
          25,
          26,
          27,
          28,
          29,
          30,
          31,
          32,
          33,
          34,
          35,
          36,
          37,
          38,
          39,
          40,
          41,
          42,
          43,
          44,
          45,
          46,
          47,
          48,
          49,
          50,
          51,
          52,
          53,
          54,
          55,
          56,
          57,
          58,
          59,
          60,
          61,
          62,
          63,
          64,
          65,
          66,
          67,
          68,
          69,
          70,
          71,
          72,
          73,
          74,
          75,
          76,
          77,
          78,
          79,
          80,
          81,
          82,
          83,
          84,
          85,
          86,
          87,
          88,
          89,
          90,
          91,
          92,
          93,
          94,
          95,
          96,
          97,
          98,
          99,
          100,
          101,
          102,
          103,
          104,
          105,
          106,
          107,
          108,
          109,
          110,
          111,
          112,
          113,
          114,
          115,
          116,
          117,
          118,
          119,
          120,
          121,
          122,
          123,
          124,
          125,
          126,
          127,
          128,
          129,
          130,
          131,
          132,
          133,
          134,
          135,
          136,
          137,
          138,
          139,
          140,
          141,
          142,
          143,
          144,
          145,
          146,
          147,
          148,
          149,
          150,
          151,
          152,
          153,
          154,
          155,
          156,
          157,
          158,
          159,
          160,
          161,
          162,
          163,
          164,
          165,
          166,
          167,
          168,
          169,
          170,
          171,
          172,
          173,
          174,
          175,
          176,
          177,
          178,
          179,
          180,
          181,
          182,
          183,
          184,
          185,
          186,
          187,
          188,
          189,
          190,
          191,
          192,
          193,
          194,
          195,
          196,
          197,
          198,
          199,
          200,
          201,
          202,
          203,
          204,
          205,
          206,
          207,
          208,
          209,
          210,
          211,
          212,
          213,
          214,
          215,
          216,
          217,
          218,
          219,
          220,
          221,
          222,
          223,
          224,
          225,
          226,
          227,
          228,
          229,
          230,
          231,
          232,
          233,
          234,
          235,
          236,
          237,
          238,
          239,
          240,
          241,
          242,
          243,
          244,
          245,
          246,
          247,
          248,
          249,
          250,
          251,
          252,
          253,
          254,
          255,
          256,
          257,
          258,
          259,
          260,
          261,
          262,
          263,
          264,
          265,
          266,
          267,
          268,
          269,
          270,
          271,
          272,
          273,
          274,
          275,
          276,
          277,
          278,
          279,
          280,
          281,
          282,
          283,
          284,
          285,
          286,
          287,
          288,
          289,
          290,
          291,
          292,
          293,
          294,
          295,
          296,
          297,
          298,
          299,
          300,
          301,
          302,
          303,
          304,
          305,
          306,
          307,
          308,
          309,
          310,
          311,
          312,
          313,
          314,
          315,
          316,
          317,
          318,
          319,
          320,
          321,
          322,
          323,
          324,
          325,
          326,
          327,
          328,
          329,
          330,
          331,
          332,
          333,
          334,
          335,
          336,
          337,
          338,
          339,
          340,
          341,
          342,
          343,
          344,
          345,
          346,
          347,
          348,
          349,
          350,
          351,
          352,
          353,
          354,
          355,
          356,
          357,
          358,
          359,
          360,
          361,
          362,
          363,
          364,
          365,
          366,
          367,
          368,
          369,
          370,
          371,
          372,
          373,
          374,
          375,
          376,
          377,
          378,
          379,
          380,
          381,
          382,
          383,
          384,
          385,
          386,
          387,
          388,
          389,
          390,
          391,
          392,
          393,
          394,
          395,
          396,
          397,
          398,
          399,
          400,
          401,
          402,
          403,
          404,
          405
        ],
        "AcquisitionTime": [
          "163329.217500",
          "163330.707500",
          "163332.197500",
          "163333.687500",
          "163335.177500",
          "163336.667500",
          "163338.157500",
          "163339.647500",
          "163341.137500",
          "163342.627500",
          "163344.117500",
          "163345.607500",
          "163347.097500",
          "163348.587500",
          "163350.077500",
          "163351.567500",
          "163353.057500",
          "163354.547500",
          "163356.037500",
          "163357.527500",
          "163359.017500",
          "163400.507500",
          "163401.997500",
          "163403.487500",
          "163404.977500",
          "163406.467500",
          "163407.957500",
          "163409.447500",
          "163410.937500",
          "163412.427500",
          "163413.917500",
          "163415.407500",
          "163416.897500",
          "163418.387500",
          "163419.877500",
          "163421.367500",
          "163422.857500",
          "163424.347500",
          "163425.837500",
          "163427.327500",
          "163428.817500",
          "163430.307500",
          "163431.797500",
          "163433.287500",
          "163434.777500",
          "163436.267500",
          "163437.757500",
          "163439.247500",
          "163440.737500",
          "163442.227500",
          "163443.717500",
          "163445.207500",
          "163446.697500",
          "163448.187500",
          "163449.677500",
          "163451.167500",
          "163452.657500",
          "163454.147500",
          "163455.637500",
          "163457.127500",
          "163458.617500",
          "163500.107500",
          "163501.597500",
          "163503.087500",
          "163504.577500",
          "163506.067500",
          "163507.557500",
          "163509.047500",
          "163510.537500",
          "163512.027500",
          "163513.517500",
          "163515.007500",
          "163516.497500",
          "163517.987500",
          "163519.477500",
          "163520.967500",
          "163522.457500",
          "163523.947500",
          "163525.437500",
          "163526.927500",
          "163528.417500",
          "163529.907500",
          "163531.397500",
          "163532.887500",
          "163534.377500",
          "163535.867500",
          "163537.357500",
          "163538.847500",
          "163540.337500",
          "163541.827500",
          "163543.317500",
          "163544.807500",
          "163546.297500",
          "163547.787500",
          "163549.277500",
          "163550.767500",
          "163552.257500",
          "163553.747500",
          "163555.237500",
          "163556.727500",
          "163558.217500",
          "163559.707500",
          "163601.197500",
          "163602.687500",
          "163604.177500",
          "163605.667500",
          "163607.157500",
          "163608.647500",
          "163610.137500",
          "163611.627500",
          "163613.117500",
          "163614.607500",
          "163616.097500",
          "163617.587500",
          "163619.077500",
          "163620.567500",
          "163622.057500",
          "163623.547500",
          "163625.037500",
          "163626.527500",
          "163628.017500",
          "163629.507500",
          "163630.997500",
          "163632.487500",
          "163633.977500",
          "163635.467500",
          "163636.957500",
          "163638.447500",
          "163639.937500",
          "163641.427500",
          "163642.917500",
          "163644.407500",
          "163645.897500",
          "163647.387500",
          "163648.877500",
          "163650.367500",
          "163651.857500",
          "163653.347500",
          "163654.837500",
          "163656.327500",
          "163657.817500",
          "163659.307500",
          "163700.797500",
          "163702.287500",
          "163703.777500",
          "163705.267500",
          "163706.757500",
          "163708.247500",
          "163709.737500",
          "163711.227500",
          "163712.717500",
          "163714.207500",
          "163715.697500",
          "163717.187500",
          "163718.677500",
          "163720.167500",
          "163721.657500",
          "163723.147500",
          "163724.637500",
          "163726.127500",
          "163727.617500",
          "163729.107500",
          "163730.597500",
          "163732.087500",
          "163733.577500",
          "163735.067500",
          "163736.557500",
          "163738.047500",
          "163739.537500",
          "163741.027500",
          "163742.517500",
          "163744.007500",
          "163745.497500",
          "163746.987500",
          "163748.477500",
          "163749.967500",
          "163751.457500",
          "163752.947500",
          "163754.437500",
          "163755.927500",
          "163757.417500",
          "163758.907500",
          "163800.397500",
          "163801.887500",
          "163803.377500",
          "163804.867500",
          "163806.357500",
          "163807.847500",
          "163809.337500",
          "163810.827500",
          "163812.317500",
          "163813.807500",
          "163815.297500",
          "163816.787500",
          "163818.277500",
          "163819.767500",
          "163821.257500",
          "163822.747500",
          "163824.237500",
          "163825.727500",
          "163827.217500",
          "163828.707500",
          "163830.197500",
          "163831.687500",
          "163833.177500",
          "163834.667500",
          "163836.157500",
          "163837.647500",
          "163839.137500",
          "163840.627500",
          "163842.117500",
          "163843.607500",
          "163845.097500",
          "163846.587500",
          "163848.077500",
          "163849.567500",
          "163851.057500",
          "163852.547500",
          "163854.037500",
          "163855.527500",
          "163857.017500",
          "163858.507500",
          "163859.997500",
          "163901.487500",
          "163902.977500",
          "163904.467500",
          "163905.957500",
          "163907.447500",
          "163908.937500",
          "163910.427500",
          "163911.917500",
          "163913.407500",
          "163914.897500",
          "163916.387500",
          "163917.877500",
          "163919.367500",
          "163920.857500",
          "163922.347500",
          "163923.837500",
          "163925.327500",
          "163926.817500",
          "163928.307500",
          "163929.797500",
          "163931.287500",
          "163932.777500",
          "163934.267500",
          "163935.757500",
          "163937.247500",
          "163938.737500",
          "163940.227500",
          "163941.717500",
          "163943.207500",
          "163944.697500",
          "163946.187500",
          "163947.677500",
          "163949.167500",
          "163950.657500",
          "163952.147500",
          "163953.637500",
          "163955.127500",
          "163956.617500",
          "163958.107500",
          "163959.597500",
          "164001.087500",
          "164002.577500",
          "164004.067500",
          "164005.557500",
          "164007.047500",
          "164008.537500",
          "164010.027500",
          "164011.517500",
          "164013.007500",
          "164014.497500",
          "164015.987500",
          "164017.477500",
          "164018.967500",
          "164020.457500",
          "164021.947500",
          "164023.437500",
          "164024.927500",
          "164026.417500",
          "164027.907500",
          "164029.397500",
          "164030.887500",
          "164032.377500",
          "164033.867500",
          "164035.357500",
          "164036.847500",
          "164038.337500",
          "164039.827500",
          "164041.317500",
          "164042.807500",
          "164044.297500",
          "164045.787500",
          "164047.277500",
          "164048.767500",
          "164050.257500",
          "164051.747500",
          "164053.237500",
          "164054.727500",
          "164056.217500",
          "164057.707500",
          "164059.197500",
          "164100.687500",
          "164102.177500",
          "164103.667500",
          "164105.157500",
          "164106.647500",
          "164108.137500",
          "164109.627500",
          "164111.117500",
          "164112.607500",
          "164114.097500",
          "164115.587500",
          "164117.077500",
          "164118.567500",
          "164120.057500",
          "164121.547500",
          "164123.037500",
          "164124.527500",
          "164126.017500",
          "164127.507500",
          "164128.997500",
          "164130.487500",
          "164131.977500",
          "164133.467500",
          "164134.957500",
          "164136.447500",
          "164137.937500",
          "164139.427500",
          "164140.917500",
          "164142.407500",
          "164143.897500",
          "164145.387500",
          "164146.877500",
          "164148.367500",
          "164149.857500",
          "164151.347500",
          "164152.837500",
          "164154.327500",
          "164155.817500",
          "164157.307500",
          "164158.797500",
          "164200.287500",
          "164201.777500",
          "164203.267500",
          "164204.757500",
          "164206.247500",
          "164207.737500",
          "164209.227500",
          "164210.717500",
          "164212.207500",
          "164213.697500",
          "164215.187500",
          "164216.677500",
          "164218.167500",
          "164219.657500",
          "164221.147500",
          "164222.637500",
          "164224.127500",
          "164225.617500",
          "164227.107500",
          "164228.597500",
          "164230.087500",
          "164231.577500",
          "164233.067500",
          "164234.557500",
          "164236.047500",
          "164237.537500",
          "164239.027500",
          "164240.517500",
          "164242.007500",
          "164243.497500",
          "164244.987500",
          "164246.477500",
          "164247.967500",
          "164249.457500",
          "164250.947500",
          "164252.437500",
          "164253.927500",
          "164255.417500",
          "164256.907500",
          "164258.397500",
          "164259.887500",
          "164301.377500",
          "164302.867500",
          "164304.357500",
          "164305.847500",
          "164307.337500",
          "164308.827500",
          "164310.317500",
          "164311.807500",
          "164313.297500",
          "164314.787500",
          "164316.277500",
          "164317.767500",
          "164319.257500",
          "164320.747500",
          "164322.237500",
          "164323.727500",
          "164325.217500",
          "164326.707500",
          "164328.197500",
          "164329.687500",
          "164331.177500"
        ],
        "ContentTime": [
          "163502.348000",
          "163502.352000",
          "163502.355000",
          "163502.365000",
          "163502.368000",
          "163502.371000",
          "163502.373000",
          "163502.376000",
          "163502.379000",
          "163502.382000",
          "163502.385000",
          "163502.388000",
          "163502.391000",
          "163502.394000",
          "163502.397000",
          "163502.400000",
          "163502.403000",
          "163502.406000",
          "163502.409000",
          "163502.411000",
          "163502.414000",
          "163502.417000",
          "163502.422000",
          "163502.425000",
          "163502.428000",
          "163502.431000",
          "163502.434000",
          "163502.437000",
          "163502.439000",
          "163502.442000",
          "163502.445000",
          "163502.448000",
          "163502.451000",
          "163502.454000",
          "163502.457000",
          "163502.460000",
          "163502.463000",
          "163502.466000",
          "163522.319000",
          "163522.322000",
          "163522.325000",
          "163522.328000",
          "163522.331000",
          "163522.334000",
          "163522.337000",
          "163522.340000",
          "163522.343000",
          "163522.345000",
          "163522.348000",
          "163522.351000",
          "163522.354000",
          "163522.371000",
          "163522.374000",
          "163522.377000",
          "163522.387000",
          "163522.390000",
          "163522.392000",
          "163522.395000",
          "163542.319000",
          "163542.322000",
          "163542.325000",
          "163542.328000",
          "163542.331000",
          "163542.334000",
          "163542.337000",
          "163542.340000",
          "163542.343000",
          "163542.345000",
          "163542.348000",
          "163542.351000",
          "163542.354000",
          "163542.357000",
          "163542.360000",
          "163542.363000",
          "163542.366000",
          "163542.369000",
          "163542.371000",
          "163542.375000",
          "163602.319000",
          "163602.322000",
          "163602.325000",
          "163602.328000",
          "163602.331000",
          "163602.334000",
          "163602.336000",
          "163602.339000",
          "163602.342000",
          "163602.345000",
          "163602.348000",
          "163602.351000",
          "163602.354000",
          "163602.357000",
          "163602.360000",
          "163602.363000",
          "163602.367000",
          "163602.370000",
          "163602.372000",
          "163602.381000",
          "163602.384000",
          "163642.319000",
          "163642.322000",
          "163642.325000",
          "163642.328000",
          "163642.331000",
          "163642.334000",
          "163642.337000",
          "163642.340000",
          "163642.343000",
          "163642.346000",
          "163642.349000",
          "163642.352000",
          "163642.354000",
          "163642.357000",
          "163642.360000",
          "163642.363000",
          "163642.366000",
          "163642.369000",
          "163642.373000",
          "163642.376000",
          "163642.379000",
          "163642.382000",
          "163642.386000",
          "163642.389000",
          "163642.392000",
          "163642.395000",
          "163642.398000",
          "163642.401000",
          "163642.404000",
          "163642.406000",
          "163722.319000",
          "163722.322000",
          "163722.325000",
          "163722.328000",
          "163722.331000",
          "163722.334000",
          "163722.337000",
          "163722.340000",
          "163722.342000",
          "163722.345000",
          "163722.348000",
          "163722.351000",
          "163722.354000",
          "163722.357000",
          "163722.360000",
          "163722.363000",
          "163722.366000",
          "163722.369000",
          "163722.372000",
          "163722.375000",
          "163722.378000",
          "163722.381000",
          "163722.384000",
          "163722.387000",
          "163722.390000",
          "163722.392000",
          "163722.395000",
          "163802.319000",
          "163802.322000",
          "163802.325000",
          "163802.328000",
          "163802.331000",
          "163802.334000",
          "163802.337000",
          "163802.339000",
          "163802.342000",
          "163802.345000",
          "163802.348000",
          "163802.351000",
          "163802.354000",
          "163802.357000",
          "163802.360000",
          "163802.363000",
          "163802.366000",
          "163802.369000",
          "163802.371000",
          "163802.374000",
          "163802.377000",
          "163802.380000",
          "163802.383000",
          "163802.386000",
          "163802.389000",
          "163802.392000",
          "163802.395000",
          "163842.319000",
          "163842.322000",
          "163842.325000",
          "163842.328000",
          "163842.331000",
          "163842.334000",
          "163842.337000",
          "163842.340000",
          "163842.343000",
          "163842.346000",
          "163842.349000",
          "163842.352000",
          "163842.355000",
          "163842.358000",
          "163842.361000",
          "163842.364000",
          "163842.367000",
          "163842.370000",
          "163842.373000",
          "163842.375000",
          "163842.378000",
          "163842.381000",
          "163842.384000",
          "163842.387000",
          "163842.390000",
          "163842.393000",
          "163922.319000",
          "163922.322000",
          "163922.325000",
          "163922.328000",
          "163922.331000",
          "163922.334000",
          "163922.337000",
          "163922.340000",
          "163922.343000",
          "163922.346000",
          "163922.349000",
          "163922.352000",
          "163922.355000",
          "163922.358000",
          "163922.360000",
          "163922.363000",
