{
  "aor": 0.0007037100737100737,
  "aqi": 0.007136122481572481,
  "bids_meta": {
    "AcquisitionMatrixPE": 104,
    "AcquisitionNumber": 1,
    "AcquisitionTime": "14:36:40.800000",
    "BandwidthPerPixelPhaseEncode": 17.17,
    "BaseResolution": 104,
    "BodyPartExamined": "BRAIN",
    "CogAtlasID": "trm_4c898da401420",
    "ConsistencyInfo": "N4_VE11C_LATEST_20160120",
    "ConversionSoftware": "dcm2niix",
    "ConversionSoftwareVersion": "v1.0.20171215 (OpenJPEG build) GCC7.3.0",
    "DerivedVendorReportedEchoSpacing": 0.000560011,
    "DeviceSerialNumber": "167006",
    "DwellTime": 2.1e-06,
    "EchoTime": 0.037,
    "EchoTrainLength": 104,
    "EffectiveEchoSpacing": 0.000560011,
    "FlipAngle": 52,
    "ImageComments": "Unaliased_MB4_PE3_LB",
    "ImageOrientationPatientDICOM": [
      0.999173,
      0.0369294,
      -0.0170317,
      -0.0406549,
      0.896554,
      -0.441065
    ],
    "ImageType": [
      "ORIGINAL",
      "PRIMARY",
      "M",
      "MB",
      "ND",
      "MOSAIC"
    ],
    "InPlanePhaseEncodingDirectionDICOM": "COL",
    "InstitutionAddress": "Chemin_Queen-Mary_4565_Montreal_District_CA_H3W_1W5",
    "InstitutionName": "IUGM",
    "InstitutionalDepartmentName": "Department",
    "MRAcquisitionType": "2D",
    "MagneticFieldStrength": 3,
    "Manufacturer": "Siemens",
    "ManufacturersModelName": "Prisma_fit",
    "Modality": "MR",
    "MultibandAccelerationFactor": 4,
    "PartialFourier": 1,
    "PatientPosition": "HFS",
    "PercentPhaseFOV": 100,
    "PhaseEncodingDirection": "j-",
    "PhaseEncodingSteps": 104,
    "PhaseResolution": 1,
    "PixelBandwidth": 2290,
    "ProcedureStepDescription": "video5_generic",
    "ProtocolName": "func_task-figures7",
    "PulseSequenceDetails": "%CustomerSeq%_cmrr_mbep2d_bold",
    "ReceiveCoilActiveElements": "HC1-7;NC1,2",
    "ReceiveCoilName": "HeadNeck_64",
    "ReconMatrixPE": 104,
    "RepetitionTime": 1.49,
    "SAR": 0.0350692,
    "ScanOptions": "FS",
    "ScanningSequence": "EP",
    "SequenceName": "epfid2d1_104",
    "SequenceVariant": "SK_SS",
    "SeriesDescription": "func_task-figures7",
    "SeriesNumber": 15,
    "ShimSetting": [
      619,
      -7178,
      -8917,
      410,
      3,
      -213,
      -34,
      -2
    ],
    "SliceThickness": 2,
    "SliceTiming": [
      0,
      0.7825,
      0.0975,
      0.88,
      0.195,
      0.98,
      0.2925,
      1.0775,
      0.39,
      1.175,
      0.49,
      1.2725,
      0.5875,
      1.37,
      0.685,
      0,
      0.7825,
      0.0975,
      0.88,
      0.195,
      0.98,
      0.2925,
      1.0775,
      0.39,
      1.175,
      0.49,
      1.2725,
      0.5875,
      1.37,
      0.685,
      0,
      0.7825,
      0.0975,
      0.88,
      0.195,
      0.98,
      0.2925,
      1.0775,
      0.39,
      1.175,
      0.49,
      1.2725,
      0.5875,
      1.37,
      0.685,
      0,
      0.7825,
      0.0975,
      0.88,
      0.195,
      0.98,
      0.2925,
      1.0775,
      0.39,
      1.175,
      0.49,
      1.2725,
      0.5875,
      1.37,
      0.685
    ],
    "SoftwareVersions": "syngo_MR_E11",
    "SpacingBetweenSlices": 2,
    "StationName": "MRC35049",
    "TaskName": "figures07",
    "TotalReadoutTime": 0.0576811,
    "TxRefAmp": 252.586,
    "dataset": "<unset>",
    "dcmmeta_affine": [
      [
        -1.9983454942703247,
        -0.08130988478660583,
        0.002036905148997903,
        109.45382690429688
      ],
      [
        -0.07385885715484619,
        1.7931076288223267,
        -0.8827853798866272,
        -58.24525451660156
      ],
      [
        -0.034063395112752914,
        0.8821303248405457,
        1.7946268320083618,
        -119.61566925048828
      ],
      [
        0.0,
        0.0,
        0.0,
        1.0
      ]
    ],
    "dcmmeta_reorient_transform": [
      [
        0.0,
        -1.0,
        0.0,
        103.0
      ],
      [
        1.0,
        0.0,
        0.0,
        0.0
      ],
      [
        0.0,
        0.0,
        1.0,
        0.0
      ],
      [
        0.0,
        0.0,
        0.0,
        1.0
      ]
    ],
    "dcmmeta_shape": [
      104,
      104,
      60,
      410
    ],
    "dcmmeta_slice_dim": 2,
    "dcmmeta_version": 0.6,
    "global": {
      "const": {
        "AcquisitionMatrix": [
          104,
          0,
          0,
          104
        ],
        "AngioFlag": "N",
        "BitsAllocated": 16,
        "BitsStored": 16,
        "BodyPartExamined": "BRAIN",
        "Columns": 832,
        "EchoNumbers": 1,
        "EchoTime": 37.0,
        "EchoTrainLength": 104,
        "FlipAngle": 52.0,
        "HighBit": 15,
        "ImageOrientationPatient": [
          0.99917272706775,
          0.03692942963978,
          -0.0170316972286,
          -0.0406549411306,
          0.89655378553392,
          -0.4410651713823
        ],
        "ImagePositionPatient": [
          -798.87985906077,
          -806.02060674083,
          304.73827925455
        ],
        "ImageType": [
          "ORIGINAL",
          "PRIMARY",
          "M",
          "MB",
          "ND",
          "MOSAIC"
        ],
        "ImagedNucleus": "1H",
        "ImagingFrequency": 123.259473,
        "InPlanePhaseEncodingDirection": "COL",
        "MRAcquisitionType": "2D",
        "MagneticFieldStrength": 3.0,
        "Manufacturer": "SIEMENS",
        "ManufacturerModelName": "Prisma_fit",
        "Modality": "MR",
        "NumberOfAverages": 1.0,
        "NumberOfPhaseEncodingSteps": 104,
        "PercentPhaseFieldOfView": 100.0,
        "PercentSampling": 100.0,
        "PerformedProcedureStepStartTime": "141020.873000",
        "PhotometricInterpretation": "MONOCHROME2",
        "PixelBandwidth": 2290.0,
        "PixelRepresentation": 0,
        "PixelSpacing": [
          2.0,
          2.0
        ],
        "ProtocolName": "func_task-figures7",
        "RepetitionTime": 1490.0,
        "Rows": 832,
        "SAR": 0.03506924809087,
        "SamplesPerPixel": 1,
        "ScanOptions": "FS",
        "ScanningSequence": "EP",
        "SequenceName": "epfid2d1_104",
        "SequenceVariant": [
          "SK",
          "SS"
        ],
        "SeriesDescription": "func_task-figures7",
        "SeriesNumber": 15,
        "SeriesTime": "143803.524000",
        "SliceLocation": -81.51224276362,
        "SliceThickness": 2.0,
        "SmallestImagePixelValue": 0,
        "SoftwareVersions": "syngo MR E11",
        "SpacingBetweenSlices": 1.9999999540811,
        "SpecificCharacterSet": "ISO_IR 100",
        "StudyID": "1",
        "StudyTime": "141020.796000",
        "TransmitCoilName": "Body",
        "VariableFlipAngleFlag": "N",
        "WindowCenterWidthExplanation": "Algo1",
        "dBdt": 0.0
      },
      "slices": {}
    },
    "modality": "bold",
    "run_id": 2,
    "session_id": "011",
    "subject_id": "02",
    "task_id": "figures07",
    "time": {
      "samples": {
        "AcquisitionNumber": [
          1,
          2,
          3,
          4,
          5,
          6,
          7,
          8,
          9,
          10,
          11,
          12,
          13,
          14,
          15,
          16,
          17,
          18,
          19,
          20,
          21,
          22,
          23,
          24,
          25,
          26,
          27,
          28,
          29,
          30,
          31,
          32,
          33,
          34,
          35,
          36,
          37,
          38,
          39,
          40,
          41,
          42,
          43,
          44,
          45,
          46,
          47,
          48,
          49,
          50,
          51,
          52,
          53,
          54,
          55,
          56,
          57,
          58,
          59,
          60,
          61,
          62,
          63,
          64,
          65,
          66,
          67,
          68,
          69,
          70,
          71,
          72,
          73,
          74,
          75,
          76,
          77,
          78,
          79,
          80,
          81,
          82,
          83,
          84,
          85,
          86,
          87,
          88,
          89,
          90,
          91,
          92,
          93,
          94,
          95,
          96,
          97,
          98,
          99,
          100,
          101,
          102,
          103,
          104,
          105,
          106,
          107,
          108,
          109,
          110,
          111,
          112,
          113,
          114,
          115,
          116,
          117,
          118,
          119,
          120,
          121,
          122,
          123,
          124,
          125,
          126,
          127,
          128,
          129,
          130,
          131,
          132,
          133,
          134,
          135,
          136,
          137,
          138,
          139,
          140,
          141,
          142,
          143,
          144,
          145,
          146,
          147,
          148,
          149,
          150,
          151,
          152,
          153,
          154,
          155,
          156,
          157,
          158,
          159,
          160,
          161,
          162,
          163,
          164,
          165,
          166,
          167,
          168,
          169,
          170,
          171,
          172,
          173,
          174,
          175,
          176,
          177,
          178,
          179,
          180,
          181,
          182,
          183,
          184,
          185,
          186,
          187,
          188,
          189,
          190,
          191,
          192,
          193,
          194,
          195,
          196,
          197,
          198,
          199,
          200,
          201,
          202,
          203,
          204,
          205,
          206,
          207,
          208,
          209,
          210,
          211,
          212,
          213,
          214,
          215,
          216,
          217,
          218,
          219,
          220,
          221,
          222,
          223,
          224,
          225,
          226,
          227,
          228,
          229,
          230,
          231,
          232,
          233,
          234,
          235,
          236,
          237,
          238,
          239,
          240,
          241,
          242,
          243,
          244,
          245,
          246,
          247,
          248,
          249,
          250,
          251,
          252,
          253,
          254,
          255,
          256,
          257,
          258,
          259,
          260,
          261,
          262,
          263,
          264,
          265,
          266,
          267,
          268,
          269,
          270,
          271,
          272,
          273,
          274,
          275,
          276,
          277,
          278,
          279,
          280,
          281,
          282,
          283,
          284,
          285,
          286,
          287,
          288,
          289,
          290,
          291,
          292,
          293,
          294,
          295,
          296,
          297,
          298,
          299,
          300,
          301,
          302,
          303,
          304,
          305,
          306,
          307,
          308,
          309,
          310,
          311,
          312,
          313,
          314,
          315,
          316,
          317,
          318,
          319,
          320,
          321,
          322,
          323,
          324,
          325,
          326,
          327,
          328,
          329,
          330,
          331,
          332,
          333,
          334,
          335,
          336,
          337,
          338,
          339,
          340,
          341,
          342,
          343,
          344,
          345,
          346,
          347,
          348,
          349,
          350,
          351,
          352,
          353,
          354,
          355,
          356,
          357,
          358,
          359,
          360,
          361,
          362,
          363,
          364,
          365,
          366,
          367,
          368,
          369,
          370,
          371,
          372,
          373,
          374,
          375,
          376,
          377,
          378,
          379,
          380,
          381,
          382,
          383,
          384,
          385,
          386,
          387,
          388,
          389,
          390,
          391,
          392,
          393,
          394,
          395,
          396,
          397,
          398,
          399,
          400,
          401,
          402,
          403,
          404,
          405,
          406,
          407,
          408,
          409,
          410
        ],
        "AcquisitionTime": [
          "143640.800000",
          "143642.290000",
          "143643.780000",
          "143645.270000",
          "143646.760000",
          "143648.250000",
          "143649.740000",
          "143651.230000",
          "143652.720000",
          "143654.210000",
          "143655.700000",
          "143657.190000",
          "143658.680000",
          "143700.170000",
          "143701.660000",
          "143703.150000",
          "143704.640000",
          "143706.130000",
          "143707.620000",
          "143709.110000",
          "143710.600000",
          "143712.090000",
          "143713.580000",
          "143715.070000",
          "143716.560000",
          "143718.050000",
          "143719.540000",
          "143721.030000",
          "143722.520000",
          "143724.010000",
          "143725.500000",
          "143726.990000",
          "143728.480000",
          "143729.970000",
          "143731.460000",
          "143732.950000",
          "143734.440000",
          "143735.930000",
          "143737.420000",
          "143738.910000",
          "143740.400000",
          "143741.890000",
          "143743.380000",
          "143744.870000",
          "143746.360000",
          "143747.850000",
          "143749.340000",
          "143750.830000",
          "143752.320000",
          "143753.810000",
          "143755.300000",
          "143756.790000",
          "143758.280000",
          "143759.770000",
          "143801.260000",
          "143802.750000",
          "143804.240000",
          "143805.730000",
          "143807.220000",
          "143808.710000",
          "143810.200000",
          "143811.690000",
          "143813.180000",
          "143814.670000",
          "143816.160000",
          "143817.650000",
          "143819.140000",
          "143820.630000",
          "143822.120000",
          "143823.610000",
          "143825.100000",
          "143826.590000",
          "143828.080000",
          "143829.570000",
          "143831.060000",
          "143832.550000",
          "143834.040000",
          "143835.530000",
          "143837.020000",
          "143838.510000",
          "143840.000000",
          "143841.490000",
          "143842.980000",
          "143844.470000",
          "143845.960000",
          "143847.450000",
          "143848.940000",
          "143850.430000",
          "143851.920000",
          "143853.410000",
          "143854.900000",
          "143856.390000",
          "143857.880000",
          "143859.370000",
          "143900.860000",
          "143902.350000",
          "143903.840000",
          "143905.330000",
          "143906.820000",
          "143908.310000",
          "143909.800000",
          "143911.290000",
          "143912.780000",
          "143914.270000",
          "143915.760000",
          "143917.250000",
          "143918.740000",
          "143920.230000",
          "143921.720000",
          "143923.210000",
          "143924.700000",
          "143926.190000",
          "143927.680000",
          "143929.170000",
          "143930.660000",
          "143932.150000",
          "143933.640000",
          "143935.130000",
          "143936.620000",
          "143938.110000",
          "143939.600000",
          "143941.090000",
          "143942.580000",
          "143944.070000",
          "143945.560000",
          "143947.050000",
          "143948.540000",
          "143950.030000",
          "143951.520000",
          "143953.010000",
          "143954.500000",
          "143955.990000",
          "143957.480000",
          "143958.970000",
          "144000.460000",
          "144001.950000",
          "144003.440000",
          "144004.930000",
          "144006.420000",
          "144007.910000",
          "144009.400000",
          "144010.890000",
          "144012.380000",
          "144013.870000",
          "144015.360000",
          "144016.850000",
          "144018.340000",
          "144019.830000",
          "144021.320000",
          "144022.810000",
          "144024.300000",
          "144025.790000",
          "144027.280000",
          "144028.770000",
          "144030.260000",
          "144031.750000",
          "144033.240000",
          "144034.730000",
          "144036.220000",
          "144037.710000",
          "144039.200000",
          "144040.690000",
          "144042.180000",
          "144043.670000",
          "144045.160000",
          "144046.650000",
          "144048.140000",
          "144049.630000",
          "144051.120000",
          "144052.610000",
          "144054.100000",
          "144055.590000",
          "144057.080000",
          "144058.570000",
          "144100.060000",
          "144101.550000",
          "144103.040000",
          "144104.530000",
          "144106.020000",
          "144107.510000",
          "144109.000000",
          "144110.490000",
          "144111.980000",
          "144113.470000",
          "144114.960000",
          "144116.450000",
          "144117.940000",
          "144119.430000",
          "144120.920000",
          "144122.410000",
          "144123.900000",
          "144125.390000",
          "144126.880000",
          "144128.370000",
          "144129.860000",
          "144131.350000",
          "144132.840000",
          "144134.330000",
          "144135.820000",
          "144137.310000",
          "144138.800000",
          "144140.290000",
          "144141.780000",
          "144143.270000",
          "144144.760000",
          "144146.250000",
          "144147.740000",
          "144149.230000",
          "144150.720000",
          "144152.210000",
          "144153.700000",
          "144155.190000",
          "144156.680000",
          "144158.170000",
          "144159.660000",
          "144201.150000",
          "144202.640000",
          "144204.130000",
          "144205.620000",
          "144207.110000",
          "144208.600000",
          "144210.090000",
          "144211.580000",
          "144213.070000",
          "144214.560000",
          "144216.050000",
          "144217.540000",
          "144219.030000",
          "144220.520000",
          "144222.010000",
          "144223.500000",
          "144224.990000",
          "144226.480000",
          "144227.970000",
          "144229.460000",
          "144230.950000",
          "144232.440000",
          "144233.930000",
          "144235.420000",
          "144236.910000",
          "144238.400000",
          "144239.890000",
          "144241.380000",
          "144242.870000",
          "144244.360000",
          "144245.850000",
          "144247.340000",
          "144248.830000",
          "144250.320000",
          "144251.810000",
          "144253.300000",
          "144254.790000",
          "144256.280000",
          "144257.770000",
          "144259.260000",
          "144300.750000",
          "144302.240000",
          "144303.730000",
          "144305.220000",
          "144306.710000",
          "144308.200000",
          "144309.690000",
          "144311.180000",
          "144312.670000",
          "144314.160000",
          "144315.650000",
          "144317.140000",
          "144318.630000",
          "144320.120000",
          "144321.610000",
          "144323.100000",
          "144324.590000",
          "144326.080000",
          "144327.570000",
          "144329.060000",
          "144330.550000",
          "144332.040000",
          "144333.530000",
          "144335.020000",
          "144336.510000",
          "144338.000000",
          "144339.490000",
          "144340.980000",
          "144342.470000",
          "144343.960000",
          "144345.450000",
          "144346.940000",
          "144348.430000",
          "144349.920000",
          "144351.410000",
          "144352.900000",
          "144354.390000",
          "144355.880000",
          "144357.370000",
          "144358.860000",
          "144400.350000",
          "144401.840000",
          "144403.330000",
          "144404.820000",
          "144406.310000",
          "144407.800000",
          "144409.290000",
          "144410.780000",
          "144412.270000",
          "144413.760000",
          "144415.250000",
          "144416.740000",
          "144418.230000",
          "144419.720000",
          "144421.210000",
          "144422.700000",
          "144424.190000",
          "144425.680000",
          "144427.170000",
          "144428.660000",
          "144430.150000",
          "144431.640000",
          "144433.130000",
          "144434.620000",
          "144436.110000",
          "144437.600000",
          "144439.090000",
          "144440.580000",
          "144442.070000",
          "144443.560000",
          "144445.050000",
          "144446.540000",
          "144448.030000",
          "144449.520000",
          "144451.010000",
          "144452.500000",
          "144453.990000",
          "144455.480000",
          "144456.970000",
          "144458.460000",
          "144459.950000",
          "144501.440000",
          "144502.930000",
          "144504.420000",
          "144505.910000",
          "144507.400000",
          "144508.890000",
          "144510.380000",
          "144511.870000",
          "144513.360000",
          "144514.850000",
          "144516.340000",
          "144517.830000",
          "144519.320000",
          "144520.810000",
          "144522.300000",
          "144523.790000",
          "144525.280000",
          "144526.770000",
          "144528.260000",
          "144529.750000",
          "144531.240000",
          "144532.730000",
          "144534.220000",
          "144535.710000",
          "144537.200000",
          "144538.690000",
          "144540.180000",
          "144541.670000",
          "144543.160000",
          "144544.650000",
          "144546.140000",
          "144547.630000",
          "144549.120000",
          "144550.610000",
          "144552.100000",
          "144553.590000",
          "144555.080000",
          "144556.570000",
          "144558.060000",
          "144559.550000",
          "144601.040000",
          "144602.530000",
          "144604.020000",
          "144605.510000",
          "144607.000000",
          "144608.490000",
          "144609.980000",
          "144611.470000",
          "144612.960000",
          "144614.450000",
          "144615.940000",
          "144617.430000",
          "144618.920000",
          "144620.410000",
          "144621.900000",
          "144623.390000",
          "144624.880000",
          "144626.370000",
          "144627.860000",
          "144629.350000",
          "144630.840000",
          "144632.330000",
          "144633.820000",
          "144635.310000",
          "144636.800000",
          "144638.290000",
          "144639.780000",
          "144641.270000",
          "144642.760000",
          "144644.250000",
          "144645.740000",
          "144647.230000",
          "144648.720000",
          "144650.210000"
        ],
        "ContentTime": [
          "143803.526000",
          "143803.530000",
          "143803.533000",
          "143803.536000",
          "143803.539000",
          "143803.546000",
          "143803.549000",
          "143803.551000",
          "143803.554000",
          "143803.557000",
          "143803.560000",
          "143803.563000",
          "143803.566000",
          "143803.569000",
          "143803.572000",
          "143803.575000",
          "143803.578000",
          "143803.580000",
          "143803.583000",
          "143803.586000",
          "143803.589000",
          "143803.592000",
          "143803.595000",
          "143803.598000",
          "143803.600000",
          "143803.603000",
          "143803.606000",
          "143803.609000",
          "143803.612000",
          "143823.491000",
          "143823.494000",
          "143823.497000",
          "143823.499000",
          "143823.502000",
          "143823.505000",
          "143823.508000",
          "143823.511000",
          "143823.514000",
          "143823.517000",
          "143823.520000",
          "143823.522000",
          "143823.525000",
          "143823.528000",
          "143823.531000",
          "143823.534000",
          "143823.537000",
          "143823.540000",
          "143823.542000",
          "143823.545000",
          "143843.491000",
          "143843.494000",
          "143843.497000",
          "143843.500000",
          "143843.503000",
          "143843.505000",
          "143843.508000",
          "143843.511000",
          "143843.514000",
          "143843.517000",
          "143843.520000",
          "143843.537000",
          "143843.539000",
          "143843.542000",
          "143843.545000",
          "143843.548000",
          "143843.551000",
          "143843.554000",
          "143843.557000",
          "143843.560000",
          "143843.563000",
          "143903.491000",
          "143903.494000",
          "143903.497000",
          "143903.500000",
          "143903.502000",
          "143903.505000",
          "143903.508000",
          "143903.525000",
          "143903.528000",
          "143903.530000",
          "143903.533000",
          "143903.536000",
          "143903.539000",
          "143903.542000",
          "143903.545000",
          "143903.548000",
          "143903.550000",
          "143903.553000",
          "143903.556000",
          "143903.559000",
          "143943.490000",
          "143943.493000",
          "143943.496000",
          "143943.499000",
          "143943.502000",
          "143943.505000",
          "143943.508000",
          "143943.511000",
          "143943.513000",
          "143943.516000",
          "143943.519000",
          "143943.522000",
          "143943.525000",
          "143943.528000",
          "143943.531000",
          "143943.533000",
          "143943.536000",
          "143943.539000",
          "143943.542000",
          "143943.545000",
          "143943.548000",
          "143943.551000",
          "143943.553000",
          "143943.556000",
          "143943.559000",
          "143943.562000",
          "143943.565000",
          "143943.568000",
          "143943.571000",
          "143943.574000",
          "143943.577000",
          "144023.491000",
          "144023.494000",
          "144023.497000",
          "144023.500000",
          "144023.502000",
          "144023.505000",
          "144023.508000",
          "144023.511000",
          "144023.514000",
          "144023.517000",
          "144023.520000",
          "144023.523000",
          "144023.526000",
          "144023.528000",
          "144023.531000",
          "144023.534000",
          "144023.537000",
          "144023.540000",
          "144023.543000",
          "144023.546000",
          "144023.548000",
          "144023.551000",
          "144023.554000",
          "144023.557000",
          "144023.560000",
          "144023.563000",
          "144023.566000",
          "144103.491000",
          "144103.494000",
          "144103.497000",
          "144103.500000",
          "144103.503000",
          "144103.506000",
          "144103.508000",
          "144103.511000",
          "144103.514000",
          "144103.517000",
          "144103.520000",
          "144103.523000",
          "144103.526000",
          "144103.529000",
          "144103.532000",
          "144103.534000",
          "144103.537000",
          "144103.540000",
          "144103.543000",
          "144103.558000",
          "144103.561000",
          "144103.564000",
          "144103.567000",
          "144103.570000",
          "144103.572000",
          "144103.576000",
          "144103.578000",
          "144143.491000",
          "144143.494000",
          "144143.497000",
          "144143.500000",
          "144143.503000",
          "144143.506000",
          "144143.508000",
          "144143.511000",
          "144143.514000",
          "144143.517000",
          "144143.520000",
          "144143.523000",
          "144143.526000",
          "144143.529000",
          "144143.532000",
          "144143.534000",
          "144143.537000",
          "144143.540000",
          "144143.543000",
          "144143.546000",
          "144143.549000",
          "144143.552000",
          "144143.555000",
          "144143.558000",
          "144143.561000",
          "144143.564000",
          "144143.566000",
          "144223.491000",
          "144223.494000",
          "144223.503000",
          "144223.506000",
          "144223.509000",
          "144223.512000",
          "144223.515000",
          "144223.518000",
          "144223.521000",
          "144223.524000",
          "144223.526000",
          "144223.529000",
          "144223.532000",
          "144223.535000",
          "144223.538000",
