{
  "aor": 0.000694596577017115,
  "aqi": 0.008402486797066016,
  "bids_meta": {
    "AcquisitionMatrixPE": 104,
    "AcquisitionNumber": 1,
    "AcquisitionTime": "14:24:9.320000",
    "BandwidthPerPixelPhaseEncode": 17.17,
    "BaseResolution": 104,
    "BodyPartExamined": "BRAIN",
    "CogAtlasID": "trm_4c898da401420",
    "ConsistencyInfo": "N4_VE11C_LATEST_20160120",
    "ConversionSoftware": "dcm2niix",
    "ConversionSoftwareVersion": "v1.0.20171215 (OpenJPEG build) GCC7.3.0",
    "DerivedVendorReportedEchoSpacing": 0.000560011,
    "DeviceSerialNumber": "167006",
    "DwellTime": 2.1e-06,
    "EchoTime": 0.037,
    "EchoTrainLength": 104,
    "EffectiveEchoSpacing": 0.000560011,
    "FlipAngle": 52,
    "ImageComments": "Unaliased_MB4_PE3_LB",
    "ImageOrientationPatientDICOM": [
      0.999173,
      0.0369294,
      -0.0170317,
      -0.0406549,
      0.896554,
      -0.441065
    ],
    "ImageType": [
      "ORIGINAL",
      "PRIMARY",
      "M",
      "MB",
      "ND",
      "MOSAIC"
    ],
    "InPlanePhaseEncodingDirectionDICOM": "COL",
    "InstitutionAddress": "Chemin_Queen-Mary_4565_Montreal_District_CA_H3W_1W5",
    "InstitutionName": "IUGM",
    "InstitutionalDepartmentName": "Department",
    "MRAcquisitionType": "2D",
    "MagneticFieldStrength": 3,
    "Manufacturer": "Siemens",
    "ManufacturersModelName": "Prisma_fit",
    "Modality": "MR",
    "MultibandAccelerationFactor": 4,
    "PartialFourier": 1,
    "PatientPosition": "HFS",
    "PercentPhaseFOV": 100,
    "PhaseEncodingDirection": "j-",
    "PhaseEncodingSteps": 104,
    "PhaseResolution": 1,
    "PixelBandwidth": 2290,
    "ProcedureStepDescription": "video5_generic",
    "ProtocolName": "func_task-figures6",
    "PulseSequenceDetails": "%CustomerSeq%_cmrr_mbep2d_bold",
    "ReceiveCoilActiveElements": "HC1-7;NC1,2",
    "ReceiveCoilName": "HeadNeck_64",
    "ReconMatrixPE": 104,
    "RepetitionTime": 1.49,
    "SAR": 0.0350692,
    "ScanOptions": "FS",
    "ScanningSequence": "EP",
    "SequenceName": "epfid2d1_104",
    "SequenceVariant": "SK_SS",
    "SeriesDescription": "func_task-figures6",
    "SeriesNumber": 11,
    "ShimSetting": [
      619,
      -7178,
      -8917,
      410,
      3,
      -213,
      -34,
      -2
    ],
    "SliceThickness": 2,
    "SliceTiming": [
      0,
      0.785,
      0.1,
      0.8825,
      0.1975,
      0.98,
      0.295,
      1.08,
      0.3925,
      1.1775,
      0.49,
      1.275,
      0.59,
      1.3725,
      0.6875,
      0,
      0.785,
      0.1,
      0.8825,
      0.1975,
      0.98,
      0.295,
      1.08,
      0.3925,
      1.1775,
      0.49,
      1.275,
      0.59,
      1.3725,
      0.6875,
      0,
      0.785,
      0.1,
      0.8825,
      0.1975,
      0.98,
      0.295,
      1.08,
      0.3925,
      1.1775,
      0.49,
      1.275,
      0.59,
      1.3725,
      0.6875,
      0,
      0.785,
      0.1,
      0.8825,
      0.1975,
      0.98,
      0.295,
      1.08,
      0.3925,
      1.1775,
      0.49,
      1.275,
      0.59,
      1.3725,
      0.6875
    ],
    "SoftwareVersions": "syngo_MR_E11",
    "SpacingBetweenSlices": 2,
    "StationName": "MRC35049",
    "TaskName": "figures06",
    "TotalReadoutTime": 0.0576811,
    "TxRefAmp": 252.586,
    "dataset": "<unset>",
    "dcmmeta_affine": [
      [
        -1.9983454942703247,
        -0.08130988478660583,
        0.002036905148997903,
        109.45382690429688
      ],
      [
        -0.07385885715484619,
        1.7931076288223267,
        -0.8827853798866272,
        -58.24525451660156
      ],
      [
        -0.034063395112752914,
        0.8821303248405457,
        1.7946268320083618,
        -119.61566925048828
      ],
      [
        0.0,
        0.0,
        0.0,
        1.0
      ]
    ],
    "dcmmeta_reorient_transform": [
      [
        0.0,
        -1.0,
        0.0,
        103.0
      ],
      [
        1.0,
        0.0,
        0.0,
        0.0
      ],
      [
        0.0,
        0.0,
        1.0,
        0.0
      ],
      [
        0.0,
        0.0,
        0.0,
        1.0
      ]
    ],
    "dcmmeta_shape": [
      104,
      104,
      60,
      410
    ],
    "dcmmeta_slice_dim": 2,
    "dcmmeta_version": 0.6,
    "global": {
      "const": {
        "AcquisitionMatrix": [
          104,
          0,
          0,
          104
        ],
        "AngioFlag": "N",
        "BitsAllocated": 16,
        "BitsStored": 16,
        "BodyPartExamined": "BRAIN",
        "Columns": 832,
        "EchoNumbers": 1,
        "EchoTime": 37.0,
        "EchoTrainLength": 104,
        "FlipAngle": 52.0,
        "HighBit": 15,
        "ImageOrientationPatient": [
          0.99917272706775,
          0.03692942963978,
          -0.0170316972286,
          -0.0406549411306,
          0.89655378553392,
          -0.4410651713823
        ],
        "ImagePositionPatient": [
          -798.87985906077,
          -806.02060674083,
          304.73827925455
        ],
        "ImageType": [
          "ORIGINAL",
          "PRIMARY",
          "M",
          "MB",
          "ND",
          "MOSAIC"
        ],
        "ImagedNucleus": "1H",
        "ImagingFrequency": 123.259468,
        "InPlanePhaseEncodingDirection": "COL",
        "MRAcquisitionType": "2D",
        "MagneticFieldStrength": 3.0,
        "Manufacturer": "SIEMENS",
        "ManufacturerModelName": "Prisma_fit",
        "Modality": "MR",
        "NumberOfAverages": 1.0,
        "NumberOfPhaseEncodingSteps": 104,
        "PercentPhaseFieldOfView": 100.0,
        "PercentSampling": 100.0,
        "PerformedProcedureStepStartTime": "141020.873000",
        "PhotometricInterpretation": "MONOCHROME2",
        "PixelBandwidth": 2290.0,
        "PixelRepresentation": 0,
        "PixelSpacing": [
          2.0,
          2.0
        ],
        "ProtocolName": "func_task-figures6",
        "RepetitionTime": 1490.0,
        "Rows": 832,
        "SAR": 0.03506924809087,
        "SamplesPerPixel": 1,
        "ScanOptions": "FS",
        "ScanningSequence": "EP",
        "SequenceName": "epfid2d1_104",
        "SequenceVariant": [
          "SK",
          "SS"
        ],
        "SeriesDescription": "func_task-figures6",
        "SeriesNumber": 11,
        "SeriesTime": "142538.499000",
        "SliceLocation": -81.51224276362,
        "SliceThickness": 2.0,
        "SmallestImagePixelValue": 0,
        "SoftwareVersions": "syngo MR E11",
        "SpacingBetweenSlices": 1.9999999540811,
        "SpecificCharacterSet": "ISO_IR 100",
        "StudyID": "1",
        "StudyTime": "141020.796000",
        "TransmitCoilName": "Body",
        "VariableFlipAngleFlag": "N",
        "WindowCenterWidthExplanation": "Algo1",
        "dBdt": 0.0
      },
      "slices": {}
    },
    "modality": "bold",
    "run_id": 2,
    "session_id": "011",
    "subject_id": "02",
    "task_id": "figures06",
    "time": {
      "samples": {
        "AcquisitionNumber": [
          1,
          2,
          3,
          4,
          5,
          6,
          7,
          8,
          9,
          10,
          11,
          12,
          13,
          14,
          15,
          16,
          17,
          18,
          19,
          20,
          21,
          22,
          23,
          24,
          25,
          26,
          27,
          28,
          29,
          30,
          31,
          32,
          33,
          34,
          35,
          36,
          37,
          38,
          39,
          40,
          41,
          42,
          43,
          44,
          45,
          46,
          47,
          48,
          49,
          50,
          51,
          52,
          53,
          54,
          55,
          56,
          57,
          58,
          59,
          60,
          61,
          62,
          63,
          64,
          65,
          66,
          67,
          68,
          69,
          70,
          71,
          72,
          73,
          74,
          75,
          76,
          77,
          78,
          79,
          80,
          81,
          82,
          83,
          84,
          85,
          86,
          87,
          88,
          89,
          90,
          91,
          92,
          93,
          94,
          95,
          96,
          97,
          98,
          99,
          100,
          101,
          102,
          103,
          104,
          105,
          106,
          107,
          108,
          109,
          110,
          111,
          112,
          113,
          114,
          115,
          116,
          117,
          118,
          119,
          120,
          121,
          122,
          123,
          124,
          125,
          126,
          127,
          128,
          129,
          130,
          131,
          132,
          133,
          134,
          135,
          136,
          137,
          138,
          139,
          140,
          141,
          142,
          143,
          144,
          145,
          146,
          147,
          148,
          149,
          150,
          151,
          152,
          153,
          154,
          155,
          156,
          157,
          158,
          159,
          160,
          161,
          162,
          163,
          164,
          165,
          166,
          167,
          168,
          169,
          170,
          171,
          172,
          173,
          174,
          175,
          176,
          177,
          178,
          179,
          180,
          181,
          182,
          183,
          184,
          185,
          186,
          187,
          188,
          189,
          190,
          191,
          192,
          193,
          194,
          195,
          196,
          197,
          198,
          199,
          200,
          201,
          202,
          203,
          204,
          205,
          206,
          207,
          208,
          209,
          210,
          211,
          212,
          213,
          214,
          215,
          216,
          217,
          218,
          219,
          220,
          221,
          222,
          223,
          224,
          225,
          226,
          227,
          228,
          229,
          230,
          231,
          232,
          233,
          234,
          235,
          236,
          237,
          238,
          239,
          240,
          241,
          242,
          243,
          244,
          245,
          246,
          247,
          248,
          249,
          250,
          251,
          252,
          253,
          254,
          255,
          256,
          257,
          258,
          259,
          260,
          261,
          262,
          263,
          264,
          265,
          266,
          267,
          268,
          269,
          270,
          271,
          272,
          273,
          274,
          275,
          276,
          277,
          278,
          279,
          280,
          281,
          282,
          283,
          284,
          285,
          286,
          287,
          288,
          289,
          290,
          291,
          292,
          293,
          294,
          295,
          296,
          297,
          298,
          299,
          300,
          301,
          302,
          303,
          304,
          305,
          306,
          307,
          308,
          309,
          310,
          311,
          312,
          313,
          314,
          315,
          316,
          317,
          318,
          319,
          320,
          321,
          322,
          323,
          324,
          325,
          326,
          327,
          328,
          329,
          330,
          331,
          332,
          333,
          334,
          335,
          336,
          337,
          338,
          339,
          340,
          341,
          342,
          343,
          344,
          345,
          346,
          347,
          348,
          349,
          350,
          351,
          352,
          353,
          354,
          355,
          356,
          357,
          358,
          359,
          360,
          361,
          362,
          363,
          364,
          365,
          366,
          367,
          368,
          369,
          370,
          371,
          372,
          373,
          374,
          375,
          376,
          377,
          378,
          379,
          380,
          381,
          382,
          383,
          384,
          385,
          386,
          387,
          388,
          389,
          390,
          391,
          392,
          393,
          394,
          395,
          396,
          397,
          398,
          399,
          400,
          401,
          402,
          403,
          404,
          405,
          406,
          407,
          408,
          409,
          410
        ],
        "AcquisitionTime": [
          "142409.320000",
          "142410.810000",
          "142412.300000",
          "142413.790000",
          "142415.280000",
          "142416.770000",
          "142418.260000",
          "142419.750000",
          "142421.240000",
          "142422.730000",
          "142424.220000",
          "142425.710000",
          "142427.200000",
          "142428.690000",
          "142430.180000",
          "142431.670000",
          "142433.160000",
          "142434.650000",
          "142436.140000",
          "142437.630000",
          "142439.120000",
          "142440.610000",
          "142442.100000",
          "142443.590000",
          "142445.080000",
          "142446.570000",
          "142448.060000",
          "142449.550000",
          "142451.040000",
          "142452.530000",
          "142454.020000",
          "142455.510000",
          "142457.000000",
          "142458.490000",
          "142459.980000",
          "142501.470000",
          "142502.960000",
          "142504.450000",
          "142505.940000",
          "142507.430000",
          "142508.920000",
          "142510.410000",
          "142511.900000",
          "142513.390000",
          "142514.880000",
          "142516.370000",
          "142517.860000",
          "142519.350000",
          "142520.840000",
          "142522.330000",
          "142523.820000",
          "142525.310000",
          "142526.800000",
          "142528.290000",
          "142529.780000",
          "142531.270000",
          "142532.760000",
          "142534.250000",
          "142535.740000",
          "142537.230000",
          "142538.720000",
          "142540.210000",
          "142541.700000",
          "142543.190000",
          "142544.680000",
          "142546.170000",
          "142547.660000",
          "142549.150000",
          "142550.640000",
          "142552.130000",
          "142553.620000",
          "142555.110000",
          "142556.600000",
          "142558.090000",
          "142559.580000",
          "142601.070000",
          "142602.560000",
          "142604.050000",
          "142605.540000",
          "142607.030000",
          "142608.520000",
          "142610.010000",
          "142611.500000",
          "142612.990000",
          "142614.480000",
          "142615.970000",
          "142617.460000",
          "142618.950000",
          "142620.440000",
          "142621.930000",
          "142623.420000",
          "142624.910000",
          "142626.400000",
          "142627.890000",
          "142629.380000",
          "142630.870000",
          "142632.360000",
          "142633.850000",
          "142635.340000",
          "142636.830000",
          "142638.320000",
          "142639.810000",
          "142641.300000",
          "142642.790000",
          "142644.280000",
          "142645.770000",
          "142647.260000",
          "142648.750000",
          "142650.240000",
          "142651.730000",
          "142653.220000",
          "142654.710000",
          "142656.200000",
          "142657.690000",
          "142659.180000",
          "142700.670000",
          "142702.160000",
          "142703.650000",
          "142705.140000",
          "142706.630000",
          "142708.120000",
          "142709.610000",
          "142711.100000",
          "142712.590000",
          "142714.080000",
          "142715.570000",
          "142717.060000",
          "142718.550000",
          "142720.040000",
          "142721.530000",
          "142723.020000",
          "142724.510000",
          "142726.000000",
          "142727.490000",
          "142728.980000",
          "142730.470000",
          "142731.960000",
          "142733.450000",
          "142734.940000",
          "142736.430000",
          "142737.920000",
          "142739.410000",
          "142740.900000",
          "142742.390000",
          "142743.880000",
          "142745.370000",
          "142746.860000",
          "142748.350000",
          "142749.840000",
          "142751.330000",
          "142752.820000",
          "142754.310000",
          "142755.800000",
          "142757.290000",
          "142758.780000",
          "142800.270000",
          "142801.760000",
          "142803.250000",
          "142804.740000",
          "142806.230000",
          "142807.720000",
          "142809.210000",
          "142810.700000",
          "142812.190000",
          "142813.680000",
          "142815.170000",
          "142816.660000",
          "142818.150000",
          "142819.640000",
          "142821.130000",
          "142822.620000",
          "142824.110000",
          "142825.600000",
          "142827.090000",
          "142828.580000",
          "142830.070000",
          "142831.560000",
          "142833.050000",
          "142834.540000",
          "142836.030000",
          "142837.520000",
          "142839.010000",
          "142840.500000",
          "142841.990000",
          "142843.480000",
          "142844.970000",
          "142846.460000",
          "142847.950000",
          "142849.440000",
          "142850.930000",
          "142852.420000",
          "142853.910000",
          "142855.400000",
          "142856.890000",
          "142858.380000",
          "142859.870000",
          "142901.360000",
          "142902.850000",
          "142904.340000",
          "142905.830000",
          "142907.320000",
          "142908.810000",
          "142910.300000",
          "142911.790000",
          "142913.280000",
          "142914.770000",
          "142916.260000",
          "142917.750000",
          "142919.240000",
          "142920.730000",
          "142922.220000",
          "142923.710000",
          "142925.200000",
          "142926.690000",
          "142928.180000",
          "142929.670000",
          "142931.160000",
          "142932.650000",
          "142934.140000",
          "142935.630000",
          "142937.120000",
          "142938.610000",
          "142940.100000",
          "142941.590000",
          "142943.080000",
          "142944.570000",
          "142946.060000",
          "142947.550000",
          "142949.040000",
          "142950.530000",
          "142952.020000",
          "142953.510000",
          "142955.000000",
          "142956.490000",
          "142957.980000",
          "142959.470000",
          "143000.960000",
          "143002.450000",
          "143003.940000",
          "143005.430000",
          "143006.920000",
          "143008.410000",
          "143009.900000",
          "143011.390000",
          "143012.880000",
          "143014.370000",
          "143015.860000",
          "143017.350000",
          "143018.840000",
          "143020.330000",
          "143021.820000",
          "143023.310000",
          "143024.800000",
          "143026.290000",
          "143027.780000",
          "143029.270000",
          "143030.760000",
          "143032.250000",
          "143033.740000",
          "143035.230000",
          "143036.720000",
          "143038.210000",
          "143039.700000",
          "143041.190000",
          "143042.680000",
          "143044.170000",
          "143045.660000",
          "143047.150000",
          "143048.640000",
          "143050.130000",
          "143051.620000",
          "143053.110000",
          "143054.600000",
          "143056.090000",
          "143057.580000",
          "143059.070000",
          "143100.560000",
          "143102.050000",
          "143103.540000",
          "143105.030000",
          "143106.520000",
          "143108.010000",
          "143109.500000",
          "143110.990000",
          "143112.480000",
          "143113.970000",
          "143115.460000",
          "143116.950000",
          "143118.440000",
          "143119.930000",
          "143121.420000",
          "143122.910000",
          "143124.400000",
          "143125.890000",
          "143127.380000",
          "143128.870000",
          "143130.360000",
          "143131.850000",
          "143133.340000",
          "143134.830000",
          "143136.320000",
          "143137.810000",
          "143139.300000",
          "143140.790000",
          "143142.280000",
          "143143.770000",
          "143145.260000",
          "143146.750000",
          "143148.240000",
          "143149.730000",
          "143151.220000",
          "143152.710000",
          "143154.200000",
          "143155.690000",
          "143157.180000",
          "143158.670000",
          "143200.160000",
          "143201.650000",
          "143203.140000",
          "143204.630000",
          "143206.120000",
          "143207.610000",
          "143209.100000",
          "143210.590000",
          "143212.080000",
          "143213.570000",
          "143215.060000",
          "143216.550000",
          "143218.040000",
          "143219.530000",
          "143221.020000",
          "143222.510000",
          "143224.000000",
          "143225.490000",
          "143226.980000",
          "143228.470000",
          "143229.960000",
          "143231.450000",
          "143232.940000",
          "143234.430000",
          "143235.920000",
          "143237.410000",
          "143238.900000",
          "143240.390000",
          "143241.880000",
          "143243.370000",
          "143244.860000",
          "143246.350000",
          "143247.840000",
          "143249.330000",
          "143250.820000",
          "143252.310000",
          "143253.800000",
          "143255.290000",
          "143256.780000",
          "143258.270000",
          "143259.760000",
          "143301.250000",
          "143302.740000",
          "143304.230000",
          "143305.720000",
          "143307.210000",
          "143308.700000",
          "143310.190000",
          "143311.680000",
          "143313.170000",
          "143314.660000",
          "143316.150000",
          "143317.640000",
          "143319.130000",
          "143320.620000",
          "143322.110000",
          "143323.600000",
          "143325.090000",
          "143326.580000",
          "143328.070000",
          "143329.560000",
          "143331.050000",
          "143332.540000",
          "143334.030000",
          "143335.520000",
          "143337.010000",
          "143338.500000",
          "143339.990000",
          "143341.480000",
          "143342.970000",
          "143344.460000",
          "143345.950000",
          "143347.440000",
          "143348.930000",
          "143350.420000",
          "143351.910000",
          "143353.400000",
          "143354.890000",
          "143356.380000",
          "143357.870000",
          "143359.360000",
          "143400.850000",
          "143402.340000",
          "143403.830000",
          "143405.320000",
          "143406.810000",
          "143408.300000",
          "143409.790000",
          "143411.280000",
          "143412.770000",
          "143414.260000",
          "143415.750000",
          "143417.240000",
          "143418.730000"
        ],
        "ContentTime": [
          "142538.501000",
          "142538.505000",
          "142538.511000",
          "142538.514000",
          "142538.517000",
          "142538.520000",
          "142538.523000",
          "142538.526000",
          "142538.528000",
          "142538.532000",
          "142538.535000",
          "142538.541000",
          "142538.543000",
          "142538.546000",
          "142538.549000",
          "142538.552000",
          "142538.555000",
          "142538.558000",
          "142538.561000",
          "142538.564000",
          "142538.567000",
          "142538.569000",
          "142538.572000",
          "142538.575000",
          "142538.578000",
          "142538.582000",
          "142538.585000",
          "142538.588000",
          "142538.591000",
          "142538.593000",
          "142538.596000",
          "142538.599000",
          "142538.602000",
          "142558.467000",
          "142558.470000",
          "142558.473000",
          "142558.475000",
          "142558.478000",
          "142558.481000",
          "142558.484000",
          "142558.487000",
          "142558.490000",
          "142558.493000",
          "142558.496000",
          "142558.498000",
          "142558.501000",
          "142558.504000",
          "142558.507000",
          "142558.510000",
          "142558.513000",
          "142558.516000",
          "142558.519000",
          "142558.521000",
          "142618.467000",
          "142618.470000",
          "142618.473000",
          "142618.476000",
          "142618.479000",
          "142618.481000",
          "142618.484000",
          "142618.487000",
          "142618.490000",
          "142618.493000",
          "142618.496000",
          "142618.499000",
          "142618.502000",
          "142618.505000",
          "142618.507000",
          "142618.510000",
          "142618.513000",
          "142618.516000",
          "142618.519000",
          "142618.522000",
          "142638.467000",
          "142638.470000",
          "142638.473000",
          "142638.476000",
          "142638.478000",
          "142638.481000",
          "142638.484000",
          "142638.487000",
          "142638.490000",
          "142638.493000",
          "142638.496000",
          "142638.499000",
          "142638.501000",
          "142638.504000",
          "142638.507000",
          "142638.510000",
          "142638.513000",
          "142638.516000",
          "142638.519000",
          "142638.522000",
          "142638.525000",
          "142718.467000",
          "142718.470000",
          "142718.473000",
          "142718.476000",
          "142718.479000",
          "142718.482000",
          "142718.484000",
          "142718.487000",
          "142718.490000",
          "142718.493000",
          "142718.496000",
          "142718.499000",
          "142718.502000",
          "142718.505000",
          "142718.508000",
          "142718.510000",
          "142718.513000",
          "142718.516000",
          "142718.519000",
          "142718.522000",
          "142718.525000",
          "142718.528000",
          "142718.531000",
          "142718.534000",
          "142718.536000",
          "142718.540000",
          "142718.542000",
          "142718.545000",
          "142718.548000",
          "142718.551000",
          "142718.554000",
          "142718.557000",
          "142758.467000",
          "142758.470000",
          "142758.473000",
          "142758.476000",
          "142758.479000",
          "142758.482000",
          "142758.484000",
          "142758.487000",
          "142758.490000",
          "142758.493000",
          "142758.496000",
          "142758.499000",
          "142758.502000",
          "142758.505000",
          "142758.508000",
          "142758.511000",
          "142758.522000",
          "142758.525000",
          "142758.528000",
          "142758.530000",
          "142758.533000",
          "142758.536000",
          "142758.539000",
          "142758.542000",
          "142758.545000",
          "142758.548000",
          "142758.550000",
          "142838.467000",
          "142838.470000",
          "142838.473000",
          "142838.476000",
          "142838.479000",
          "142838.482000",
          "142838.485000",
          "142838.488000",
          "142838.490000",
          "142838.493000",
          "142838.496000",
          "142838.499000",
          "142838.502000",
          "142838.505000",
          "142838.508000",
          "142838.511000",
          "142838.513000",
          "142838.516000",
          "142838.519000",
          "142838.522000",
          "142838.525000",
          "142838.528000",
          "142838.531000",
          "142838.534000",
          "142838.537000",
          "142838.539000",
          "142838.542000",
          "142918.467000",
          "142918.470000",
          "142918.473000",
          "142918.476000",
          "142918.479000",
          "142918.482000",
          "142918.485000",
          "142918.489000",
          "142918.491000",
          "142918.494000",
          "142918.497000",
          "142918.500000",
          "142918.504000",
          "142918.508000",
          "142918.512000",
          "142918.516000",
          "142918.519000",
          "142918.522000",
          "142918.525000",
          "142918.527000",
          "142918.530000",
          "142918.533000",
          "142918.536000",
          "142918.539000",
          "142918.542000",
          "142918.545000",
          "142938.467000",
          "142938.470000",
          "142938.473000",
          "142938.476000",
          "142938.479000",
          "142938.482000",
          "142938.484000",
          "142938.487000",
          "142938.490000",
          "142938.493000",
          "142938.496000",
