{
  "aor": 0.001633970588235294,
  "aqi": 0.00806691281862745,
  "bids_meta": {
    "AcquisitionMatrixPE": 104,
    "AcquisitionNumber": 1,
    "AcquisitionTime": "14:57:51.135000",
    "BandwidthPerPixelPhaseEncode": 17.17,
    "BaseResolution": 104,
    "BodyPartExamined": "BRAIN",
    "CogAtlasID": "trm_4c898da401420",
    "ConsistencyInfo": "N4_VE11C_LATEST_20160120",
    "ConversionSoftware": "dcm2niix",
    "ConversionSoftwareVersion": "v1.0.20171215 (OpenJPEG build) GCC7.3.0",
    "DerivedVendorReportedEchoSpacing": 0.000560011,
    "DeviceSerialNumber": "167006",
    "DwellTime": 2.1e-06,
    "EchoTime": 0.037,
    "EchoTrainLength": 104,
    "EffectiveEchoSpacing": 0.000560011,
    "FlipAngle": 52,
    "ImageComments": "Unaliased_MB4_PE3_LB",
    "ImageOrientationPatientDICOM": [
      0.999173,
      0.0369294,
      -0.0170317,
      -0.0406549,
      0.896554,
      -0.441065
    ],
    "ImageType": [
      "ORIGINAL",
      "PRIMARY",
      "M",
      "MB",
      "ND",
      "MOSAIC"
    ],
    "InPlanePhaseEncodingDirectionDICOM": "COL",
    "InstitutionAddress": "Chemin_Queen-Mary_4565_Montreal_District_CA_H3W_1W5",
    "InstitutionName": "IUGM",
    "InstitutionalDepartmentName": "Department",
    "MRAcquisitionType": "2D",
    "MagneticFieldStrength": 3,
    "Manufacturer": "Siemens",
    "ManufacturersModelName": "Prisma_fit",
    "Modality": "MR",
    "MultibandAccelerationFactor": 4,
    "PartialFourier": 1,
    "PatientPosition": "HFS",
    "PercentPhaseFOV": 100,
    "PhaseEncodingDirection": "j-",
    "PhaseEncodingSteps": 104,
    "PhaseResolution": 1,
    "PixelBandwidth": 2290,
    "ProcedureStepDescription": "video5_generic",
    "ProtocolName": "func_task-figures9",
    "PulseSequenceDetails": "%CustomerSeq%_cmrr_mbep2d_bold",
    "ReceiveCoilActiveElements": "HC1-7;NC1,2",
    "ReceiveCoilName": "HeadNeck_64",
    "ReconMatrixPE": 104,
    "RepetitionTime": 1.49,
    "SAR": 0.0350692,
    "ScanOptions": "FS",
    "ScanningSequence": "EP",
    "SequenceName": "epfid2d1_104",
    "SequenceVariant": "SK_SS",
    "SeriesDescription": "func_task-figures9",
    "SeriesNumber": 19,
    "ShimSetting": [
      619,
      -7178,
      -8917,
      410,
      3,
      -213,
      -34,
      -2
    ],
    "SliceThickness": 2,
    "SliceTiming": [
      0,
      0.785,
      0.0975,
      0.8825,
      0.1975,
      0.98,
      0.295,
      1.0775,
      0.3925,
      1.1775,
      0.49,
      1.275,
      0.5875,
      1.3725,
      0.6875,
      0,
      0.785,
      0.0975,
      0.8825,
      0.1975,
      0.98,
      0.295,
      1.0775,
      0.3925,
      1.1775,
      0.49,
      1.275,
      0.5875,
      1.3725,
      0.6875,
      0,
      0.785,
      0.0975,
      0.8825,
      0.1975,
      0.98,
      0.295,
      1.0775,
      0.3925,
      1.1775,
      0.49,
      1.275,
      0.5875,
      1.3725,
      0.6875,
      0,
      0.785,
      0.0975,
      0.8825,
      0.1975,
      0.98,
      0.295,
      1.0775,
      0.3925,
      1.1775,
      0.49,
      1.275,
      0.5875,
      1.3725,
      0.6875
    ],
    "SoftwareVersions": "syngo_MR_E11",
    "SpacingBetweenSlices": 2,
    "StationName": "MRC35049",
    "TaskName": "figures09",
    "TotalReadoutTime": 0.0576811,
    "TxRefAmp": 252.586,
    "dataset": "<unset>",
    "dcmmeta_affine": [
      [
        -1.9983454942703247,
        -0.08130988478660583,
        0.002036905148997903,
        109.45382690429688
      ],
      [
        -0.07385885715484619,
        1.7931076288223267,
        -0.8827853798866272,
        -58.24525451660156
      ],
      [
        -0.034063395112752914,
        0.8821303248405457,
        1.7946268320083618,
        -119.61566925048828
      ],
      [
        0.0,
        0.0,
        0.0,
        1.0
      ]
    ],
    "dcmmeta_reorient_transform": [
      [
        0.0,
        -1.0,
        0.0,
        103.0
      ],
      [
        1.0,
        0.0,
        0.0,
        0.0
      ],
      [
        0.0,
        0.0,
        1.0,
        0.0
      ],
      [
        0.0,
        0.0,
        0.0,
        1.0
      ]
    ],
    "dcmmeta_shape": [
      104,
      104,
      60,
      410
    ],
    "dcmmeta_slice_dim": 2,
    "dcmmeta_version": 0.6,
    "global": {
      "const": {
        "AcquisitionMatrix": [
          104,
          0,
          0,
          104
        ],
        "AngioFlag": "N",
        "BitsAllocated": 16,
        "BitsStored": 16,
        "BodyPartExamined": "BRAIN",
        "Columns": 832,
        "EchoNumbers": 1,
        "EchoTime": 37.0,
        "EchoTrainLength": 104,
        "FlipAngle": 52.0,
        "HighBit": 15,
        "ImageOrientationPatient": [
          0.99917272706775,
          0.03692942963978,
          -0.0170316972286,
          -0.0406549411306,
          0.89655378553392,
          -0.4410651713823
        ],
        "ImagePositionPatient": [
          -798.87985906077,
          -806.02060674083,
          304.73827925455
        ],
        "ImageType": [
          "ORIGINAL",
          "PRIMARY",
          "M",
          "MB",
          "ND",
          "MOSAIC"
        ],
        "ImagedNucleus": "1H",
        "ImagingFrequency": 123.259486,
        "InPlanePhaseEncodingDirection": "COL",
        "MRAcquisitionType": "2D",
        "MagneticFieldStrength": 3.0,
        "Manufacturer": "SIEMENS",
        "ManufacturerModelName": "Prisma_fit",
        "Modality": "MR",
        "NumberOfAverages": 1.0,
        "NumberOfPhaseEncodingSteps": 104,
        "PercentPhaseFieldOfView": 100.0,
        "PercentSampling": 100.0,
        "PerformedProcedureStepStartTime": "141020.873000",
        "PhotometricInterpretation": "MONOCHROME2",
        "PixelBandwidth": 2290.0,
        "PixelRepresentation": 0,
        "PixelSpacing": [
          2.0,
          2.0
        ],
        "ProtocolName": "func_task-figures9",
        "RepetitionTime": 1490.0,
        "Rows": 832,
        "SAR": 0.03506924809087,
        "SamplesPerPixel": 1,
        "ScanOptions": "FS",
        "ScanningSequence": "EP",
        "SequenceName": "epfid2d1_104",
        "SequenceVariant": [
          "SK",
          "SS"
        ],
        "SeriesDescription": "func_task-figures9",
        "SeriesNumber": 19,
        "SeriesTime": "145910.769000",
        "SliceLocation": -81.51224276362,
        "SliceThickness": 2.0,
        "SmallestImagePixelValue": 0,
        "SoftwareVersions": "syngo MR E11",
        "SpacingBetweenSlices": 1.9999999540811,
        "SpecificCharacterSet": "ISO_IR 100",
        "StudyID": "1",
        "StudyTime": "141020.796000",
        "TransmitCoilName": "Body",
        "VariableFlipAngleFlag": "N",
        "WindowCenterWidthExplanation": "Algo1",
        "dBdt": 0.0
      },
      "slices": {}
    },
    "modality": "bold",
    "run_id": 2,
    "session_id": "011",
    "subject_id": "02",
    "task_id": "figures09",
    "time": {
      "samples": {
        "AcquisitionNumber": [
          1,
          2,
          3,
          4,
          5,
          6,
          7,
          8,
          9,
          10,
          11,
          12,
          13,
          14,
          15,
          16,
          17,
          18,
          19,
          20,
          21,
          22,
          23,
          24,
          25,
          26,
          27,
          28,
          29,
          30,
          31,
          32,
          33,
          34,
          35,
          36,
          37,
          38,
          39,
          40,
          41,
          42,
          43,
          44,
          45,
          46,
          47,
          48,
          49,
          50,
          51,
          52,
          53,
          54,
          55,
          56,
          57,
          58,
          59,
          60,
          61,
          62,
          63,
          64,
          65,
          66,
          67,
          68,
          69,
          70,
          71,
          72,
          73,
          74,
          75,
          76,
          77,
          78,
          79,
          80,
          81,
          82,
          83,
          84,
          85,
          86,
          87,
          88,
          89,
          90,
          91,
          92,
          93,
          94,
          95,
          96,
          97,
          98,
          99,
          100,
          101,
          102,
          103,
          104,
          105,
          106,
          107,
          108,
          109,
          110,
          111,
          112,
          113,
          114,
          115,
          116,
          117,
          118,
          119,
          120,
          121,
          122,
          123,
          124,
          125,
          126,
          127,
          128,
          129,
          130,
          131,
          132,
          133,
          134,
          135,
          136,
          137,
          138,
          139,
          140,
          141,
          142,
          143,
          144,
          145,
          146,
          147,
          148,
          149,
          150,
          151,
          152,
          153,
          154,
          155,
          156,
          157,
          158,
          159,
          160,
          161,
          162,
          163,
          164,
          165,
          166,
          167,
          168,
          169,
          170,
          171,
          172,
          173,
          174,
          175,
          176,
          177,
          178,
          179,
          180,
          181,
          182,
          183,
          184,
          185,
          186,
          187,
          188,
          189,
          190,
          191,
          192,
          193,
          194,
          195,
          196,
          197,
          198,
          199,
          200,
          201,
          202,
          203,
          204,
          205,
          206,
          207,
          208,
          209,
          210,
          211,
          212,
          213,
          214,
          215,
          216,
          217,
          218,
          219,
          220,
          221,
          222,
          223,
          224,
          225,
          226,
          227,
          228,
          229,
          230,
          231,
          232,
          233,
          234,
          235,
          236,
          237,
          238,
          239,
          240,
          241,
          242,
          243,
          244,
          245,
          246,
          247,
          248,
          249,
          250,
          251,
          252,
          253,
          254,
          255,
          256,
          257,
          258,
          259,
          260,
          261,
          262,
          263,
          264,
          265,
          266,
          267,
          268,
          269,
          270,
          271,
          272,
          273,
          274,
          275,
          276,
          277,
          278,
          279,
          280,
          281,
          282,
          283,
          284,
          285,
          286,
          287,
          288,
          289,
          290,
          291,
          292,
          293,
          294,
          295,
          296,
          297,
          298,
          299,
          300,
          301,
          302,
          303,
          304,
          305,
          306,
          307,
          308,
          309,
          310,
          311,
          312,
          313,
          314,
          315,
          316,
          317,
          318,
          319,
          320,
          321,
          322,
          323,
          324,
          325,
          326,
          327,
          328,
          329,
          330,
          331,
          332,
          333,
          334,
          335,
          336,
          337,
          338,
          339,
          340,
          341,
          342,
          343,
          344,
          345,
          346,
          347,
          348,
          349,
          350,
          351,
          352,
          353,
          354,
          355,
          356,
          357,
          358,
          359,
          360,
          361,
          362,
          363,
          364,
          365,
          366,
          367,
          368,
          369,
          370,
          371,
          372,
          373,
          374,
          375,
          376,
          377,
          378,
          379,
          380,
          381,
          382,
          383,
          384,
          385,
          386,
          387,
          388,
          389,
          390,
          391,
          392,
          393,
          394,
          395,
          396,
          397,
          398,
          399,
          400,
          401,
          402,
          403,
          404,
          405,
          406,
          407,
          408,
          409,
          410
        ],
        "AcquisitionTime": [
          "145751.135000",
          "145752.625000",
          "145754.115000",
          "145755.605000",
          "145757.095000",
          "145758.585000",
          "145800.075000",
          "145801.565000",
          "145803.055000",
          "145804.545000",
          "145806.035000",
          "145807.525000",
          "145809.015000",
          "145810.505000",
          "145811.995000",
          "145813.485000",
          "145814.975000",
          "145816.465000",
          "145817.955000",
          "145819.445000",
          "145820.935000",
          "145822.425000",
          "145823.915000",
          "145825.405000",
          "145826.895000",
          "145828.385000",
          "145829.875000",
          "145831.365000",
          "145832.855000",
          "145834.345000",
          "145835.835000",
          "145837.325000",
          "145838.815000",
          "145840.305000",
          "145841.795000",
          "145843.285000",
          "145844.775000",
          "145846.265000",
          "145847.755000",
          "145849.245000",
          "145850.735000",
          "145852.225000",
          "145853.715000",
          "145855.205000",
          "145856.695000",
          "145858.185000",
          "145859.675000",
          "145901.165000",
          "145902.655000",
          "145904.145000",
          "145905.635000",
          "145907.125000",
          "145908.615000",
          "145910.105000",
          "145911.595000",
          "145913.085000",
          "145914.575000",
          "145916.065000",
          "145917.555000",
          "145919.045000",
          "145920.535000",
          "145922.025000",
          "145923.515000",
          "145925.005000",
          "145926.495000",
          "145927.985000",
          "145929.475000",
          "145930.965000",
          "145932.455000",
          "145933.945000",
          "145935.435000",
          "145936.925000",
          "145938.415000",
          "145939.905000",
          "145941.395000",
          "145942.885000",
          "145944.375000",
          "145945.865000",
          "145947.355000",
          "145948.845000",
          "145950.335000",
          "145951.825000",
          "145953.315000",
          "145954.805000",
          "145956.295000",
          "145957.785000",
          "145959.275000",
          "150000.765000",
          "150002.255000",
          "150003.745000",
          "150005.235000",
          "150006.725000",
          "150008.215000",
          "150009.705000",
          "150011.195000",
          "150012.685000",
          "150014.175000",
          "150015.665000",
          "150017.155000",
          "150018.645000",
          "150020.135000",
          "150021.625000",
          "150023.115000",
          "150024.605000",
          "150026.095000",
          "150027.585000",
          "150029.075000",
          "150030.565000",
          "150032.055000",
          "150033.545000",
          "150035.035000",
          "150036.525000",
          "150038.015000",
          "150039.505000",
          "150040.995000",
          "150042.485000",
          "150043.975000",
          "150045.465000",
          "150046.955000",
          "150048.445000",
          "150049.935000",
          "150051.425000",
          "150052.915000",
          "150054.405000",
          "150055.895000",
          "150057.385000",
          "150058.875000",
          "150100.365000",
          "150101.855000",
          "150103.345000",
          "150104.835000",
          "150106.325000",
          "150107.815000",
          "150109.305000",
          "150110.795000",
          "150112.285000",
          "150113.775000",
          "150115.265000",
          "150116.755000",
          "150118.245000",
          "150119.735000",
          "150121.225000",
          "150122.715000",
          "150124.205000",
          "150125.695000",
          "150127.185000",
          "150128.675000",
          "150130.165000",
          "150131.655000",
          "150133.145000",
          "150134.635000",
          "150136.125000",
          "150137.615000",
          "150139.105000",
          "150140.595000",
          "150142.085000",
          "150143.575000",
          "150145.065000",
          "150146.555000",
          "150148.045000",
          "150149.535000",
          "150151.025000",
          "150152.515000",
          "150154.005000",
          "150155.495000",
          "150156.985000",
          "150158.475000",
          "150159.965000",
          "150201.455000",
          "150202.945000",
          "150204.435000",
          "150205.925000",
          "150207.415000",
          "150208.905000",
          "150210.395000",
          "150211.885000",
          "150213.375000",
          "150214.865000",
          "150216.355000",
          "150217.845000",
          "150219.335000",
          "150220.825000",
          "150222.315000",
          "150223.805000",
          "150225.295000",
          "150226.785000",
          "150228.275000",
          "150229.765000",
          "150231.255000",
          "150232.745000",
          "150234.235000",
          "150235.725000",
          "150237.215000",
          "150238.705000",
          "150240.195000",
          "150241.685000",
          "150243.175000",
          "150244.665000",
          "150246.155000",
          "150247.645000",
          "150249.135000",
          "150250.625000",
          "150252.115000",
          "150253.605000",
          "150255.095000",
          "150256.585000",
          "150258.075000",
          "150259.565000",
          "150301.055000",
          "150302.545000",
          "150304.035000",
          "150305.525000",
          "150307.015000",
          "150308.505000",
          "150309.995000",
          "150311.485000",
          "150312.975000",
          "150314.465000",
          "150315.955000",
          "150317.445000",
          "150318.935000",
          "150320.425000",
          "150321.915000",
          "150323.405000",
          "150324.895000",
          "150326.385000",
          "150327.875000",
          "150329.365000",
          "150330.855000",
          "150332.345000",
          "150333.835000",
          "150335.325000",
          "150336.815000",
          "150338.305000",
          "150339.795000",
          "150341.285000",
          "150342.775000",
          "150344.265000",
          "150345.755000",
          "150347.245000",
          "150348.735000",
          "150350.225000",
          "150351.715000",
          "150353.205000",
          "150354.695000",
          "150356.185000",
          "150357.675000",
          "150359.165000",
          "150400.655000",
          "150402.145000",
          "150403.635000",
          "150405.125000",
          "150406.615000",
          "150408.105000",
          "150409.595000",
          "150411.085000",
          "150412.575000",
          "150414.065000",
          "150415.555000",
          "150417.045000",
          "150418.535000",
          "150420.025000",
          "150421.515000",
          "150423.005000",
          "150424.495000",
          "150425.985000",
          "150427.475000",
          "150428.965000",
          "150430.455000",
          "150431.945000",
          "150433.435000",
          "150434.925000",
          "150436.415000",
          "150437.905000",
          "150439.395000",
          "150440.885000",
          "150442.375000",
          "150443.865000",
          "150445.355000",
          "150446.845000",
          "150448.335000",
          "150449.825000",
          "150451.315000",
          "150452.805000",
          "150454.295000",
          "150455.785000",
          "150457.275000",
          "150458.765000",
          "150500.255000",
          "150501.745000",
          "150503.235000",
          "150504.725000",
          "150506.215000",
          "150507.705000",
          "150509.195000",
          "150510.685000",
          "150512.175000",
          "150513.665000",
          "150515.155000",
          "150516.645000",
          "150518.135000",
          "150519.625000",
          "150521.115000",
          "150522.605000",
          "150524.095000",
          "150525.585000",
          "150527.075000",
          "150528.565000",
          "150530.055000",
          "150531.545000",
          "150533.035000",
          "150534.525000",
          "150536.015000",
          "150537.505000",
          "150538.995000",
          "150540.485000",
          "150541.975000",
          "150543.465000",
          "150544.955000",
          "150546.445000",
          "150547.935000",
          "150549.425000",
          "150550.915000",
          "150552.405000",
          "150553.895000",
          "150555.385000",
          "150556.875000",
          "150558.365000",
          "150559.855000",
          "150601.345000",
          "150602.835000",
          "150604.325000",
          "150605.815000",
          "150607.305000",
          "150608.795000",
          "150610.285000",
          "150611.775000",
          "150613.265000",
          "150614.755000",
          "150616.245000",
          "150617.735000",
          "150619.225000",
          "150620.715000",
          "150622.205000",
          "150623.695000",
          "150625.185000",
          "150626.675000",
          "150628.165000",
          "150629.655000",
          "150631.145000",
          "150632.635000",
          "150634.125000",
          "150635.615000",
          "150637.105000",
          "150638.595000",
          "150640.085000",
          "150641.575000",
          "150643.065000",
          "150644.555000",
          "150646.045000",
          "150647.535000",
          "150649.025000",
          "150650.515000",
          "150652.005000",
          "150653.495000",
          "150654.985000",
          "150656.475000",
          "150657.965000",
          "150659.455000",
          "150700.945000",
          "150702.435000",
          "150703.925000",
          "150705.415000",
          "150706.905000",
          "150708.395000",
          "150709.885000",
          "150711.375000",
          "150712.865000",
          "150714.355000",
          "150715.845000",
          "150717.335000",
          "150718.825000",
          "150720.315000",
          "150721.805000",
          "150723.295000",
          "150724.785000",
          "150726.275000",
          "150727.765000",
          "150729.255000",
          "150730.745000",
          "150732.235000",
          "150733.725000",
          "150735.215000",
          "150736.705000",
          "150738.195000",
          "150739.685000",
          "150741.175000",
          "150742.665000",
          "150744.155000",
          "150745.645000",
          "150747.135000",
          "150748.625000",
          "150750.115000",
          "150751.605000",
          "150753.095000",
          "150754.585000",
          "150756.075000",
          "150757.565000",
          "150759.055000",
          "150800.545000"
        ],
        "ContentTime": [
          "145910.771000",
          "145910.775000",
          "145910.778000",
          "145910.780000",
          "145910.783000",
          "145910.786000",
          "145910.789000",
          "145910.792000",
          "145910.803000",
          "145910.812000",
          "145910.815000",
          "145910.818000",
          "145910.821000",
          "145910.824000",
          "145910.827000",
          "145910.830000",
          "145910.833000",
          "145910.835000",
          "145910.838000",
          "145910.841000",
          "145910.844000",
          "145910.847000",
          "145910.850000",
          "145910.852000",
          "145910.855000",
          "145930.740000",
          "145930.743000",
          "145930.746000",
          "145930.749000",
          "145930.752000",
          "145930.755000",
          "145930.758000",
          "145930.760000",
          "145930.763000",
          "145930.766000",
          "145930.769000",
          "145930.772000",
          "145930.775000",
          "145930.778000",
          "145930.781000",
          "145930.783000",
          "145930.786000",
          "145930.789000",
          "145930.792000",
          "145930.795000",
          "145930.798000",
          "145950.740000",
          "145950.743000",
          "145950.746000",
          "145950.749000",
          "145950.752000",
          "145950.755000",
          "145950.757000",
          "145950.760000",
          "145950.763000",
          "145950.766000",
          "145950.769000",
          "145950.772000",
          "145950.775000",
          "145950.777000",
          "145950.780000",
          "145950.783000",
          "145950.786000",
          "145950.789000",
          "145950.792000",
          "145950.798000",
          "150010.740000",
          "150010.743000",
          "150010.746000",
          "150010.749000",
          "150010.752000",
          "150010.755000",
          "150010.757000",
          "150010.760000",
          "150010.763000",
          "150010.766000",
          "150010.769000",
          "150010.772000",
          "150010.775000",
          "150010.778000",
          "150010.780000",
          "150010.783000",
          "150010.786000",
          "150010.789000",
          "150010.792000",
          "150010.795000",
          "150030.740000",
          "150030.743000",
          "150030.746000",
          "150030.749000",
          "150030.752000",
          "150030.755000",
          "150030.757000",
          "150030.760000",
          "150030.763000",
          "150030.766000",
          "150030.769000",
          "150030.772000",
          "150030.775000",
          "150030.777000",
          "150030.780000",
          "150030.783000",
          "150030.786000",
          "150030.789000",
          "150030.792000",
          "150030.795000",
          "150110.740000",
          "150110.743000",
          "150110.746000",
          "150110.749000",
          "150110.752000",
          "150110.755000",
          "150110.758000",
          "150110.760000",
          "150110.763000",
          "150110.766000",
          "150110.769000",
          "150110.772000",
          "150110.775000",
          "150110.778000",
          "150110.781000",
          "150110.783000",
          "150110.786000",
          "150110.789000",
          "150110.792000",
          "150110.795000",
          "150110.798000",
          "150110.801000",
          "150110.804000",
          "150110.806000",
          "150110.809000",
          "150110.812000",
          "150110.815000",
          "150150.740000",
          "150150.743000",
          "150150.746000",
          "150150.749000",
          "150150.752000",
          "150150.755000",
          "150150.758000",
          "150150.760000",
          "150150.763000",
          "150150.766000",
          "150150.769000",
          "150150.772000",
          "150150.775000",
          "150150.778000",
          "150150.781000",
          "150150.784000",
          "150150.787000",
          "150150.790000",
          "150150.792000",
          "150150.795000",
          "150150.798000",
          "150150.801000",
          "150150.804000",
          "150150.807000",
          "150150.810000",
          "150150.813000",
          "150150.816000",
          "150230.740000",
          "150230.743000",
          "150230.746000",
          "150230.749000",
          "150230.752000",
          "150230.755000",
          "150230.758000",
          "150230.761000",
          "150230.763000",
          "150230.767000",
          "150230.769000",
          "150230.772000",
          "150230.775000",
          "150230.778000",
          "150230.781000",
          "150230.784000",
          "150230.787000",
          "150230.790000",
          "150230.793000",
          "150230.796000",
          "150230.799000",
          "150230.802000",
          "150230.818000",
          "150230.821000",
          "150230.824000",
          "150230.827000",
          "150310.740000",
          "150310.743000",
          "150310.746000",
          "150310.749000",
          "150310.752000",
          "150310.754000",
          "150310.757000",
          "150310.760000",
          "150310.763000",
          "150310.766000",
          "150310.769000",
          "150310.772000",
          "150310.775000",
          "150310.777000",
          "150310.780000",
          "150310.783000",
          "150310.786000",
          "150310.789000",
          "150310.792000",
          "150310.795000",
          "150310.798000",
          "150310.801000",
          "150310.804000",
          "150310.806000",
          "150310.809000",
          "150310.812000",
          "150310.815000",
          "150350.740000",
          "150350.743000",
          "150350.746000",
