{
  "aor": 0.0005319753086419754,
  "aqi": 0.005433369456790123,
  "bids_meta": {
    "AcquisitionMatrixPE": 104,
    "AcquisitionNumber": 1,
    "AcquisitionTime": "13:00:24.410000",
    "BandwidthPerPixelPhaseEncode": 17.17,
    "BaseResolution": 104,
    "BodyPartExamined": "BRAIN",
    "CogAtlasID": "trm_4c898da401420",
    "ConsistencyInfo": "N4_VE11C_LATEST_20160120",
    "ConversionSoftware": "dcm2niix",
    "ConversionSoftwareVersion": "v1.0.20171215 (OpenJPEG build) GCC7.3.0",
    "DerivedVendorReportedEchoSpacing": 0.000560011,
    "DeviceSerialNumber": "167006",
    "DwellTime": 2.1e-06,
    "EchoTime": 0.037,
    "EchoTrainLength": 104,
    "EffectiveEchoSpacing": 0.000560011,
    "FlipAngle": 52,
    "ImageComments": "Unaliased_MB4_PE3_LB",
    "ImageOrientationPatientDICOM": [
      0.996374,
      0.0522709,
      -0.0671311,
      -0.0621628,
      0.98597,
      -0.154918
    ],
    "ImageType": [
      "ORIGINAL",
      "PRIMARY",
      "M",
      "MB",
      "ND",
      "MOSAIC"
    ],
    "InPlanePhaseEncodingDirectionDICOM": "COL",
    "InstitutionAddress": "Chemin_Queen-Mary_4565_Montreal_District_CA_H3W_1W5",
    "InstitutionName": "IUGM",
    "InstitutionalDepartmentName": "Department",
    "MRAcquisitionType": "2D",
    "MagneticFieldStrength": 3,
    "Manufacturer": "Siemens",
    "ManufacturersModelName": "Prisma_fit",
    "Modality": "MR",
    "MultibandAccelerationFactor": 4,
    "PartialFourier": 1,
    "PatientPosition": "HFS",
    "PercentPhaseFOV": 100,
    "PhaseEncodingDirection": "j-",
    "PhaseEncodingSteps": 104,
    "PhaseResolution": 1,
    "PixelBandwidth": 2290,
    "ProcedureStepDescription": "video5_generic",
    "ProtocolName": "func_task-wolf8",
    "PulseSequenceDetails": "%CustomerSeq%_cmrr_mbep2d_bold",
    "ReceiveCoilActiveElements": "HC1-7;NC1,2",
    "ReceiveCoilName": "HeadNeck_64",
    "ReconMatrixPE": 104,
    "RepetitionTime": 1.49,
    "SAR": 0.0309499,
    "ScanOptions": "FS",
    "ScanningSequence": "EP",
    "SequenceName": "epfid2d1_104",
    "SequenceVariant": "SK_SS",
    "SeriesDescription": "func_task-wolf8",
    "SeriesNumber": 15,
    "ShimSetting": [
      605,
      -7219,
      -8895,
      616,
      -28,
      -246,
      49,
      34
    ],
    "SliceThickness": 2,
    "SliceTiming": [
      0,
      0.7825,
      0.0975,
      0.88,
      0.195,
      0.98,
      0.2925,
      1.0775,
      0.3925,
      1.175,
      0.49,
      1.2725,
      0.5875,
      1.37,
      0.685,
      0,
      0.7825,
      0.0975,
      0.88,
      0.195,
      0.98,
      0.2925,
      1.0775,
      0.3925,
      1.175,
      0.49,
      1.2725,
      0.5875,
      1.37,
      0.685,
      0,
      0.7825,
      0.0975,
      0.88,
      0.195,
      0.98,
      0.2925,
      1.0775,
      0.3925,
      1.175,
      0.49,
      1.2725,
      0.5875,
      1.37,
      0.685,
      0,
      0.7825,
      0.0975,
      0.88,
      0.195,
      0.98,
      0.2925,
      1.0775,
      0.3925,
      1.175,
      0.49,
      1.2725,
      0.5875,
      1.37,
      0.685
    ],
    "SoftwareVersions": "syngo_MR_E11",
    "SpacingBetweenSlices": 2,
    "StationName": "MRC35049",
    "TaskName": "wolf08",
    "TotalReadoutTime": 0.0576811,
    "TxRefAmp": 218.34,
    "dataset": "<unset>",
    "dcmmeta_affine": [
      [
        -1.9927480220794678,
        -0.12432550638914108,
        -0.11618298292160034,
        110.63610076904297
      ],
      [
        -0.10454180091619492,
        1.9719393253326416,
        -0.31705912947654724,
        -70.22068786621094
      ],
      [
        -0.13426215946674347,
        0.3098364770412445,
        1.971287727355957,
        -64.93930053710938
      ],
      [
        0.0,
        0.0,
        0.0,
        1.0
      ]
    ],
    "dcmmeta_reorient_transform": [
      [
        0.0,
        -1.0,
        0.0,
        103.0
      ],
      [
        1.0,
        0.0,
        0.0,
        0.0
      ],
      [
        0.0,
        0.0,
        1.0,
        0.0
      ],
      [
        0.0,
        0.0,
        0.0,
        1.0
      ]
    ],
    "dcmmeta_shape": [
      104,
      104,
      60,
      406
    ],
    "dcmmeta_slice_dim": 2,
    "dcmmeta_version": 0.6,
    "global": {
      "const": {
        "AcquisitionMatrix": [
          104,
          0,
          0,
          104
        ],
        "AngioFlag": "N",
        "BitsAllocated": 16,
        "BitsStored": 16,
        "BodyPartExamined": "BRAIN",
        "Columns": 832,
        "EchoNumbers": 1,
        "EchoTime": 37.0,
        "EchoTrainLength": 104,
        "FlipAngle": 52.0,
        "HighBit": 15,
        "ImageOrientationPatient": [
          0.99637401160754,
          0.05227090114872,
          -0.0671310798826,
          -0.0621627516318,
          0.98596964044058,
          -0.1549182379162
        ],
        "ImagePositionPatient": [
          -777.93636821152,
          -888.72817512744,
          128.62575826913
        ],
        "ImageType": [
          "ORIGINAL",
          "PRIMARY",
          "M",
          "MB",
          "ND",
          "MOSAIC"
        ],
        "ImagedNucleus": "1H",
        "ImagingFrequency": 123.259281,
        "InPlanePhaseEncodingDirection": "COL",
        "MRAcquisitionType": "2D",
        "MagneticFieldStrength": 3.0,
        "Manufacturer": "SIEMENS",
        "ManufacturerModelName": "Prisma_fit",
        "Modality": "MR",
        "NumberOfAverages": 1.0,
        "NumberOfPhaseEncodingSteps": 104,
        "PercentPhaseFieldOfView": 100.0,
        "PercentSampling": 100.0,
        "PerformedProcedureStepStartTime": "120602.406000",
        "PhotometricInterpretation": "MONOCHROME2",
        "PixelBandwidth": 2290.0,
        "PixelRepresentation": 0,
        "PixelSpacing": [
          2.0,
          2.0
        ],
        "ProtocolName": "func_task-wolf8",
        "RepetitionTime": 1490.0,
        "Rows": 832,
        "SAR": 0.03094993005093,
        "SamplesPerPixel": 1,
        "ScanOptions": "FS",
        "ScanningSequence": "EP",
        "SequenceName": "epfid2d1_104",
        "SequenceVariant": [
          "SK",
          "SS"
        ],
        "SeriesDescription": "func_task-wolf8",
        "SeriesNumber": 15,
        "SeriesTime": "130153.009000",
        "SliceLocation": -59.301984003971,
        "SliceThickness": 2.0,
        "SmallestImagePixelValue": 0,
        "SoftwareVersions": "syngo MR E11",
        "SpacingBetweenSlices": 2.0000000202449,
        "SpecificCharacterSet": "ISO_IR 100",
        "StudyID": "1",
        "StudyTime": "120602.257000",
        "TransmitCoilName": "Body",
        "VariableFlipAngleFlag": "N",
        "WindowCenterWidthExplanation": "Algo1",
        "dBdt": 0.0
      },
      "slices": {}
    },
    "modality": "bold",
    "session_id": "002",
    "subject_id": "04",
    "task_id": "wolf08",
    "time": {
      "samples": {
        "AcquisitionNumber": [
          1,
          2,
          3,
          4,
          5,
          6,
          7,
          8,
          9,
          10,
          11,
          12,
          13,
          14,
          15,
          16,
          17,
          18,
          19,
          20,
          21,
          22,
          23,
          24,
          25,
          26,
          27,
          28,
          29,
          30,
          31,
          32,
          33,
          34,
          35,
          36,
          37,
          38,
          39,
          40,
          41,
          42,
          43,
          44,
          45,
          46,
          47,
          48,
          49,
          50,
          51,
          52,
          53,
          54,
          55,
          56,
          57,
          58,
          59,
          60,
          61,
          62,
          63,
          64,
          65,
          66,
          67,
          68,
          69,
          70,
          71,
          72,
          73,
          74,
          75,
          76,
          77,
          78,
          79,
          80,
          81,
          82,
          83,
          84,
          85,
          86,
          87,
          88,
          89,
          90,
          91,
          92,
          93,
          94,
          95,
          96,
          97,
          98,
          99,
          100,
          101,
          102,
          103,
          104,
          105,
          106,
          107,
          108,
          109,
          110,
          111,
          112,
          113,
          114,
          115,
          116,
          117,
          118,
          119,
          120,
          121,
          122,
          123,
          124,
          125,
          126,
          127,
          128,
          129,
          130,
          131,
          132,
          133,
          134,
          135,
          136,
          137,
          138,
          139,
          140,
          141,
          142,
          143,
          144,
          145,
          146,
          147,
          148,
          149,
          150,
          151,
          152,
          153,
          154,
          155,
          156,
          157,
          158,
          159,
          160,
          161,
          162,
          163,
          164,
          165,
          166,
          167,
          168,
          169,
          170,
          171,
          172,
          173,
          174,
          175,
          176,
          177,
          178,
          179,
          180,
          181,
          182,
          183,
          184,
          185,
          186,
          187,
          188,
          189,
          190,
          191,
          192,
          193,
          194,
          195,
          196,
          197,
          198,
          199,
          200,
          201,
          202,
          203,
          204,
          205,
          206,
          207,
          208,
          209,
          210,
          211,
          212,
          213,
          214,
          215,
          216,
          217,
          218,
          219,
          220,
          221,
          222,
          223,
          224,
          225,
          226,
          227,
          228,
          229,
          230,
          231,
          232,
          233,
          234,
          235,
          236,
          237,
          238,
          239,
          240,
          241,
          242,
          243,
          244,
          245,
          246,
          247,
          248,
          249,
          250,
          251,
          252,
          253,
          254,
          255,
          256,
          257,
          258,
          259,
          260,
          261,
          262,
          263,
          264,
          265,
          266,
          267,
          268,
          269,
          270,
          271,
          272,
          273,
          274,
          275,
          276,
          277,
          278,
          279,
          280,
          281,
          282,
          283,
          284,
          285,
          286,
          287,
          288,
          289,
          290,
          291,
          292,
          293,
          294,
          295,
          296,
          297,
          298,
          299,
          300,
          301,
          302,
          303,
          304,
          305,
          306,
          307,
          308,
          309,
          310,
          311,
          312,
          313,
          314,
          315,
          316,
          317,
          318,
          319,
          320,
          321,
          322,
          323,
          324,
          325,
          326,
          327,
          328,
          329,
          330,
          331,
          332,
          333,
          334,
          335,
          336,
          337,
          338,
          339,
          340,
          341,
          342,
          343,
          344,
          345,
          346,
          347,
          348,
          349,
          350,
          351,
          352,
          353,
          354,
          355,
          356,
          357,
          358,
          359,
          360,
          361,
          362,
          363,
          364,
          365,
          366,
          367,
          368,
          369,
          370,
          371,
          372,
          373,
          374,
          375,
          376,
          377,
          378,
          379,
          380,
          381,
          382,
          383,
          384,
          385,
          386,
          387,
          388,
          389,
          390,
          391,
          392,
          393,
          394,
          395,
          396,
          397,
          398,
          399,
          400,
          401,
          402,
          403,
          404,
          405,
          406
        ],
        "AcquisitionTime": [
          "130024.410000",
          "130025.900000",
          "130027.390000",
          "130028.880000",
          "130030.370000",
          "130031.860000",
          "130033.350000",
          "130034.840000",
          "130036.330000",
          "130037.820000",
          "130039.310000",
          "130040.800000",
          "130042.290000",
          "130043.780000",
          "130045.270000",
          "130046.760000",
          "130048.250000",
          "130049.740000",
          "130051.230000",
          "130052.720000",
          "130054.210000",
          "130055.700000",
          "130057.190000",
          "130058.680000",
          "130100.170000",
          "130101.660000",
          "130103.150000",
          "130104.640000",
          "130106.130000",
          "130107.620000",
          "130109.110000",
          "130110.600000",
          "130112.090000",
          "130113.580000",
          "130115.070000",
          "130116.560000",
          "130118.050000",
          "130119.540000",
          "130121.030000",
          "130122.520000",
          "130124.010000",
          "130125.500000",
          "130126.990000",
          "130128.480000",
          "130129.970000",
          "130131.460000",
          "130132.950000",
          "130134.440000",
          "130135.930000",
          "130137.420000",
          "130138.910000",
          "130140.400000",
          "130141.890000",
          "130143.380000",
          "130144.870000",
          "130146.360000",
          "130147.850000",
          "130149.340000",
          "130150.830000",
          "130152.320000",
          "130153.810000",
          "130155.300000",
          "130156.790000",
          "130158.280000",
          "130159.770000",
          "130201.260000",
          "130202.750000",
          "130204.240000",
          "130205.730000",
          "130207.220000",
          "130208.710000",
          "130210.200000",
          "130211.690000",
          "130213.180000",
          "130214.670000",
          "130216.160000",
          "130217.650000",
          "130219.140000",
          "130220.630000",
          "130222.120000",
          "130223.610000",
          "130225.100000",
          "130226.590000",
          "130228.080000",
          "130229.570000",
          "130231.060000",
          "130232.550000",
          "130234.040000",
          "130235.530000",
          "130237.020000",
          "130238.510000",
          "130240.000000",
          "130241.490000",
          "130242.980000",
          "130244.470000",
          "130245.960000",
          "130247.450000",
          "130248.940000",
          "130250.430000",
          "130251.920000",
          "130253.410000",
          "130254.900000",
          "130256.390000",
          "130257.880000",
          "130259.370000",
          "130300.860000",
          "130302.350000",
          "130303.840000",
          "130305.330000",
          "130306.820000",
          "130308.310000",
          "130309.800000",
          "130311.290000",
          "130312.780000",
          "130314.270000",
          "130315.760000",
          "130317.250000",
          "130318.740000",
          "130320.230000",
          "130321.720000",
          "130323.210000",
          "130324.700000",
          "130326.190000",
          "130327.680000",
          "130329.170000",
          "130330.660000",
          "130332.150000",
          "130333.640000",
          "130335.130000",
          "130336.620000",
          "130338.110000",
          "130339.600000",
          "130341.090000",
          "130342.580000",
          "130344.070000",
          "130345.560000",
          "130347.050000",
          "130348.540000",
          "130350.030000",
          "130351.520000",
          "130353.010000",
          "130354.500000",
          "130355.990000",
          "130357.480000",
          "130358.970000",
          "130400.460000",
          "130401.950000",
          "130403.440000",
          "130404.930000",
          "130406.420000",
          "130407.910000",
          "130409.400000",
          "130410.890000",
          "130412.380000",
          "130413.870000",
          "130415.360000",
          "130416.850000",
          "130418.340000",
          "130419.830000",
          "130421.320000",
          "130422.810000",
          "130424.300000",
          "130425.790000",
          "130427.280000",
          "130428.770000",
          "130430.260000",
          "130431.750000",
          "130433.240000",
          "130434.730000",
          "130436.220000",
          "130437.710000",
          "130439.200000",
          "130440.690000",
          "130442.180000",
          "130443.670000",
          "130445.160000",
          "130446.650000",
          "130448.140000",
          "130449.630000",
          "130451.120000",
          "130452.610000",
          "130454.100000",
          "130455.590000",
          "130457.080000",
          "130458.570000",
          "130500.060000",
          "130501.550000",
          "130503.040000",
          "130504.530000",
          "130506.020000",
          "130507.510000",
          "130509.000000",
          "130510.490000",
          "130511.980000",
          "130513.470000",
          "130514.960000",
          "130516.450000",
          "130517.940000",
          "130519.430000",
          "130520.920000",
          "130522.410000",
          "130523.900000",
          "130525.390000",
          "130526.880000",
          "130528.370000",
          "130529.860000",
          "130531.350000",
          "130532.840000",
          "130534.330000",
          "130535.820000",
          "130537.310000",
          "130538.800000",
          "130540.290000",
          "130541.780000",
          "130543.270000",
          "130544.760000",
          "130546.250000",
          "130547.740000",
          "130549.230000",
          "130550.720000",
          "130552.210000",
          "130553.700000",
          "130555.190000",
          "130556.680000",
          "130558.170000",
          "130559.660000",
          "130601.150000",
          "130602.640000",
          "130604.130000",
          "130605.620000",
          "130607.110000",
          "130608.600000",
          "130610.090000",
          "130611.580000",
          "130613.070000",
          "130614.560000",
          "130616.050000",
          "130617.540000",
          "130619.030000",
          "130620.520000",
          "130622.010000",
          "130623.500000",
          "130624.990000",
          "130626.480000",
          "130627.970000",
          "130629.460000",
          "130630.950000",
          "130632.440000",
          "130633.930000",
          "130635.420000",
          "130636.910000",
          "130638.400000",
          "130639.890000",
          "130641.380000",
          "130642.870000",
          "130644.360000",
          "130645.850000",
          "130647.340000",
          "130648.830000",
          "130650.320000",
          "130651.810000",
          "130653.300000",
          "130654.790000",
          "130656.280000",
          "130657.770000",
          "130659.260000",
          "130700.750000",
          "130702.240000",
          "130703.730000",
          "130705.220000",
          "130706.710000",
          "130708.200000",
          "130709.690000",
          "130711.180000",
          "130712.670000",
          "130714.160000",
          "130715.650000",
          "130717.140000",
          "130718.630000",
          "130720.120000",
          "130721.610000",
          "130723.100000",
          "130724.590000",
          "130726.080000",
          "130727.570000",
          "130729.060000",
          "130730.550000",
          "130732.040000",
          "130733.530000",
          "130735.020000",
          "130736.510000",
          "130738.000000",
          "130739.490000",
          "130740.980000",
          "130742.470000",
          "130743.960000",
          "130745.450000",
          "130746.940000",
          "130748.430000",
          "130749.920000",
          "130751.410000",
          "130752.900000",
          "130754.390000",
          "130755.880000",
          "130757.370000",
          "130758.860000",
          "130800.350000",
          "130801.840000",
          "130803.330000",
          "130804.820000",
          "130806.310000",
          "130807.800000",
          "130809.290000",
          "130810.780000",
          "130812.270000",
          "130813.760000",
          "130815.250000",
          "130816.740000",
          "130818.230000",
          "130819.720000",
          "130821.210000",
          "130822.700000",
          "130824.190000",
          "130825.680000",
          "130827.170000",
          "130828.660000",
          "130830.150000",
          "130831.640000",
          "130833.130000",
          "130834.620000",
          "130836.110000",
          "130837.600000",
          "130839.090000",
          "130840.580000",
          "130842.070000",
          "130843.560000",
          "130845.050000",
          "130846.540000",
          "130848.030000",
          "130849.520000",
          "130851.010000",
          "130852.500000",
          "130853.990000",
          "130855.480000",
          "130856.970000",
          "130858.460000",
          "130859.950000",
          "130901.440000",
          "130902.930000",
          "130904.420000",
          "130905.910000",
          "130907.400000",
          "130908.890000",
          "130910.380000",
          "130911.870000",
          "130913.360000",
          "130914.850000",
          "130916.340000",
          "130917.830000",
          "130919.320000",
          "130920.810000",
          "130922.300000",
          "130923.790000",
          "130925.280000",
          "130926.770000",
          "130928.260000",
          "130929.750000",
          "130931.240000",
          "130932.730000",
          "130934.220000",
          "130935.710000",
          "130937.200000",
          "130938.690000",
          "130940.180000",
          "130941.670000",
          "130943.160000",
          "130944.650000",
          "130946.140000",
          "130947.630000",
          "130949.120000",
          "130950.610000",
          "130952.100000",
          "130953.590000",
          "130955.080000",
          "130956.570000",
          "130958.060000",
          "130959.550000",
          "131001.040000",
          "131002.530000",
          "131004.020000",
          "131005.510000",
          "131007.000000",
          "131008.490000",
          "131009.980000",
          "131011.470000",
          "131012.960000",
          "131014.450000",
          "131015.940000",
          "131017.430000",
          "131018.920000",
          "131020.410000",
          "131021.900000",
          "131023.390000",
          "131024.880000",
          "131026.370000",
          "131027.860000"
        ],
        "ContentTime": [
          "130153.012000",
          "130153.017000",
          "130153.020000",
          "130153.023000",
          "130153.026000",
          "130153.029000",
          "130153.032000",
          "130153.035000",
          "130153.038000",
          "130153.041000",
          "130153.044000",
          "130153.047000",
          "130153.050000",
          "130153.052000",
          "130153.055000",
          "130153.058000",
          "130153.061000",
          "130153.064000",
          "130153.067000",
          "130153.070000",
          "130153.073000",
          "130153.076000",
          "130153.078000",
          "130153.081000",
          "130153.084000",
          "130153.087000",
          "130153.090000",
          "130153.093000",
          "130153.096000",
          "130153.099000",
          "130153.102000",
          "130153.104000",
          "130153.107000",
          "130153.110000",
          "130153.116000",
          "130212.976000",
          "130212.979000",
          "130212.982000",
          "130212.985000",
          "130212.988000",
          "130212.991000",
          "130212.994000",
          "130212.996000",
          "130213.000000",
          "130213.003000",
          "130213.006000",
          "130213.009000",
          "130213.012000",
          "130213.015000",
          "130213.018000",
          "130213.020000",
          "130213.023000",
          "130213.026000",
          "130213.029000",
          "130213.032000",
          "130232.976000",
          "130232.979000",
          "130232.982000",
          "130232.985000",
          "130232.989000",
          "130232.991000",
          "130232.994000",
          "130232.997000",
          "130233.001000",
          "130233.004000",
          "130233.007000",
          "130233.010000",
          "130233.013000",
          "130233.016000",
          "130233.019000",
          "130233.022000",
          "130233.025000",
          "130233.028000",
          "130233.031000",
          "130233.033000",
          "130252.976000",
          "130252.979000",
          "130252.982000",
          "130252.985000",
          "130252.988000",
          "130252.991000",
          "130252.997000",
          "130253.001000",
          "130253.004000",
          "130253.007000",
          "130253.010000",
          "130253.013000",
          "130253.016000",
          "130253.019000",
          "130253.022000",
          "130253.025000",
          "130253.028000",
          "130253.031000",
          "130253.033000",
          "130253.036000",
          "130332.975000",
          "130332.978000",
          "130332.981000",
          "130332.990000",
          "130332.993000",
          "130332.996000",
          "130332.998000",
          "130333.003000",
          "130333.005000",
          "130333.008000",
          "130333.011000",
          "130333.014000",
          "130333.017000",
          "130333.020000",
          "130333.023000",
          "130333.026000",
          "130333.029000",
          "130333.032000",
          "130333.035000",
          "130333.038000",
          "130333.041000",
          "130333.044000",
          "130333.046000",
          "130333.049000",
          "130333.052000",
          "130333.055000",
          "130333.058000",
          "130333.061000",
          "130333.064000",
          "130333.067000",
          "130412.976000",
          "130412.979000",
          "130412.982000",
          "130412.985000",
          "130412.988000",
          "130412.991000",
          "130412.994000",
          "130412.997000",
          "130413.001000",
          "130413.003000",
          "130413.006000",
          "130413.009000",
          "130413.012000",
          "130413.015000",
          "130413.018000",
          "130413.021000",
          "130413.024000",
          "130413.027000",
          "130413.030000",
          "130413.033000",
          "130413.035000",
          "130413.038000",
          "130413.041000",
          "130413.044000",
          "130413.047000",
          "130413.050000",
          "130413.053000",
          "130452.976000",
          "130452.979000",
          "130452.982000",
          "130452.985000",
          "130452.988000",
          "130452.991000",
          "130452.994000",
          "130452.997000",
          "130453.001000",
          "130453.004000",
          "130453.007000",
          "130453.010000",
          "130453.013000",
          "130453.015000",
          "130453.018000",
          "130453.021000",
          "130453.024000",
          "130453.027000",
          "130453.030000",
          "130453.033000",
          "130453.036000",
          "130453.056000",
          "130453.059000",
          "130453.062000",
          "130453.064000",
          "130453.067000",
          "130453.070000",
          "130532.976000",
          "130532.979000",
          "130532.982000",
          "130532.985000",
          "130532.988000",
          "130532.991000",
          "130532.994000",
          "130532.997000",
          "130533.001000",
          "130533.004000",
          "130533.007000",
          "130533.010000",
          "130533.013000",
          "130533.016000",
          "130533.019000",
          "130533.022000",
          "130533.025000",
          "130533.028000",
          "130533.031000",
          "130533.034000",
          "130533.036000",
          "130533.040000",
          "130533.042000",
          "130533.045000",
          "130533.048000",
          "130533.051000",
          "130533.054000",
          "130612.975000",
          "130612.978000",
          "130612.981000",
          "130612.984000",
          "130612.987000",
          "130612.990000",
          "130612.993000",
          "130612.996000",
          "130613.000000",
          "130613.003000",
          "130613.006000",
          "130613.009000",
          "130613.012000",
          "130613.015000",
          "130613.018000",
          "130613.020000",
          "130613.024000",
          "130613.026000",
