{
  "aor": 0.00022418952618453867,
  "aqi": 0.004448267556109726,
  "bids_meta": {
    "AcquisitionMatrixPE": 104,
    "AcquisitionNumber": 1,
    "AcquisitionTime": "12:28:51.757500",
    "BandwidthPerPixelPhaseEncode": 17.17,
    "BaseResolution": 104,
    "BodyPartExamined": "BRAIN",
    "CogAtlasID": "trm_4c898da401420",
    "ConsistencyInfo": "N4_VE11C_LATEST_20160120",
    "ConversionSoftware": "dcm2niix",
    "ConversionSoftwareVersion": "v1.0.20171215 (OpenJPEG build) GCC7.3.0",
    "DerivedVendorReportedEchoSpacing": 0.000560011,
    "DeviceSerialNumber": "167006",
    "DwellTime": 2.1e-06,
    "EchoTime": 0.037,
    "EchoTrainLength": 104,
    "EffectiveEchoSpacing": 0.000560011,
    "FlipAngle": 52,
    "ImageComments": "Unaliased_MB4_PE3_LB",
    "ImageOrientationPatientDICOM": [
      0.996374,
      0.0522709,
      -0.0671311,
      -0.0621628,
      0.98597,
      -0.154918
    ],
    "ImageType": [
      "ORIGINAL",
      "PRIMARY",
      "M",
      "MB",
      "ND",
      "MOSAIC"
    ],
    "InPlanePhaseEncodingDirectionDICOM": "COL",
    "InstitutionAddress": "Chemin_Queen-Mary_4565_Montreal_District_CA_H3W_1W5",
    "InstitutionName": "IUGM",
    "InstitutionalDepartmentName": "Department",
    "MRAcquisitionType": "2D",
    "MagneticFieldStrength": 3,
    "Manufacturer": "Siemens",
    "ManufacturersModelName": "Prisma_fit",
    "Modality": "MR",
    "MultibandAccelerationFactor": 4,
    "PartialFourier": 1,
    "PatientPosition": "HFS",
    "PercentPhaseFOV": 100,
    "PhaseEncodingDirection": "j-",
    "PhaseEncodingSteps": 104,
    "PhaseResolution": 1,
    "PixelBandwidth": 2290,
    "ProcedureStepDescription": "video5_generic",
    "ProtocolName": "func_task-wolf5",
    "PulseSequenceDetails": "%CustomerSeq%_cmrr_mbep2d_bold",
    "ReceiveCoilActiveElements": "HC1-7;NC1,2",
    "ReceiveCoilName": "HeadNeck_64",
    "ReconMatrixPE": 104,
    "RepetitionTime": 1.49,
    "SAR": 0.0309499,
    "ScanOptions": "FS",
    "ScanningSequence": "EP",
    "SequenceName": "epfid2d1_104",
    "SequenceVariant": "SK_SS",
    "SeriesDescription": "func_task-wolf5",
    "SeriesNumber": 9,
    "ShimSetting": [
      605,
      -7219,
      -8895,
      616,
      -28,
      -246,
      49,
      34
    ],
    "SliceThickness": 2,
    "SliceTiming": [
      0,
      0.785,
      0.0975,
      0.8825,
      0.195,
      0.98,
      0.295,
      1.0775,
      0.3925,
      1.175,
      0.49,
      1.275,
      0.5875,
      1.3725,
      0.685,
      0,
      0.785,
      0.0975,
      0.8825,
      0.195,
      0.98,
      0.295,
      1.0775,
      0.3925,
      1.175,
      0.49,
      1.275,
      0.5875,
      1.3725,
      0.685,
      0,
      0.785,
      0.0975,
      0.8825,
      0.195,
      0.98,
      0.295,
      1.0775,
      0.3925,
      1.175,
      0.49,
      1.275,
      0.5875,
      1.3725,
      0.685,
      0,
      0.785,
      0.0975,
      0.8825,
      0.195,
      0.98,
      0.295,
      1.0775,
      0.3925,
      1.175,
      0.49,
      1.275,
      0.5875,
      1.3725,
      0.685
    ],
    "SoftwareVersions": "syngo_MR_E11",
    "SpacingBetweenSlices": 2,
    "StationName": "MRC35049",
    "TaskName": "wolf05",
    "TotalReadoutTime": 0.0576811,
    "TxRefAmp": 218.34,
    "dataset": "<unset>",
    "dcmmeta_affine": [
      [
        -1.9927480220794678,
        -0.12432550638914108,
        -0.11618298292160034,
        110.63610076904297
      ],
      [
        -0.10454180091619492,
        1.9719393253326416,
        -0.31705912947654724,
        -70.22068786621094
      ],
      [
        -0.13426215946674347,
        0.3098364770412445,
        1.971287727355957,
        -64.93930053710938
      ],
      [
        0.0,
        0.0,
        0.0,
        1.0
      ]
    ],
    "dcmmeta_reorient_transform": [
      [
        0.0,
        -1.0,
        0.0,
        103.0
      ],
      [
        1.0,
        0.0,
        0.0,
        0.0
      ],
      [
        0.0,
        0.0,
        1.0,
        0.0
      ],
      [
        0.0,
        0.0,
        0.0,
        1.0
      ]
    ],
    "dcmmeta_shape": [
      104,
      104,
      60,
      406
    ],
    "dcmmeta_slice_dim": 2,
    "dcmmeta_version": 0.6,
    "global": {
      "const": {
        "AcquisitionMatrix": [
          104,
          0,
          0,
          104
        ],
        "AngioFlag": "N",
        "BitsAllocated": 16,
        "BitsStored": 16,
        "BodyPartExamined": "BRAIN",
        "Columns": 832,
        "EchoNumbers": 1,
        "EchoTime": 37.0,
        "EchoTrainLength": 104,
        "FlipAngle": 52.0,
        "HighBit": 15,
        "ImageOrientationPatient": [
          0.99637401160754,
          0.05227090114872,
          -0.0671310798826,
          -0.0621627516318,
          0.98596964044058,
          -0.1549182379162
        ],
        "ImagePositionPatient": [
          -777.93636821152,
          -888.72817512744,
          128.62575826913
        ],
        "ImageType": [
          "ORIGINAL",
          "PRIMARY",
          "M",
          "MB",
          "ND",
          "MOSAIC"
        ],
        "ImagedNucleus": "1H",
        "ImagingFrequency": 123.259269,
        "InPlanePhaseEncodingDirection": "COL",
        "MRAcquisitionType": "2D",
        "MagneticFieldStrength": 3.0,
        "Manufacturer": "SIEMENS",
        "ManufacturerModelName": "Prisma_fit",
        "Modality": "MR",
        "NumberOfAverages": 1.0,
        "NumberOfPhaseEncodingSteps": 104,
        "PercentPhaseFieldOfView": 100.0,
        "PercentSampling": 100.0,
        "PerformedProcedureStepStartTime": "120602.406000",
        "PhotometricInterpretation": "MONOCHROME2",
        "PixelBandwidth": 2290.0,
        "PixelRepresentation": 0,
        "PixelSpacing": [
          2.0,
          2.0
        ],
        "ProtocolName": "func_task-wolf5",
        "RepetitionTime": 1490.0,
        "Rows": 832,
        "SAR": 0.03094993005093,
        "SamplesPerPixel": 1,
        "ScanOptions": "FS",
        "ScanningSequence": "EP",
        "SequenceName": "epfid2d1_104",
        "SequenceVariant": [
          "SK",
          "SS"
        ],
        "SeriesDescription": "func_task-wolf5",
        "SeriesNumber": 9,
        "SeriesTime": "123013.005000",
        "SliceLocation": -59.301984003971,
        "SliceThickness": 2.0,
        "SmallestImagePixelValue": 0,
        "SoftwareVersions": "syngo MR E11",
        "SpacingBetweenSlices": 2.0000000202449,
        "SpecificCharacterSet": "ISO_IR 100",
        "StudyID": "1",
        "StudyTime": "120602.257000",
        "TransmitCoilName": "Body",
        "VariableFlipAngleFlag": "N",
        "WindowCenterWidthExplanation": "Algo1",
        "dBdt": 0.0
      },
      "slices": {}
    },
    "modality": "bold",
    "session_id": "002",
    "subject_id": "04",
    "task_id": "wolf05",
    "time": {
      "samples": {
        "AcquisitionNumber": [
          1,
          2,
          3,
          4,
          5,
          6,
          7,
          8,
          9,
          10,
          11,
          12,
          13,
          14,
          15,
          16,
          17,
          18,
          19,
          20,
          21,
          22,
          23,
          24,
          25,
          26,
          27,
          28,
          29,
          30,
          31,
          32,
          33,
          34,
          35,
          36,
          37,
          38,
          39,
          40,
          41,
          42,
          43,
          44,
          45,
          46,
          47,
          48,
          49,
          50,
          51,
          52,
          53,
          54,
          55,
          56,
          57,
          58,
          59,
          60,
          61,
          62,
          63,
          64,
          65,
          66,
          67,
          68,
          69,
          70,
          71,
          72,
          73,
          74,
          75,
          76,
          77,
          78,
          79,
          80,
          81,
          82,
          83,
          84,
          85,
          86,
          87,
          88,
          89,
          90,
          91,
          92,
          93,
          94,
          95,
          96,
          97,
          98,
          99,
          100,
          101,
          102,
          103,
          104,
          105,
          106,
          107,
          108,
          109,
          110,
          111,
          112,
          113,
          114,
          115,
          116,
          117,
          118,
          119,
          120,
          121,
          122,
          123,
          124,
          125,
          126,
          127,
          128,
          129,
          130,
          131,
          132,
          133,
          134,
          135,
          136,
          137,
          138,
          139,
          140,
          141,
          142,
          143,
          144,
          145,
          146,
          147,
          148,
          149,
          150,
          151,
          152,
          153,
          154,
          155,
          156,
          157,
          158,
          159,
          160,
          161,
          162,
          163,
          164,
          165,
          166,
          167,
          168,
          169,
          170,
          171,
          172,
          173,
          174,
          175,
          176,
          177,
          178,
          179,
          180,
          181,
          182,
          183,
          184,
          185,
          186,
          187,
          188,
          189,
          190,
          191,
          192,
          193,
          194,
          195,
          196,
          197,
          198,
          199,
          200,
          201,
          202,
          203,
          204,
          205,
          206,
          207,
          208,
          209,
          210,
          211,
          212,
          213,
          214,
          215,
          216,
          217,
          218,
          219,
          220,
          221,
          222,
          223,
          224,
          225,
          226,
          227,
          228,
          229,
          230,
          231,
          232,
          233,
          234,
          235,
          236,
          237,
          238,
          239,
          240,
          241,
          242,
          243,
          244,
          245,
          246,
          247,
          248,
          249,
          250,
          251,
          252,
          253,
          254,
          255,
          256,
          257,
          258,
          259,
          260,
          261,
          262,
          263,
          264,
          265,
          266,
          267,
          268,
          269,
          270,
          271,
          272,
          273,
          274,
          275,
          276,
          277,
          278,
          279,
          280,
          281,
          282,
          283,
          284,
          285,
          286,
          287,
          288,
          289,
          290,
          291,
          292,
          293,
          294,
          295,
          296,
          297,
          298,
          299,
          300,
          301,
          302,
          303,
          304,
          305,
          306,
          307,
          308,
          309,
          310,
          311,
          312,
          313,
          314,
          315,
          316,
          317,
          318,
          319,
          320,
          321,
          322,
          323,
          324,
          325,
          326,
          327,
          328,
          329,
          330,
          331,
          332,
          333,
          334,
          335,
          336,
          337,
          338,
          339,
          340,
          341,
          342,
          343,
          344,
          345,
          346,
          347,
          348,
          349,
          350,
          351,
          352,
          353,
          354,
          355,
          356,
          357,
          358,
          359,
          360,
          361,
          362,
          363,
          364,
          365,
          366,
          367,
          368,
          369,
          370,
          371,
          372,
          373,
          374,
          375,
          376,
          377,
          378,
          379,
          380,
          381,
          382,
          383,
          384,
          385,
          386,
          387,
          388,
          389,
          390,
          391,
          392,
          393,
          394,
          395,
          396,
          397,
          398,
          399,
          400,
          401,
          402,
          403,
          404,
          405,
          406
        ],
        "AcquisitionTime": [
          "122851.757500",
          "122853.247500",
          "122854.737500",
          "122856.227500",
          "122857.717500",
          "122859.207500",
          "122900.697500",
          "122902.187500",
          "122903.677500",
          "122905.167500",
          "122906.657500",
          "122908.147500",
          "122909.637500",
          "122911.127500",
          "122912.617500",
          "122914.107500",
          "122915.597500",
          "122917.087500",
          "122918.577500",
          "122920.067500",
          "122921.557500",
          "122923.047500",
          "122924.537500",
          "122926.027500",
          "122927.517500",
          "122929.007500",
          "122930.497500",
          "122931.987500",
          "122933.477500",
          "122934.967500",
          "122936.457500",
          "122937.947500",
          "122939.437500",
          "122940.927500",
          "122942.417500",
          "122943.907500",
          "122945.397500",
          "122946.887500",
          "122948.377500",
          "122949.867500",
          "122951.357500",
          "122952.847500",
          "122954.337500",
          "122955.827500",
          "122957.317500",
          "122958.807500",
          "123000.297500",
          "123001.787500",
          "123003.277500",
          "123004.767500",
          "123006.257500",
          "123007.747500",
          "123009.237500",
          "123010.727500",
          "123012.217500",
          "123013.707500",
          "123015.197500",
          "123016.687500",
          "123018.177500",
          "123019.667500",
          "123021.157500",
          "123022.647500",
          "123024.137500",
          "123025.627500",
          "123027.117500",
          "123028.607500",
          "123030.097500",
          "123031.587500",
          "123033.077500",
          "123034.567500",
          "123036.057500",
          "123037.547500",
          "123039.037500",
          "123040.527500",
          "123042.017500",
          "123043.507500",
          "123044.997500",
          "123046.487500",
          "123047.977500",
          "123049.467500",
          "123050.957500",
          "123052.447500",
          "123053.937500",
          "123055.427500",
          "123056.917500",
          "123058.407500",
          "123059.897500",
          "123101.387500",
          "123102.877500",
          "123104.367500",
          "123105.857500",
          "123107.347500",
          "123108.837500",
          "123110.327500",
          "123111.817500",
          "123113.307500",
          "123114.797500",
          "123116.287500",
          "123117.777500",
          "123119.267500",
          "123120.757500",
          "123122.247500",
          "123123.737500",
          "123125.227500",
          "123126.717500",
          "123128.207500",
          "123129.697500",
          "123131.187500",
          "123132.677500",
          "123134.167500",
          "123135.657500",
          "123137.147500",
          "123138.637500",
          "123140.127500",
          "123141.617500",
          "123143.107500",
          "123144.597500",
          "123146.087500",
          "123147.577500",
          "123149.067500",
          "123150.557500",
          "123152.047500",
          "123153.537500",
          "123155.027500",
          "123156.517500",
          "123158.007500",
          "123159.497500",
          "123200.987500",
          "123202.477500",
          "123203.967500",
          "123205.457500",
          "123206.947500",
          "123208.437500",
          "123209.927500",
          "123211.417500",
          "123212.907500",
          "123214.397500",
          "123215.887500",
          "123217.377500",
          "123218.867500",
          "123220.357500",
          "123221.847500",
          "123223.337500",
          "123224.827500",
          "123226.317500",
          "123227.807500",
          "123229.297500",
          "123230.787500",
          "123232.277500",
          "123233.767500",
          "123235.257500",
          "123236.747500",
          "123238.237500",
          "123239.727500",
          "123241.217500",
          "123242.707500",
          "123244.197500",
          "123245.687500",
          "123247.177500",
          "123248.667500",
          "123250.157500",
          "123251.647500",
          "123253.137500",
          "123254.627500",
          "123256.117500",
          "123257.607500",
          "123259.097500",
          "123300.587500",
          "123302.077500",
          "123303.567500",
          "123305.057500",
          "123306.547500",
          "123308.037500",
          "123309.527500",
          "123311.017500",
          "123312.507500",
          "123313.997500",
          "123315.487500",
          "123316.977500",
          "123318.467500",
          "123319.957500",
          "123321.447500",
          "123322.937500",
          "123324.427500",
          "123325.917500",
          "123327.407500",
          "123328.897500",
          "123330.387500",
          "123331.877500",
          "123333.367500",
          "123334.857500",
          "123336.347500",
          "123337.837500",
          "123339.327500",
          "123340.817500",
          "123342.307500",
          "123343.797500",
          "123345.287500",
          "123346.777500",
          "123348.267500",
          "123349.757500",
          "123351.247500",
          "123352.737500",
          "123354.227500",
          "123355.717500",
          "123357.207500",
          "123358.697500",
          "123400.187500",
          "123401.677500",
          "123403.167500",
          "123404.657500",
          "123406.147500",
          "123407.637500",
          "123409.127500",
          "123410.617500",
          "123412.107500",
          "123413.597500",
          "123415.087500",
          "123416.577500",
          "123418.067500",
          "123419.557500",
          "123421.047500",
          "123422.537500",
          "123424.027500",
          "123425.517500",
          "123427.007500",
          "123428.497500",
          "123429.987500",
          "123431.477500",
          "123432.967500",
          "123434.457500",
          "123435.947500",
          "123437.437500",
          "123438.927500",
          "123440.417500",
          "123441.907500",
          "123443.397500",
          "123444.887500",
          "123446.377500",
          "123447.867500",
          "123449.357500",
          "123450.847500",
          "123452.337500",
          "123453.827500",
          "123455.317500",
          "123456.807500",
          "123458.297500",
          "123459.787500",
          "123501.277500",
          "123502.767500",
          "123504.257500",
          "123505.747500",
          "123507.237500",
          "123508.727500",
          "123510.217500",
          "123511.707500",
          "123513.197500",
          "123514.687500",
          "123516.177500",
          "123517.667500",
          "123519.157500",
          "123520.647500",
          "123522.137500",
          "123523.627500",
          "123525.117500",
          "123526.607500",
          "123528.097500",
          "123529.587500",
          "123531.077500",
          "123532.567500",
          "123534.057500",
          "123535.547500",
          "123537.037500",
          "123538.527500",
          "123540.017500",
          "123541.507500",
          "123542.997500",
          "123544.487500",
          "123545.977500",
          "123547.467500",
          "123548.957500",
          "123550.447500",
          "123551.937500",
          "123553.427500",
          "123554.917500",
          "123556.407500",
          "123557.897500",
          "123559.387500",
          "123600.877500",
          "123602.367500",
          "123603.857500",
          "123605.347500",
          "123606.837500",
          "123608.327500",
          "123609.817500",
          "123611.307500",
          "123612.797500",
          "123614.287500",
          "123615.777500",
          "123617.267500",
          "123618.757500",
          "123620.247500",
          "123621.737500",
          "123623.227500",
          "123624.717500",
          "123626.207500",
          "123627.697500",
          "123629.187500",
          "123630.677500",
          "123632.167500",
          "123633.657500",
          "123635.147500",
          "123636.637500",
          "123638.127500",
          "123639.617500",
          "123641.107500",
          "123642.597500",
          "123644.087500",
          "123645.577500",
          "123647.067500",
          "123648.557500",
          "123650.047500",
          "123651.537500",
          "123653.027500",
          "123654.517500",
          "123656.007500",
          "123657.497500",
          "123658.987500",
          "123700.477500",
          "123701.967500",
          "123703.457500",
          "123704.947500",
          "123706.437500",
          "123707.927500",
          "123709.417500",
          "123710.907500",
          "123712.397500",
          "123713.887500",
          "123715.377500",
          "123716.867500",
          "123718.357500",
          "123719.847500",
          "123721.337500",
          "123722.827500",
          "123724.317500",
          "123725.807500",
          "123727.297500",
          "123728.787500",
          "123730.277500",
          "123731.767500",
          "123733.257500",
          "123734.747500",
          "123736.237500",
          "123737.727500",
          "123739.217500",
          "123740.707500",
          "123742.197500",
          "123743.687500",
          "123745.177500",
          "123746.667500",
          "123748.157500",
          "123749.647500",
          "123751.137500",
          "123752.627500",
          "123754.117500",
          "123755.607500",
          "123757.097500",
          "123758.587500",
          "123800.077500",
          "123801.567500",
          "123803.057500",
          "123804.547500",
          "123806.037500",
          "123807.527500",
          "123809.017500",
          "123810.507500",
          "123811.997500",
          "123813.487500",
          "123814.977500",
          "123816.467500",
          "123817.957500",
          "123819.447500",
          "123820.937500",
          "123822.427500",
          "123823.917500",
          "123825.407500",
          "123826.897500",
          "123828.387500",
          "123829.877500",
          "123831.367500",
          "123832.857500",
          "123834.347500",
          "123835.837500",
          "123837.327500",
          "123838.817500",
          "123840.307500",
          "123841.797500",
          "123843.287500",
          "123844.777500",
          "123846.267500",
          "123847.757500",
          "123849.247500",
          "123850.737500",
          "123852.227500",
          "123853.717500",
          "123855.207500"
        ],
        "ContentTime": [
          "123013.008000",
          "123013.027000",
          "123013.030000",
          "123013.033000",
          "123013.036000",
          "123013.039000",
          "123013.042000",
          "123013.045000",
          "123013.053000",
          "123013.056000",
          "123013.059000",
          "123013.062000",
          "123013.065000",
          "123013.068000",
          "123013.071000",
          "123013.077000",
          "123013.080000",
          "123013.083000",
          "123013.086000",
          "123013.089000",
          "123013.092000",
          "123013.100000",
          "123013.103000",
          "123013.106000",
          "123013.109000",
          "123032.976000",
          "123032.979000",
          "123032.982000",
          "123032.985000",
          "123032.988000",
          "123032.991000",
          "123032.993000",
          "123032.996000",
          "123033.000000",
          "123033.003000",
          "123033.006000",
          "123033.009000",
          "123033.012000",
          "123033.015000",
          "123033.018000",
          "123033.027000",
          "123033.030000",
          "123033.033000",
          "123033.036000",
          "123033.039000",
          "123052.976000",
          "123052.979000",
          "123052.982000",
          "123052.985000",
          "123052.988000",
          "123052.991000",
          "123052.993000",
          "123052.996000",
          "123053.000000",
          "123053.003000",
          "123053.006000",
          "123053.009000",
          "123053.012000",
          "123053.015000",
          "123053.018000",
          "123053.021000",
          "123053.023000",
          "123053.026000",
          "123053.029000",
          "123053.032000",
          "123053.040000",
          "123112.975000",
          "123112.978000",
          "123112.981000",
          "123112.983000",
          "123112.989000",
          "123112.991000",
          "123112.994000",
          "123112.997000",
          "123113.001000",
          "123113.004000",
          "123113.007000",
          "123113.010000",
          "123113.013000",
          "123113.016000",
          "123113.019000",
          "123113.022000",
          "123113.024000",
          "123113.027000",
          "123113.030000",
          "123113.033000",
          "123132.975000",
          "123132.978000",
          "123132.981000",
          "123132.984000",
          "123132.987000",
          "123132.990000",
          "123132.993000",
          "123132.996000",
          "123133.000000",
          "123133.003000",
          "123133.005000",
          "123133.008000",
          "123133.011000",
          "123133.014000",
          "123133.017000",
          "123133.020000",
          "123133.023000",
          "123133.027000",
          "123133.030000",
          "123133.033000",
          "123212.976000",
          "123212.979000",
          "123212.982000",
          "123212.985000",
          "123212.988000",
          "123212.991000",
          "123212.994000",
          "123212.996000",
          "123213.000000",
          "123213.003000",
          "123213.006000",
          "123213.009000",
          "123213.012000",
          "123213.015000",
          "123213.022000",
          "123213.025000",
          "123213.028000",
          "123213.031000",
          "123213.034000",
          "123213.037000",
          "123213.040000",
          "123213.043000",
          "123213.046000",
          "123213.049000",
          "123213.051000",
          "123213.055000",
          "123213.057000",
          "123213.060000",
          "123252.976000",
          "123252.979000",
          "123252.982000",
          "123252.985000",
          "123252.988000",
          "123252.991000",
          "123252.993000",
          "123252.996000",
          "123253.000000",
          "123253.003000",
          "123253.006000",
          "123253.009000",
          "123253.012000",
          "123253.015000",
          "123253.018000",
          "123253.021000",
          "123253.024000",
          "123253.027000",
          "123253.030000",
          "123253.032000",
          "123253.035000",
          "123253.038000",
          "123253.042000",
          "123253.045000",
          "123253.048000",
          "123253.050000",
          "123253.053000",
          "123332.975000",
          "123332.978000",
          "123332.981000",
          "123332.984000",
          "123332.987000",
          "123332.990000",
          "123332.992000",
          "123332.995000",
          "123332.998000",
          "123333.002000",
          "123333.005000",
          "123333.008000",
          "123333.011000",
          "123333.014000",
          "123333.017000",
          "123333.020000",
          "123333.023000",
          "123333.026000",
          "123333.029000",
          "123333.032000",
          "123333.035000",
          "123333.038000",
          "123333.041000",
          "123333.044000",
          "123333.047000",
          "123333.050000",
          "123333.053000",
          "123412.976000",
          "123412.979000",
          "123412.982000",
          "123412.985000",
          "123412.988000",
          "123412.991000",
          "123412.993000",
          "123412.996000",
          "123413.000000",
          "123413.003000",
          "123413.006000",
          "123413.009000",
          "123413.012000",
          "123413.015000",
          "123413.018000",
          "123413.021000",
          "123413.024000",
          "123413.028000",
          "123413.031000",
          "123413.035000",
          "123413.038000",
          "123413.040000",
          "123413.043000",
          "123413.066000",
          "123413.069000",
          "123413.072000",
          "123452.976000",
          "123452.979000",
          "123452.982000",
          "123452.985000",
          "123452.988000",
          "123452.991000",
          "123452.994000",
          "123452.997000",
          "123453.001000",
          "123453.003000",
