{
  "aor": 0.00047037128712871287,
  "aqi": 0.0054952364603960396,
  "bids_meta": {
    "AcquisitionMatrixPE": 104,
    "AcquisitionNumber": 1,
    "AcquisitionTime": "13:21:35.520000",
    "BandwidthPerPixelPhaseEncode": 17.17,
    "BaseResolution": 104,
    "BodyPartExamined": "BRAIN",
    "CogAtlasID": "trm_4c898da401420",
    "ConsistencyInfo": "N4_VE11C_LATEST_20160120",
    "ConversionSoftware": "dcm2niix",
    "ConversionSoftwareVersion": "v1.0.20171215 (OpenJPEG build) GCC7.3.0",
    "DerivedVendorReportedEchoSpacing": 0.000560011,
    "DeviceSerialNumber": "167006",
    "DwellTime": 2.1e-06,
    "EchoTime": 0.037,
    "EchoTrainLength": 104,
    "EffectiveEchoSpacing": 0.000560011,
    "FlipAngle": 52,
    "ImageComments": "Unaliased_MB4_PE3_LB",
    "ImageOrientationPatientDICOM": [
      0.996697,
      0.0542154,
      -0.0604695,
      -0.0646281,
      0.980372,
      -0.186265
    ],
    "ImageType": [
      "ORIGINAL",
      "PRIMARY",
      "M",
      "MB",
      "ND",
      "MOSAIC"
    ],
    "InPlanePhaseEncodingDirectionDICOM": "COL",
    "InstitutionAddress": "Chemin_Queen-Mary_4565_Montreal_District_CA_H3W_1W5",
    "InstitutionName": "IUGM",
    "InstitutionalDepartmentName": "Department",
    "MRAcquisitionType": "2D",
    "MagneticFieldStrength": 3,
    "Manufacturer": "Siemens",
    "ManufacturersModelName": "Prisma_fit",
    "Modality": "MR",
    "MultibandAccelerationFactor": 4,
    "PartialFourier": 1,
    "PatientPosition": "HFS",
    "PercentPhaseFOV": 100,
    "PhaseEncodingDirection": "j-",
    "PhaseEncodingSteps": 104,
    "PhaseResolution": 1,
    "PixelBandwidth": 2290,
    "ProcedureStepDescription": "video5_generic",
    "ProtocolName": "func_task-wolf9",
    "PulseSequenceDetails": "%CustomerSeq%_cmrr_mbep2d_bold",
    "ReceiveCoilActiveElements": "HC1-7;NC1,2",
    "ReceiveCoilName": "HeadNeck_64",
    "ReconMatrixPE": 104,
    "RepetitionTime": 1.49,
    "SAR": 0.0325139,
    "ScanOptions": "FS",
    "ScanningSequence": "EP",
    "SequenceName": "epfid2d1_104",
    "SequenceVariant": "SK_SS",
    "SeriesDescription": "func_task-wolf9",
    "SeriesNumber": 23,
    "ShimSetting": [
      621,
      -7220,
      -8911,
      569,
      19,
      -242,
      -60,
      46
    ],
    "SliceThickness": 2,
    "SliceTiming": [
      0,
      0.7825,
      0.0975,
      0.8825,
      0.195,
      0.98,
      0.2925,
      1.0775,
      0.3925,
      1.175,
      0.49,
      1.2725,
      0.5875,
      1.3725,
      0.685,
      0,
      0.7825,
      0.0975,
      0.8825,
      0.195,
      0.98,
      0.2925,
      1.0775,
      0.3925,
      1.175,
      0.49,
      1.2725,
      0.5875,
      1.3725,
      0.685,
      0,
      0.7825,
      0.0975,
      0.8825,
      0.195,
      0.98,
      0.2925,
      1.0775,
      0.3925,
      1.175,
      0.49,
      1.2725,
      0.5875,
      1.3725,
      0.685,
      0,
      0.7825,
      0.0975,
      0.8825,
      0.195,
      0.98,
      0.2925,
      1.0775,
      0.3925,
      1.175,
      0.49,
      1.2725,
      0.5875,
      1.3725,
      0.685
    ],
    "SoftwareVersions": "syngo_MR_E11",
    "SpacingBetweenSlices": 2,
    "StationName": "MRC35049",
    "TaskName": "wolf09",
    "TotalReadoutTime": 0.0576811,
    "TxRefAmp": 221.702,
    "dataset": "<unset>",
    "dcmmeta_affine": [
      [
        -1.9933931827545166,
        -0.1292562484741211,
        -0.09836824238300323,
        110.60767364501953
      ],
      [
        -0.10843082517385483,
        1.9607430696487427,
        -0.3791164457798004,
        -67.9566421508789
      ],
      [
        -0.12093900889158249,
        0.372530996799469,
        1.9612736701965332,
        -68.69572448730469
      ],
      [
        0.0,
        0.0,
        0.0,
        1.0
      ]
    ],
    "dcmmeta_reorient_transform": [
      [
        0.0,
        -1.0,
        0.0,
        103.0
      ],
      [
        1.0,
        0.0,
        0.0,
        0.0
      ],
      [
        0.0,
        0.0,
        1.0,
        0.0
      ],
      [
        0.0,
        0.0,
        0.0,
        1.0
      ]
    ],
    "dcmmeta_shape": [
      104,
      104,
      60,
      406
    ],
    "dcmmeta_slice_dim": 2,
    "dcmmeta_version": 0.6,
    "global": {
      "const": {
        "AcquisitionMatrix": [
          104,
          0,
          0,
          104
        ],
        "AngioFlag": "N",
        "BitsAllocated": 16,
        "BitsStored": 16,
        "BodyPartExamined": "BRAIN",
        "Columns": 832,
        "EchoNumbers": 1,
        "EchoTime": 37.0,
        "EchoTrainLength": 104,
        "FlipAngle": 52.0,
        "HighBit": 15,
        "ImageOrientationPatient": [
          0.99669660784156,
          0.0542154123843,
          -0.0604695045219,
          -0.0646281222697,
          0.98037154635747,
          -0.1862655011121
        ],
        "ImagePositionPatient": [
          -775.84013794548,
          -887.17920077789,
          149.29805105467
        ],
        "ImageType": [
          "ORIGINAL",
          "PRIMARY",
          "M",
          "MB",
          "ND",
          "MOSAIC"
        ],
        "ImagedNucleus": "1H",
        "ImagingFrequency": 123.259287,
        "InPlanePhaseEncodingDirection": "COL",
        "MRAcquisitionType": "2D",
        "MagneticFieldStrength": 3.0,
        "Manufacturer": "SIEMENS",
        "ManufacturerModelName": "Prisma_fit",
        "Modality": "MR",
        "NumberOfAverages": 1.0,
        "NumberOfPhaseEncodingSteps": 104,
        "PercentPhaseFieldOfView": 100.0,
        "PercentSampling": 100.0,
        "PerformedProcedureStepStartTime": "120602.406000",
        "PhotometricInterpretation": "MONOCHROME2",
        "PixelBandwidth": 2290.0,
        "PixelRepresentation": 0,
        "PixelSpacing": [
          2.0,
          2.0
        ],
        "ProtocolName": "func_task-wolf9",
        "RepetitionTime": 1490.0,
        "Rows": 832,
        "SAR": 0.03251387268401,
        "SamplesPerPixel": 1,
        "ScanOptions": "FS",
        "ScanningSequence": "EP",
        "SequenceName": "epfid2d1_104",
        "SequenceVariant": [
          "SK",
          "SS"
        ],
        "SeriesDescription": "func_task-wolf9",
        "SeriesNumber": 23,
        "SeriesTime": "132302.854000",
        "SliceLocation": -59.923960090711,
        "SliceThickness": 2.0,
        "SmallestImagePixelValue": 0,
        "SoftwareVersions": "syngo MR E11",
        "SpacingBetweenSlices": 1.9999999826774,
        "SpecificCharacterSet": "ISO_IR 100",
        "StudyID": "1",
        "StudyTime": "120602.257000",
        "TransmitCoilName": "Body",
        "VariableFlipAngleFlag": "N",
        "WindowCenterWidthExplanation": "Algo1",
        "dBdt": 0.0
      },
      "slices": {}
    },
    "modality": "bold",
    "session_id": "002",
    "subject_id": "04",
    "task_id": "wolf09",
    "time": {
      "samples": {
        "AcquisitionNumber": [
          1,
          2,
          3,
          4,
          5,
          6,
          7,
          8,
          9,
          10,
          11,
          12,
          13,
          14,
          15,
          16,
          17,
          18,
          19,
          20,
          21,
          22,
          23,
          24,
          25,
          26,
          27,
          28,
          29,
          30,
          31,
          32,
          33,
          34,
          35,
          36,
          37,
          38,
          39,
          40,
          41,
          42,
          43,
          44,
          45,
          46,
          47,
          48,
          49,
          50,
          51,
          52,
          53,
          54,
          55,
          56,
          57,
          58,
          59,
          60,
          61,
          62,
          63,
          64,
          65,
          66,
          67,
          68,
          69,
          70,
          71,
          72,
          73,
          74,
          75,
          76,
          77,
          78,
          79,
          80,
          81,
          82,
          83,
          84,
          85,
          86,
          87,
          88,
          89,
          90,
          91,
          92,
          93,
          94,
          95,
          96,
          97,
          98,
          99,
          100,
          101,
          102,
          103,
          104,
          105,
          106,
          107,
          108,
          109,
          110,
          111,
          112,
          113,
          114,
          115,
          116,
          117,
          118,
          119,
          120,
          121,
          122,
          123,
          124,
          125,
          126,
          127,
          128,
          129,
          130,
          131,
          132,
          133,
          134,
          135,
          136,
          137,
          138,
          139,
          140,
          141,
          142,
          143,
          144,
          145,
          146,
          147,
          148,
          149,
          150,
          151,
          152,
          153,
          154,
          155,
          156,
          157,
          158,
          159,
          160,
          161,
          162,
          163,
          164,
          165,
          166,
          167,
          168,
          169,
          170,
          171,
          172,
          173,
          174,
          175,
          176,
          177,
          178,
          179,
          180,
          181,
          182,
          183,
          184,
          185,
          186,
          187,
          188,
          189,
          190,
          191,
          192,
          193,
          194,
          195,
          196,
          197,
          198,
          199,
          200,
          201,
          202,
          203,
          204,
          205,
          206,
          207,
          208,
          209,
          210,
          211,
          212,
          213,
          214,
          215,
          216,
          217,
          218,
          219,
          220,
          221,
          222,
          223,
          224,
          225,
          226,
          227,
          228,
          229,
          230,
          231,
          232,
          233,
          234,
          235,
          236,
          237,
          238,
          239,
          240,
          241,
          242,
          243,
          244,
          245,
          246,
          247,
          248,
          249,
          250,
          251,
          252,
          253,
          254,
          255,
          256,
          257,
          258,
          259,
          260,
          261,
          262,
          263,
          264,
          265,
          266,
          267,
          268,
          269,
          270,
          271,
          272,
          273,
          274,
          275,
          276,
          277,
          278,
          279,
          280,
          281,
          282,
          283,
          284,
          285,
          286,
          287,
          288,
          289,
          290,
          291,
          292,
          293,
          294,
          295,
          296,
          297,
          298,
          299,
          300,
          301,
          302,
          303,
          304,
          305,
          306,
          307,
          308,
          309,
          310,
          311,
          312,
          313,
          314,
          315,
          316,
          317,
          318,
          319,
          320,
          321,
          322,
          323,
          324,
          325,
          326,
          327,
          328,
          329,
          330,
          331,
          332,
          333,
          334,
          335,
          336,
          337,
          338,
          339,
          340,
          341,
          342,
          343,
          344,
          345,
          346,
          347,
          348,
          349,
          350,
          351,
          352,
          353,
          354,
          355,
          356,
          357,
          358,
          359,
          360,
          361,
          362,
          363,
          364,
          365,
          366,
          367,
          368,
          369,
          370,
          371,
          372,
          373,
          374,
          375,
          376,
          377,
          378,
          379,
          380,
          381,
          382,
          383,
          384,
          385,
          386,
          387,
          388,
          389,
          390,
          391,
          392,
          393,
          394,
          395,
          396,
          397,
          398,
          399,
          400,
          401,
          402,
          403,
          404,
          405,
          406
        ],
        "AcquisitionTime": [
          "132135.520000",
          "132137.010000",
          "132138.500000",
          "132139.990000",
          "132141.480000",
          "132142.970000",
          "132144.460000",
          "132145.950000",
          "132147.440000",
          "132148.930000",
          "132150.420000",
          "132151.910000",
          "132153.400000",
          "132154.890000",
          "132156.380000",
          "132157.870000",
          "132159.360000",
          "132200.850000",
          "132202.340000",
          "132203.830000",
          "132205.320000",
          "132206.810000",
          "132208.300000",
          "132209.790000",
          "132211.280000",
          "132212.770000",
          "132214.260000",
          "132215.750000",
          "132217.240000",
          "132218.730000",
          "132220.220000",
          "132221.710000",
          "132223.200000",
          "132224.690000",
          "132226.180000",
          "132227.670000",
          "132229.160000",
          "132230.650000",
          "132232.140000",
          "132233.630000",
          "132235.120000",
          "132236.610000",
          "132238.100000",
          "132239.590000",
          "132241.080000",
          "132242.570000",
          "132244.060000",
          "132245.550000",
          "132247.040000",
          "132248.530000",
          "132250.020000",
          "132251.510000",
          "132253.000000",
          "132254.490000",
          "132255.980000",
          "132257.470000",
          "132258.960000",
          "132300.450000",
          "132301.940000",
          "132303.430000",
          "132304.920000",
          "132306.410000",
          "132307.900000",
          "132309.390000",
          "132310.880000",
          "132312.370000",
          "132313.860000",
          "132315.350000",
          "132316.840000",
          "132318.330000",
          "132319.820000",
          "132321.310000",
          "132322.800000",
          "132324.290000",
          "132325.780000",
          "132327.270000",
          "132328.760000",
          "132330.250000",
          "132331.740000",
          "132333.230000",
          "132334.720000",
          "132336.210000",
          "132337.700000",
          "132339.190000",
          "132340.680000",
          "132342.170000",
          "132343.660000",
          "132345.150000",
          "132346.640000",
          "132348.130000",
          "132349.620000",
          "132351.110000",
          "132352.600000",
          "132354.090000",
          "132355.580000",
          "132357.070000",
          "132358.560000",
          "132400.050000",
          "132401.540000",
          "132403.030000",
          "132404.520000",
          "132406.010000",
          "132407.500000",
          "132408.990000",
          "132410.480000",
          "132411.970000",
          "132413.460000",
          "132414.950000",
          "132416.440000",
          "132417.930000",
          "132419.420000",
          "132420.910000",
          "132422.400000",
          "132423.890000",
          "132425.380000",
          "132426.870000",
          "132428.360000",
          "132429.850000",
          "132431.340000",
          "132432.830000",
          "132434.320000",
          "132435.810000",
          "132437.300000",
          "132438.790000",
          "132440.280000",
          "132441.770000",
          "132443.260000",
          "132444.750000",
          "132446.240000",
          "132447.730000",
          "132449.220000",
          "132450.710000",
          "132452.200000",
          "132453.690000",
          "132455.180000",
          "132456.670000",
          "132458.160000",
          "132459.650000",
          "132501.140000",
          "132502.630000",
          "132504.120000",
          "132505.610000",
          "132507.100000",
          "132508.590000",
          "132510.080000",
          "132511.570000",
          "132513.060000",
          "132514.550000",
          "132516.040000",
          "132517.530000",
          "132519.020000",
          "132520.510000",
          "132522.000000",
          "132523.490000",
          "132524.980000",
          "132526.470000",
          "132527.960000",
          "132529.450000",
          "132530.940000",
          "132532.430000",
          "132533.920000",
          "132535.410000",
          "132536.900000",
          "132538.390000",
          "132539.880000",
          "132541.370000",
          "132542.860000",
          "132544.350000",
          "132545.840000",
          "132547.330000",
          "132548.820000",
          "132550.310000",
          "132551.800000",
          "132553.290000",
          "132554.780000",
          "132556.270000",
          "132557.760000",
          "132559.250000",
          "132600.740000",
          "132602.230000",
          "132603.720000",
          "132605.210000",
          "132606.700000",
          "132608.190000",
          "132609.680000",
          "132611.170000",
          "132612.660000",
          "132614.150000",
          "132615.640000",
          "132617.130000",
          "132618.620000",
          "132620.110000",
          "132621.600000",
          "132623.090000",
          "132624.580000",
          "132626.070000",
          "132627.560000",
          "132629.050000",
          "132630.540000",
          "132632.030000",
          "132633.520000",
          "132635.010000",
          "132636.500000",
          "132637.990000",
          "132639.480000",
          "132640.970000",
          "132642.460000",
          "132643.950000",
          "132645.440000",
          "132646.930000",
          "132648.420000",
          "132649.910000",
          "132651.400000",
          "132652.890000",
          "132654.380000",
          "132655.870000",
          "132657.360000",
          "132658.850000",
          "132700.340000",
          "132701.830000",
          "132703.320000",
          "132704.810000",
          "132706.300000",
          "132707.790000",
          "132709.280000",
          "132710.770000",
          "132712.260000",
          "132713.750000",
          "132715.240000",
          "132716.730000",
          "132718.220000",
          "132719.710000",
          "132721.200000",
          "132722.690000",
          "132724.180000",
          "132725.670000",
          "132727.160000",
          "132728.650000",
          "132730.140000",
          "132731.630000",
          "132733.120000",
          "132734.610000",
          "132736.100000",
          "132737.590000",
          "132739.080000",
          "132740.570000",
          "132742.060000",
          "132743.550000",
          "132745.040000",
          "132746.530000",
          "132748.020000",
          "132749.510000",
          "132751.000000",
          "132752.490000",
          "132753.980000",
          "132755.470000",
          "132756.960000",
          "132758.450000",
          "132759.940000",
          "132801.430000",
          "132802.920000",
          "132804.410000",
          "132805.900000",
          "132807.390000",
          "132808.880000",
          "132810.370000",
          "132811.860000",
          "132813.350000",
          "132814.840000",
          "132816.330000",
          "132817.820000",
          "132819.310000",
          "132820.800000",
          "132822.290000",
          "132823.780000",
          "132825.270000",
          "132826.760000",
          "132828.250000",
          "132829.740000",
          "132831.230000",
          "132832.720000",
          "132834.210000",
          "132835.700000",
          "132837.190000",
          "132838.680000",
          "132840.170000",
          "132841.660000",
          "132843.150000",
          "132844.640000",
          "132846.130000",
          "132847.620000",
          "132849.110000",
          "132850.600000",
          "132852.090000",
          "132853.580000",
          "132855.070000",
          "132856.560000",
          "132858.050000",
          "132859.540000",
          "132901.030000",
          "132902.520000",
          "132904.010000",
          "132905.500000",
          "132906.990000",
          "132908.480000",
          "132909.970000",
          "132911.460000",
          "132912.950000",
          "132914.440000",
          "132915.930000",
          "132917.420000",
          "132918.910000",
          "132920.400000",
          "132921.890000",
          "132923.380000",
          "132924.870000",
          "132926.360000",
          "132927.850000",
          "132929.340000",
          "132930.830000",
          "132932.320000",
          "132933.810000",
          "132935.300000",
          "132936.790000",
          "132938.280000",
          "132939.770000",
          "132941.260000",
          "132942.750000",
          "132944.240000",
          "132945.730000",
          "132947.220000",
          "132948.710000",
          "132950.200000",
          "132951.690000",
          "132953.180000",
          "132954.670000",
          "132956.160000",
          "132957.650000",
          "132959.140000",
          "133000.630000",
          "133002.120000",
          "133003.610000",
          "133005.100000",
          "133006.590000",
          "133008.080000",
          "133009.570000",
          "133011.060000",
          "133012.550000",
          "133014.040000",
          "133015.530000",
          "133017.020000",
          "133018.510000",
          "133020.000000",
          "133021.490000",
          "133022.980000",
          "133024.470000",
          "133025.960000",
          "133027.450000",
          "133028.940000",
          "133030.430000",
          "133031.920000",
          "133033.410000",
          "133034.900000",
          "133036.390000",
          "133037.880000",
          "133039.370000",
          "133040.860000",
          "133042.350000",
          "133043.840000",
          "133045.330000",
          "133046.820000",
          "133048.310000",
          "133049.800000",
          "133051.290000",
          "133052.780000",
          "133054.270000",
          "133055.760000",
          "133057.250000",
          "133058.740000",
          "133100.230000",
          "133101.720000",
          "133103.210000",
          "133104.700000",
          "133106.190000",
          "133107.680000",
          "133109.170000",
          "133110.660000",
          "133112.150000",
          "133113.640000",
          "133115.130000",
          "133116.620000",
          "133118.110000",
          "133119.600000",
          "133121.090000",
          "133122.580000",
          "133124.070000",
          "133125.560000",
          "133127.050000",
          "133128.540000",
          "133130.030000",
          "133131.520000",
          "133133.010000",
          "133134.500000",
          "133135.990000",
          "133137.480000",
          "133138.970000"
        ],
        "ContentTime": [
          "132302.856000",
          "132302.860000",
          "132302.863000",
          "132302.866000",
          "132302.869000",
          "132302.872000",
          "132302.874000",
          "132302.877000",
          "132302.880000",
          "132302.883000",
          "132302.886000",
          "132302.889000",
          "132302.892000",
          "132302.895000",
          "132302.898000",
          "132302.901000",
          "132302.904000",
          "132302.907000",
          "132302.910000",
          "132302.916000",
          "132302.920000",
          "132302.922000",
          "132302.925000",
          "132302.928000",
          "132302.931000",
          "132302.934000",
          "132302.937000",
          "132302.940000",
          "132302.943000",
          "132302.946000",
          "132302.949000",
          "132302.951000",
          "132322.814000",
          "132322.817000",
          "132322.820000",
          "132322.823000",
          "132322.826000",
          "132322.829000",
          "132322.856000",
          "132322.859000",
          "132322.862000",
          "132322.865000",
          "132322.868000",
          "132322.871000",
          "132322.874000",
          "132322.877000",
          "132322.879000",
          "132322.882000",
          "132322.885000",
          "132322.888000",
          "132322.891000",
          "132322.894000",
          "132322.897000",
          "132342.815000",
          "132342.818000",
          "132342.821000",
          "132342.824000",
          "132342.827000",
          "132342.830000",
          "132342.832000",
          "132342.835000",
          "132342.838000",
          "132342.841000",
          "132342.844000",
          "132342.847000",
          "132342.850000",
          "132342.853000",
          "132342.856000",
          "132342.859000",
          "132342.862000",
          "132342.864000",
          "132342.867000",
          "132342.870000",
          "132402.815000",
          "132402.818000",
          "132402.821000",
          "132402.824000",
          "132402.827000",
          "132402.830000",
          "132402.833000",
          "132402.835000",
          "132402.839000",
          "132402.841000",
          "132402.844000",
          "132402.847000",
          "132402.850000",
          "132402.853000",
          "132402.856000",
          "132402.859000",
          "132402.862000",
          "132402.865000",
          "132402.868000",
          "132402.871000",
          "132442.815000",
          "132442.818000",
          "132442.821000",
          "132442.824000",
          "132442.827000",
          "132442.830000",
          "132442.833000",
          "132442.835000",
          "132442.839000",
          "132442.841000",
          "132442.844000",
          "132442.847000",
          "132442.850000",
          "132442.853000",
          "132442.856000",
          "132442.859000",
          "132442.862000",
          "132442.865000",
          "132442.868000",
          "132442.871000",
          "132442.874000",
          "132442.877000",
          "132442.879000",
          "132442.882000",
          "132442.885000",
          "132442.888000",
          "132442.891000",
          "132442.894000",
          "132442.897000",
          "132442.900000",
          "132442.903000",
          "132442.906000",
          "132522.814000",
          "132522.817000",
          "132522.820000",
          "132522.823000",
          "132522.826000",
          "132522.829000",
          "132522.832000",
          "132522.835000",
          "132522.838000",
          "132522.841000",
          "132522.843000",
          "132522.846000",
          "132522.849000",
          "132522.852000",
          "132522.855000",
          "132522.858000",
          "132522.861000",
          "132522.864000",
          "132522.867000",
          "132522.870000",
          "132522.873000",
          "132522.876000",
          "132522.879000",
          "132522.882000",
          "132522.885000",
          "132522.888000",
          "132602.815000",
          "132602.818000",
          "132602.821000",
          "132602.824000",
          "132602.827000",
          "132602.830000",
          "132602.833000",
          "132602.836000",
          "132602.839000",
          "132602.842000",
          "132602.845000",
          "132602.848000",
          "132602.851000",
          "132602.853000",
          "132602.856000",
          "132602.859000",
          "132602.862000",
          "132602.865000",
          "132602.868000",
          "132602.871000",
          "132602.874000",
          "132602.877000",
          "132602.880000",
          "132602.883000",
          "132602.886000",
          "132602.889000",
          "132602.891000",
          "132642.815000",
          "132642.818000",
          "132642.821000",
          "132642.824000",
          "132642.827000",
          "132642.830000",
          "132642.833000",
          "132642.836000",
          "132642.839000",
          "132642.842000",
          "132642.845000",
          "132642.848000",
          "132642.851000",
          "132642.854000",
          "132642.857000",
          "132642.860000",
          "132642.862000",
          "132642.865000",
          "132642.868000",
          "132642.871000",
          "132642.874000",
          "132642.877000",
          "132642.880000",
          "132642.883000",
          "132642.886000",
          "132642.889000",
          "132642.892000",
          "132722.814000",
          "132722.817000",
          "132722.820000",
          "132722.823000",
          "132722.826000",
          "132722.829000",
          "132722.832000",
          "132722.835000",
          "132722.838000",
          "132722.849000",
          "132722.852000",
          "132722.855000",
          "132722.858000",
          "132722.861000",
          "132722.864000",
          "132722.867000",
          "132722.870000",
          "132722.875000",
