{
  "aor": 0.00031906172839506176,
  "aqi": 0.00509240437037037,
  "bids_meta": {
    "AcquisitionMatrixPE": 104,
    "AcquisitionNumber": 1,
    "AcquisitionTime": "12:49:51.772500",
    "BandwidthPerPixelPhaseEncode": 17.17,
    "BaseResolution": 104,
    "BodyPartExamined": "BRAIN",
    "CogAtlasID": "trm_4c898da401420",
    "ConsistencyInfo": "N4_VE11C_LATEST_20160120",
    "ConversionSoftware": "dcm2niix",
    "ConversionSoftwareVersion": "v1.0.20171215 (OpenJPEG build) GCC7.3.0",
    "DerivedVendorReportedEchoSpacing": 0.000560011,
    "DeviceSerialNumber": "167006",
    "DwellTime": 2.1e-06,
    "EchoTime": 0.037,
    "EchoTrainLength": 104,
    "EffectiveEchoSpacing": 0.000560011,
    "FlipAngle": 52,
    "ImageComments": "Unaliased_MB4_PE3_LB",
    "ImageOrientationPatientDICOM": [
      0.996374,
      0.0522709,
      -0.0671311,
      -0.0621628,
      0.98597,
      -0.154918
    ],
    "ImageType": [
      "ORIGINAL",
      "PRIMARY",
      "M",
      "MB",
      "ND",
      "MOSAIC"
    ],
    "InPlanePhaseEncodingDirectionDICOM": "COL",
    "InstitutionAddress": "Chemin_Queen-Mary_4565_Montreal_District_CA_H3W_1W5",
    "InstitutionName": "IUGM",
    "InstitutionalDepartmentName": "Department",
    "MRAcquisitionType": "2D",
    "MagneticFieldStrength": 3,
    "Manufacturer": "Siemens",
    "ManufacturersModelName": "Prisma_fit",
    "Modality": "MR",
    "MultibandAccelerationFactor": 4,
    "PartialFourier": 1,
    "PatientPosition": "HFS",
    "PercentPhaseFOV": 100,
    "PhaseEncodingDirection": "j-",
    "PhaseEncodingSteps": 104,
    "PhaseResolution": 1,
    "PixelBandwidth": 2290,
    "ProcedureStepDescription": "video5_generic",
    "ProtocolName": "func_task-wolf7",
    "PulseSequenceDetails": "%CustomerSeq%_cmrr_mbep2d_bold",
    "ReceiveCoilActiveElements": "HC1-7;NC1,2",
    "ReceiveCoilName": "HeadNeck_64",
    "ReconMatrixPE": 104,
    "RepetitionTime": 1.49,
    "SAR": 0.0309499,
    "ScanOptions": "FS",
    "ScanningSequence": "EP",
    "SequenceName": "epfid2d1_104",
    "SequenceVariant": "SK_SS",
    "SeriesDescription": "func_task-wolf7",
    "SeriesNumber": 13,
    "ShimSetting": [
      605,
      -7219,
      -8895,
      616,
      -28,
      -246,
      49,
      34
    ],
    "SliceThickness": 2,
    "SliceTiming": [
      0,
      0.785,
      0.0975,
      0.8825,
      0.1975,
      0.98,
      0.295,
      1.0775,
      0.3925,
      1.1775,
      0.49,
      1.275,
      0.5875,
      1.3725,
      0.6875,
      0,
      0.785,
      0.0975,
      0.8825,
      0.1975,
      0.98,
      0.295,
      1.0775,
      0.3925,
      1.1775,
      0.49,
      1.275,
      0.5875,
      1.3725,
      0.6875,
      0,
      0.785,
      0.0975,
      0.8825,
      0.1975,
      0.98,
      0.295,
      1.0775,
      0.3925,
      1.1775,
      0.49,
      1.275,
      0.5875,
      1.3725,
      0.6875,
      0,
      0.785,
      0.0975,
      0.8825,
      0.1975,
      0.98,
      0.295,
      1.0775,
      0.3925,
      1.1775,
      0.49,
      1.275,
      0.5875,
      1.3725,
      0.6875
    ],
    "SoftwareVersions": "syngo_MR_E11",
    "SpacingBetweenSlices": 2,
    "StationName": "MRC35049",
    "TaskName": "wolf07",
    "TotalReadoutTime": 0.0576811,
    "TxRefAmp": 218.34,
    "dataset": "<unset>",
    "dcmmeta_affine": [
      [
        -1.9927480220794678,
        -0.12432550638914108,
        -0.11618298292160034,
        110.63610076904297
      ],
      [
        -0.10454180091619492,
        1.9719393253326416,
        -0.31705912947654724,
        -70.22068786621094
      ],
      [
        -0.13426215946674347,
        0.3098364770412445,
        1.971287727355957,
        -64.93930053710938
      ],
      [
        0.0,
        0.0,
        0.0,
        1.0
      ]
    ],
    "dcmmeta_reorient_transform": [
      [
        0.0,
        -1.0,
        0.0,
        103.0
      ],
      [
        1.0,
        0.0,
        0.0,
        0.0
      ],
      [
        0.0,
        0.0,
        1.0,
        0.0
      ],
      [
        0.0,
        0.0,
        0.0,
        1.0
      ]
    ],
    "dcmmeta_shape": [
      104,
      104,
      60,
      406
    ],
    "dcmmeta_slice_dim": 2,
    "dcmmeta_version": 0.6,
    "global": {
      "const": {
        "AcquisitionMatrix": [
          104,
          0,
          0,
          104
        ],
        "AngioFlag": "N",
        "BitsAllocated": 16,
        "BitsStored": 16,
        "BodyPartExamined": "BRAIN",
        "Columns": 832,
        "EchoNumbers": 1,
        "EchoTime": 37.0,
        "EchoTrainLength": 104,
        "FlipAngle": 52.0,
        "HighBit": 15,
        "ImageOrientationPatient": [
          0.99637401160754,
          0.05227090114872,
          -0.0671310798826,
          -0.0621627516318,
          0.98596964044058,
          -0.1549182379162
        ],
        "ImagePositionPatient": [
          -777.93636821152,
          -888.72817512744,
          128.62575826913
        ],
        "ImageType": [
          "ORIGINAL",
          "PRIMARY",
          "M",
          "MB",
          "ND",
          "MOSAIC"
        ],
        "ImagedNucleus": "1H",
        "ImagingFrequency": 123.259278,
        "InPlanePhaseEncodingDirection": "COL",
        "MRAcquisitionType": "2D",
        "MagneticFieldStrength": 3.0,
        "Manufacturer": "SIEMENS",
        "ManufacturerModelName": "Prisma_fit",
        "Modality": "MR",
        "NumberOfAverages": 1.0,
        "NumberOfPhaseEncodingSteps": 104,
        "PercentPhaseFieldOfView": 100.0,
        "PercentSampling": 100.0,
        "PerformedProcedureStepStartTime": "120602.406000",
        "PhotometricInterpretation": "MONOCHROME2",
        "PixelBandwidth": 2290.0,
        "PixelRepresentation": 0,
        "PixelSpacing": [
          2.0,
          2.0
        ],
        "ProtocolName": "func_task-wolf7",
        "RepetitionTime": 1490.0,
        "Rows": 832,
        "SAR": 0.03094993005093,
        "SamplesPerPixel": 1,
        "ScanOptions": "FS",
        "ScanningSequence": "EP",
        "SequenceName": "epfid2d1_104",
        "SequenceVariant": [
          "SK",
          "SS"
        ],
        "SeriesDescription": "func_task-wolf7",
        "SeriesNumber": 13,
        "SeriesTime": "125110.965000",
        "SliceLocation": -59.301984003971,
        "SliceThickness": 2.0,
        "SmallestImagePixelValue": 0,
        "SoftwareVersions": "syngo MR E11",
        "SpacingBetweenSlices": 2.0000000202449,
        "SpecificCharacterSet": "ISO_IR 100",
        "StudyID": "1",
        "StudyTime": "120602.257000",
        "TransmitCoilName": "Body",
        "VariableFlipAngleFlag": "N",
        "WindowCenterWidthExplanation": "Algo1",
        "dBdt": 0.0
      },
      "slices": {}
    },
    "modality": "bold",
    "session_id": "002",
    "subject_id": "04",
    "task_id": "wolf07",
    "time": {
      "samples": {
        "AcquisitionNumber": [
          1,
          2,
          3,
          4,
          5,
          6,
          7,
          8,
          9,
          10,
          11,
          12,
          13,
          14,
          15,
          16,
          17,
          18,
          19,
          20,
          21,
          22,
          23,
          24,
          25,
          26,
          27,
          28,
          29,
          30,
          31,
          32,
          33,
          34,
          35,
          36,
          37,
          38,
          39,
          40,
          41,
          42,
          43,
          44,
          45,
          46,
          47,
          48,
          49,
          50,
          51,
          52,
          53,
          54,
          55,
          56,
          57,
          58,
          59,
          60,
          61,
          62,
          63,
          64,
          65,
          66,
          67,
          68,
          69,
          70,
          71,
          72,
          73,
          74,
          75,
          76,
          77,
          78,
          79,
          80,
          81,
          82,
          83,
          84,
          85,
          86,
          87,
          88,
          89,
          90,
          91,
          92,
          93,
          94,
          95,
          96,
          97,
          98,
          99,
          100,
          101,
          102,
          103,
          104,
          105,
          106,
          107,
          108,
          109,
          110,
          111,
          112,
          113,
          114,
          115,
          116,
          117,
          118,
          119,
          120,
          121,
          122,
          123,
          124,
          125,
          126,
          127,
          128,
          129,
          130,
          131,
          132,
          133,
          134,
          135,
          136,
          137,
          138,
          139,
          140,
          141,
          142,
          143,
          144,
          145,
          146,
          147,
          148,
          149,
          150,
          151,
          152,
          153,
          154,
          155,
          156,
          157,
          158,
          159,
          160,
          161,
          162,
          163,
          164,
          165,
          166,
          167,
          168,
          169,
          170,
          171,
          172,
          173,
          174,
          175,
          176,
          177,
          178,
          179,
          180,
          181,
          182,
          183,
          184,
          185,
          186,
          187,
          188,
          189,
          190,
          191,
          192,
          193,
          194,
          195,
          196,
          197,
          198,
          199,
          200,
          201,
          202,
          203,
          204,
          205,
          206,
          207,
          208,
          209,
          210,
          211,
          212,
          213,
          214,
          215,
          216,
          217,
          218,
          219,
          220,
          221,
          222,
          223,
          224,
          225,
          226,
          227,
          228,
          229,
          230,
          231,
          232,
          233,
          234,
          235,
          236,
          237,
          238,
          239,
          240,
          241,
          242,
          243,
          244,
          245,
          246,
          247,
          248,
          249,
          250,
          251,
          252,
          253,
          254,
          255,
          256,
          257,
          258,
          259,
          260,
          261,
          262,
          263,
          264,
          265,
          266,
          267,
          268,
          269,
          270,
          271,
          272,
          273,
          274,
          275,
          276,
          277,
          278,
          279,
          280,
          281,
          282,
          283,
          284,
          285,
          286,
          287,
          288,
          289,
          290,
          291,
          292,
          293,
          294,
          295,
          296,
          297,
          298,
          299,
          300,
          301,
          302,
          303,
          304,
          305,
          306,
          307,
          308,
          309,
          310,
          311,
          312,
          313,
          314,
          315,
          316,
          317,
          318,
          319,
          320,
          321,
          322,
          323,
          324,
          325,
          326,
          327,
          328,
          329,
          330,
          331,
          332,
          333,
          334,
          335,
          336,
          337,
          338,
          339,
          340,
          341,
          342,
          343,
          344,
          345,
          346,
          347,
          348,
          349,
          350,
          351,
          352,
          353,
          354,
          355,
          356,
          357,
          358,
          359,
          360,
          361,
          362,
          363,
          364,
          365,
          366,
          367,
          368,
          369,
          370,
          371,
          372,
          373,
          374,
          375,
          376,
          377,
          378,
          379,
          380,
          381,
          382,
          383,
          384,
          385,
          386,
          387,
          388,
          389,
          390,
          391,
          392,
          393,
          394,
          395,
          396,
          397,
          398,
          399,
          400,
          401,
          402,
          403,
          404,
          405,
          406
        ],
        "AcquisitionTime": [
          "124951.772500",
          "124953.262500",
          "124954.752500",
          "124956.242500",
          "124957.732500",
          "124959.222500",
          "125000.712500",
          "125002.202500",
          "125003.692500",
          "125005.182500",
          "125006.672500",
          "125008.162500",
          "125009.652500",
          "125011.142500",
          "125012.632500",
          "125014.122500",
          "125015.612500",
          "125017.102500",
          "125018.592500",
          "125020.082500",
          "125021.572500",
          "125023.062500",
          "125024.552500",
          "125026.042500",
          "125027.532500",
          "125029.022500",
          "125030.512500",
          "125032.002500",
          "125033.492500",
          "125034.982500",
          "125036.472500",
          "125037.962500",
          "125039.452500",
          "125040.942500",
          "125042.432500",
          "125043.922500",
          "125045.412500",
          "125046.902500",
          "125048.392500",
          "125049.882500",
          "125051.372500",
          "125052.862500",
          "125054.352500",
          "125055.842500",
          "125057.332500",
          "125058.822500",
          "125100.312500",
          "125101.802500",
          "125103.292500",
          "125104.782500",
          "125106.272500",
          "125107.762500",
          "125109.252500",
          "125110.742500",
          "125112.232500",
          "125113.722500",
          "125115.212500",
          "125116.702500",
          "125118.192500",
          "125119.682500",
          "125121.172500",
          "125122.662500",
          "125124.152500",
          "125125.642500",
          "125127.132500",
          "125128.622500",
          "125130.112500",
          "125131.602500",
          "125133.092500",
          "125134.582500",
          "125136.072500",
          "125137.562500",
          "125139.052500",
          "125140.542500",
          "125142.032500",
          "125143.522500",
          "125145.012500",
          "125146.502500",
          "125147.992500",
          "125149.482500",
          "125150.972500",
          "125152.462500",
          "125153.952500",
          "125155.442500",
          "125156.932500",
          "125158.422500",
          "125159.912500",
          "125201.402500",
          "125202.892500",
          "125204.382500",
          "125205.872500",
          "125207.362500",
          "125208.852500",
          "125210.342500",
          "125211.832500",
          "125213.322500",
          "125214.812500",
          "125216.302500",
          "125217.792500",
          "125219.282500",
          "125220.772500",
          "125222.262500",
          "125223.752500",
          "125225.242500",
          "125226.732500",
          "125228.222500",
          "125229.712500",
          "125231.202500",
          "125232.692500",
          "125234.182500",
          "125235.672500",
          "125237.162500",
          "125238.652500",
          "125240.142500",
          "125241.632500",
          "125243.122500",
          "125244.612500",
          "125246.102500",
          "125247.592500",
          "125249.082500",
          "125250.572500",
          "125252.062500",
          "125253.552500",
          "125255.042500",
          "125256.532500",
          "125258.022500",
          "125259.512500",
          "125301.002500",
          "125302.492500",
          "125303.982500",
          "125305.472500",
          "125306.962500",
          "125308.452500",
          "125309.942500",
          "125311.432500",
          "125312.922500",
          "125314.412500",
          "125315.902500",
          "125317.392500",
          "125318.882500",
          "125320.372500",
          "125321.862500",
          "125323.352500",
          "125324.842500",
          "125326.332500",
          "125327.822500",
          "125329.312500",
          "125330.802500",
          "125332.292500",
          "125333.782500",
          "125335.272500",
          "125336.762500",
          "125338.252500",
          "125339.742500",
          "125341.232500",
          "125342.722500",
          "125344.212500",
          "125345.702500",
          "125347.192500",
          "125348.682500",
          "125350.172500",
          "125351.662500",
          "125353.152500",
          "125354.642500",
          "125356.132500",
          "125357.622500",
          "125359.112500",
          "125400.602500",
          "125402.092500",
          "125403.582500",
          "125405.072500",
          "125406.562500",
          "125408.052500",
          "125409.542500",
          "125411.032500",
          "125412.522500",
          "125414.012500",
          "125415.502500",
          "125416.992500",
          "125418.482500",
          "125419.972500",
          "125421.462500",
          "125422.952500",
          "125424.442500",
          "125425.932500",
          "125427.422500",
          "125428.912500",
          "125430.402500",
          "125431.892500",
          "125433.382500",
          "125434.872500",
          "125436.362500",
          "125437.852500",
          "125439.342500",
          "125440.832500",
          "125442.322500",
          "125443.812500",
          "125445.302500",
          "125446.792500",
          "125448.282500",
          "125449.772500",
          "125451.262500",
          "125452.752500",
          "125454.242500",
          "125455.732500",
          "125457.222500",
          "125458.712500",
          "125500.202500",
          "125501.692500",
          "125503.182500",
          "125504.672500",
          "125506.162500",
          "125507.652500",
          "125509.142500",
          "125510.632500",
          "125512.122500",
          "125513.612500",
          "125515.102500",
          "125516.592500",
          "125518.082500",
          "125519.572500",
          "125521.062500",
          "125522.552500",
          "125524.042500",
          "125525.532500",
          "125527.022500",
          "125528.512500",
          "125530.002500",
          "125531.492500",
          "125532.982500",
          "125534.472500",
          "125535.962500",
          "125537.452500",
          "125538.942500",
          "125540.432500",
          "125541.922500",
          "125543.412500",
          "125544.902500",
          "125546.392500",
          "125547.882500",
          "125549.372500",
          "125550.862500",
          "125552.352500",
          "125553.842500",
          "125555.332500",
          "125556.822500",
          "125558.312500",
          "125559.802500",
          "125601.292500",
          "125602.782500",
          "125604.272500",
          "125605.762500",
          "125607.252500",
          "125608.742500",
          "125610.232500",
          "125611.722500",
          "125613.212500",
          "125614.702500",
          "125616.192500",
          "125617.682500",
          "125619.172500",
          "125620.662500",
          "125622.152500",
          "125623.642500",
          "125625.132500",
          "125626.622500",
          "125628.112500",
          "125629.602500",
          "125631.092500",
          "125632.582500",
          "125634.072500",
          "125635.562500",
          "125637.052500",
          "125638.542500",
          "125640.032500",
          "125641.522500",
          "125643.012500",
          "125644.502500",
          "125645.992500",
          "125647.482500",
          "125648.972500",
          "125650.462500",
          "125651.952500",
          "125653.442500",
          "125654.932500",
          "125656.422500",
          "125657.912500",
          "125659.402500",
          "125700.892500",
          "125702.382500",
          "125703.872500",
          "125705.362500",
          "125706.852500",
          "125708.342500",
          "125709.832500",
          "125711.322500",
          "125712.812500",
          "125714.302500",
          "125715.792500",
          "125717.282500",
          "125718.772500",
          "125720.262500",
          "125721.752500",
          "125723.242500",
          "125724.732500",
          "125726.222500",
          "125727.712500",
          "125729.202500",
          "125730.692500",
          "125732.182500",
          "125733.672500",
          "125735.162500",
          "125736.652500",
          "125738.142500",
          "125739.632500",
          "125741.122500",
          "125742.612500",
          "125744.102500",
          "125745.592500",
          "125747.082500",
          "125748.572500",
          "125750.062500",
          "125751.552500",
          "125753.042500",
          "125754.532500",
          "125756.022500",
          "125757.512500",
          "125759.002500",
          "125800.492500",
          "125801.982500",
          "125803.472500",
          "125804.962500",
          "125806.452500",
          "125807.942500",
          "125809.432500",
          "125810.922500",
          "125812.412500",
          "125813.902500",
          "125815.392500",
          "125816.882500",
          "125818.372500",
          "125819.862500",
          "125821.352500",
          "125822.842500",
          "125824.332500",
          "125825.822500",
          "125827.312500",
          "125828.802500",
          "125830.292500",
          "125831.782500",
          "125833.272500",
          "125834.762500",
          "125836.252500",
          "125837.742500",
          "125839.232500",
          "125840.722500",
          "125842.212500",
          "125843.702500",
          "125845.192500",
          "125846.682500",
          "125848.172500",
          "125849.662500",
          "125851.152500",
          "125852.642500",
          "125854.132500",
          "125855.622500",
          "125857.112500",
          "125858.602500",
          "125900.092500",
          "125901.582500",
          "125903.072500",
          "125904.562500",
          "125906.052500",
          "125907.542500",
          "125909.032500",
          "125910.522500",
          "125912.012500",
          "125913.502500",
          "125914.992500",
          "125916.482500",
          "125917.972500",
          "125919.462500",
          "125920.952500",
          "125922.442500",
          "125923.932500",
          "125925.422500",
          "125926.912500",
          "125928.402500",
          "125929.892500",
          "125931.382500",
          "125932.872500",
          "125934.362500",
          "125935.852500",
          "125937.342500",
          "125938.832500",
          "125940.322500",
          "125941.812500",
          "125943.302500",
          "125944.792500",
          "125946.282500",
          "125947.772500",
          "125949.262500",
          "125950.752500",
          "125952.242500",
          "125953.732500",
          "125955.222500"
        ],
        "ContentTime": [
          "125110.968000",
          "125110.971000",
          "125110.974000",
          "125110.977000",
          "125110.980000",
          "125110.983000",
          "125110.986000",
          "125110.989000",
          "125110.992000",
          "125111.001000",
          "125111.004000",
          "125111.007000",
          "125111.010000",
          "125111.013000",
          "125111.016000",
          "125111.019000",
          "125111.021000",
          "125111.024000",
          "125111.027000",
          "125111.030000",
          "125111.033000",
          "125111.036000",
          "125111.039000",
          "125111.042000",
          "125111.045000",
          "125111.048000",
          "125130.914000",
          "125130.917000",
          "125130.920000",
          "125130.923000",
          "125130.926000",
          "125130.928000",
          "125130.932000",
          "125130.934000",
          "125130.937000",
          "125130.940000",
          "125130.950000",
          "125130.953000",
          "125130.956000",
          "125130.959000",
          "125130.962000",
          "125130.965000",
          "125130.968000",
          "125130.971000",
          "125130.974000",
          "125130.976000",
          "125150.914000",
          "125150.917000",
          "125150.925000",
          "125150.928000",
          "125150.931000",
          "125150.933000",
          "125150.937000",
          "125150.939000",
          "125150.942000",
          "125150.945000",
          "125150.949000",
          "125150.952000",
          "125150.955000",
          "125150.958000",
          "125150.961000",
          "125150.972000",
          "125150.976000",
          "125150.979000",
          "125150.982000",
          "125150.985000",
          "125210.913000",
          "125210.916000",
          "125210.919000",
          "125210.921000",
          "125210.924000",
          "125210.927000",
          "125210.930000",
          "125210.933000",
          "125210.936000",
          "125210.939000",
          "125210.942000",
          "125210.945000",
          "125210.948000",
          "125210.951000",
          "125210.954000",
          "125210.956000",
          "125210.959000",
          "125210.962000",
          "125210.965000",
          "125210.968000",
          "125210.971000",
          "125250.914000",
          "125250.917000",
          "125250.920000",
          "125250.923000",
          "125250.926000",
          "125250.929000",
          "125250.932000",
          "125250.935000",
          "125250.938000",
          "125250.940000",
          "125250.943000",
          "125250.946000",
          "125250.949000",
          "125250.952000",
          "125250.955000",
          "125250.958000",
          "125250.961000",
          "125250.964000",
          "125250.967000",
          "125250.970000",
          "125250.973000",
          "125250.976000",
          "125250.978000",
          "125250.981000",
          "125250.984000",
          "125250.987000",
          "125250.990000",
          "125250.993000",
          "125250.996000",
          "125251.000000",
          "125251.002000",
          "125251.005000",
          "125330.914000",
          "125330.917000",
          "125330.920000",
          "125330.923000",
          "125330.926000",
          "125330.929000",
          "125330.931000",
          "125330.934000",
          "125330.937000",
          "125330.940000",
          "125330.943000",
          "125330.946000",
          "125330.949000",
          "125330.952000",
          "125330.955000",
          "125330.958000",
          "125330.961000",
          "125330.964000",
          "125330.966000",
          "125330.969000",
          "125330.972000",
          "125330.975000",
          "125330.978000",
          "125330.981000",
          "125330.984000",
          "125330.987000",
          "125330.989000",
          "125410.914000",
          "125410.917000",
          "125410.920000",
          "125410.923000",
          "125410.926000",
          "125410.929000",
          "125410.932000",
          "125410.934000",
          "125410.937000",
          "125410.940000",
          "125410.943000",
          "125410.946000",
          "125410.949000",
          "125410.952000",
          "125410.955000",
          "125410.958000",
          "125410.961000",
          "125410.964000",
          "125410.966000",
          "125410.969000",
          "125410.972000",
          "125410.975000",
          "125410.978000",
          "125410.981000",
          "125410.984000",
          "125410.987000",
          "125410.990000",
          "125450.913000",
          "125450.916000",
          "125450.919000",
          "125450.922000",
          "125450.925000",
          "125450.927000",
          "125450.930000",
          "125450.934000",
          "125450.936000",
          "125450.939000",
          "125450.942000",
          "125450.945000",
          "125450.948000",
          "125450.951000",
          "125450.954000",
          "125450.957000",
          "125450.960000",
          "125450.963000",
          "125450.966000",
          "125450.969000",
          "125450.972000",
          "125450.974000",
          "125450.977000",
          "125450.980000",
          "125450.983000",
          "125450.986000",
          "125450.989000",
          "125530.914000",
          "125530.917000",
          "125530.920000",
          "125530.923000",
          "125530.926000",
          "125530.929000",
          "125530.932000",
          "125530.935000",
          "125530.937000",
          "125530.940000",
          "125530.943000",
          "125530.946000",
          "125530.949000",
          "125530.952000",
          "125530.955000",
          "125530.958000",
          "125530.961000",
          "125530.964000",
          "125530.967000",
          "125530.970000",
          "125530.972000",
          "125530.975000",
          "125530.978000",
