{
  "aor": 0.0007734718826405869,
  "aqi": 0.010735312127139364,
  "bids_meta": {
    "AcquisitionMatrixPE": 104,
    "AcquisitionNumber": 1,
    "AcquisitionTime": "16:51:18.197500",
    "BandwidthPerPixelPhaseEncode": 17.17,
    "BaseResolution": 104,
    "BodyPartExamined": "BRAIN",
    "CogAtlasID": "trm_4c898da401420",
    "ConsistencyInfo": "N4_VE11C_LATEST_20160120",
    "ConversionSoftware": "dcm2niix",
    "ConversionSoftwareVersion": "v1.0.20171215 (OpenJPEG build) GCC7.3.0",
    "DerivedVendorReportedEchoSpacing": 0.000560011,
    "DeviceSerialNumber": "167006",
    "DwellTime": 2.1e-06,
    "EchoTime": 0.037,
    "EchoTrainLength": 104,
    "EffectiveEchoSpacing": 0.000560011,
    "FlipAngle": 52,
    "ImageComments": "Unaliased_MB4_PE3_LB",
    "ImageOrientationPatientDICOM": [
      0.999845,
      0.015532,
      -0.00827615,
      -0.0174524,
      0.93567,
      -0.352445
    ],
    "ImageType": [
      "ORIGINAL",
      "PRIMARY",
      "M",
      "MB",
      "ND",
      "MOSAIC"
    ],
    "InPlanePhaseEncodingDirectionDICOM": "COL",
    "InstitutionAddress": "Chemin_Queen-Mary_4565_Montreal_District_CA_H3W_1W5",
    "InstitutionName": "IUGM",
    "InstitutionalDepartmentName": "Department",
    "MRAcquisitionType": "2D",
    "MagneticFieldStrength": 3,
    "Manufacturer": "Siemens",
    "ManufacturersModelName": "Prisma_fit",
    "Modality": "MR",
    "MultibandAccelerationFactor": 4,
    "PartialFourier": 1,
    "PatientPosition": "HFS",
    "PercentPhaseFOV": 100,
    "PhaseEncodingDirection": "j-",
    "PhaseEncodingSteps": 104,
    "PhaseResolution": 1,
    "PixelBandwidth": 2290,
    "ProcedureStepDescription": "video5_generic",
    "ProtocolName": "func_task-life_22",
    "PulseSequenceDetails": "%CustomerSeq%_cmrr_mbep2d_bold",
    "ReceiveCoilActiveElements": "HC1-7;NC1,2",
    "ReceiveCoilName": "HeadNeck_64",
    "ReconMatrixPE": 104,
    "RepetitionTime": 1.49,
    "SAR": 0.0309601,
    "ScanOptions": "FS",
    "ScanningSequence": "EP",
    "SequenceName": "epfid2d1_104",
    "SequenceVariant": "SK_SS",
    "SeriesDescription": "func_task-life_22",
    "SeriesNumber": 11,
    "ShimSetting": [
      632,
      -7244,
      -8881,
      567,
      25,
      -231,
      -141,
      -28
    ],
    "SliceThickness": 2,
    "SliceTiming": [
      0,
      0.7825,
      0.0975,
      0.88,
      0.195,
      0.98,
      0.2925,
      1.0775,
      0.39,
      1.175,
      0.49,
      1.2725,
      0.5875,
      1.37,
      0.685,
      0,
      0.7825,
      0.0975,
      0.88,
      0.195,
      0.98,
      0.2925,
      1.0775,
      0.39,
      1.175,
      0.49,
      1.2725,
      0.5875,
      1.37,
      0.685,
      0,
      0.7825,
      0.0975,
      0.88,
      0.195,
      0.98,
      0.2925,
      1.0775,
      0.39,
      1.175,
      0.49,
      1.2725,
      0.5875,
      1.37,
      0.685,
      0,
      0.7825,
      0.0975,
      0.88,
      0.195,
      0.98,
      0.2925,
      1.0775,
      0.39,
      1.175,
      0.49,
      1.2725,
      0.5875,
      1.37,
      0.685
    ],
    "SoftwareVersions": "syngo_MR_E11",
    "SpacingBetweenSlices": 2,
    "StationName": "MRC35049",
    "TaskName": "life02",
    "TotalReadoutTime": 0.0576811,
    "TxRefAmp": 226.036,
    "dataset": "<unset>",
    "dcmmeta_affine": [
      [
        -1.999690294265747,
        -0.03490482270717621,
        -0.004539136774837971,
        107.2825927734375
      ],
      [
        -0.031063992530107498,
        1.8713394403457642,
        -0.705069899559021,
        -58.2709846496582
      ],
      [
        -0.016552302986383438,
        0.704890251159668,
        1.8715916872024536,
        -81.38237762451172
      ],
      [
        0.0,
        0.0,
        0.0,
        1.0
      ]
    ],
    "dcmmeta_reorient_transform": [
      [
        0.0,
        -1.0,
        0.0,
        103.0
      ],
      [
        1.0,
        0.0,
        0.0,
        0.0
      ],
      [
        0.0,
        0.0,
        1.0,
        0.0
      ],
      [
        0.0,
        0.0,
        0.0,
        1.0
      ]
    ],
    "dcmmeta_shape": [
      104,
      104,
      60,
      410
    ],
    "dcmmeta_slice_dim": 2,
    "dcmmeta_version": 0.6,
    "global": {
      "const": {
        "AcquisitionMatrix": [
          104,
          0,
          0,
          104
        ],
        "AngioFlag": "N",
        "BitsAllocated": 16,
        "BitsStored": 16,
        "BodyPartExamined": "BRAIN",
        "Columns": 832,
        "EchoNumbers": 1,
        "EchoTime": 37.0,
        "EchoTrainLength": 104,
        "FlipAngle": 52.0,
        "HighBit": 15,
        "ImageOrientationPatient": [
          0.99984511921464,
          0.01553199597827,
          -0.008276151497,
          -0.0174524107785,
          0.93566973603848,
          -0.3524451140528
        ],
        "ImagePositionPatient": [
          -818.86928584139,
          -826.95184299106,
          253.82639939495
        ],
        "ImageType": [
          "ORIGINAL",
          "PRIMARY",
          "M",
          "MB",
          "ND",
          "MOSAIC"
        ],
        "ImagedNucleus": "1H",
        "ImagingFrequency": 123.259425,
        "InPlanePhaseEncodingDirection": "COL",
        "MRAcquisitionType": "2D",
        "MagneticFieldStrength": 3.0,
        "Manufacturer": "SIEMENS",
        "ManufacturerModelName": "Prisma_fit",
        "Modality": "MR",
        "NumberOfAverages": 1.0,
        "NumberOfPhaseEncodingSteps": 104,
        "PercentPhaseFieldOfView": 100.0,
        "PercentSampling": 100.0,
        "PerformedProcedureStepStartTime": "163709.301000",
        "PhotometricInterpretation": "MONOCHROME2",
        "PixelBandwidth": 2290.0,
        "PixelRepresentation": 0,
        "PixelSpacing": [
          2.0,
          2.0
        ],
        "ProtocolName": "func_task-life_22",
        "RepetitionTime": 1490.0,
        "Rows": 832,
        "SAR": 0.03096008881244,
        "SamplesPerPixel": 1,
        "ScanOptions": "FS",
        "ScanningSequence": "EP",
        "SequenceName": "epfid2d1_104",
        "SequenceVariant": [
          "SK",
          "SS"
        ],
        "SeriesDescription": "func_task-life_22",
        "SeriesNumber": 11,
        "SeriesTime": "165234.235000",
        "SliceLocation": -55.858218382911,
        "SliceThickness": 2.0,
        "SmallestImagePixelValue": 0,
        "SoftwareVersions": "syngo MR E11",
        "SpacingBetweenSlices": 1.9999999588099,
        "SpecificCharacterSet": "ISO_IR 100",
        "StudyID": "1",
        "StudyTime": "163709.236000",
        "TransmitCoilName": "Body",
        "VariableFlipAngleFlag": "N",
        "WindowCenterWidthExplanation": "Algo1",
        "dBdt": 0.0
      },
      "slices": {}
    },
    "modality": "bold",
    "run_id": 2,
    "session_id": "004",
    "subject_id": "06",
    "task_id": "life02",
    "time": {
      "samples": {
        "AcquisitionNumber": [
          1,
          2,
          3,
          4,
          5,
          6,
          7,
          8,
          9,
          10,
          11,
          12,
          13,
          14,
          15,
          16,
          17,
          18,
          19,
          20,
          21,
          22,
          23,
          24,
          25,
          26,
          27,
          28,
          29,
          30,
          31,
          32,
          33,
          34,
          35,
          36,
          37,
          38,
          39,
          40,
          41,
          42,
          43,
          44,
          45,
          46,
          47,
          48,
          49,
          50,
          51,
          52,
          53,
          54,
          55,
          56,
          57,
          58,
          59,
          60,
          61,
          62,
          63,
          64,
          65,
          66,
          67,
          68,
          69,
          70,
          71,
          72,
          73,
          74,
          75,
          76,
          77,
          78,
          79,
          80,
          81,
          82,
          83,
          84,
          85,
          86,
          87,
          88,
          89,
          90,
          91,
          92,
          93,
          94,
          95,
          96,
          97,
          98,
          99,
          100,
          101,
          102,
          103,
          104,
          105,
          106,
          107,
          108,
          109,
          110,
          111,
          112,
          113,
          114,
          115,
          116,
          117,
          118,
          119,
          120,
          121,
          122,
          123,
          124,
          125,
          126,
          127,
          128,
          129,
          130,
          131,
          132,
          133,
          134,
          135,
          136,
          137,
          138,
          139,
          140,
          141,
          142,
          143,
          144,
          145,
          146,
          147,
          148,
          149,
          150,
          151,
          152,
          153,
          154,
          155,
          156,
          157,
          158,
          159,
          160,
          161,
          162,
          163,
          164,
          165,
          166,
          167,
          168,
          169,
          170,
          171,
          172,
          173,
          174,
          175,
          176,
          177,
          178,
          179,
          180,
          181,
          182,
          183,
          184,
          185,
          186,
          187,
          188,
          189,
          190,
          191,
          192,
          193,
          194,
          195,
          196,
          197,
          198,
          199,
          200,
          201,
          202,
          203,
          204,
          205,
          206,
          207,
          208,
          209,
          210,
          211,
          212,
          213,
          214,
          215,
          216,
          217,
          218,
          219,
          220,
          221,
          222,
          223,
          224,
          225,
          226,
          227,
          228,
          229,
          230,
          231,
          232,
          233,
          234,
          235,
          236,
          237,
          238,
          239,
          240,
          241,
          242,
          243,
          244,
          245,
          246,
          247,
          248,
          249,
          250,
          251,
          252,
          253,
          254,
          255,
          256,
          257,
          258,
          259,
          260,
          261,
          262,
          263,
          264,
          265,
          266,
          267,
          268,
          269,
          270,
          271,
          272,
          273,
          274,
          275,
          276,
          277,
          278,
          279,
          280,
          281,
          282,
          283,
          284,
          285,
          286,
          287,
          288,
          289,
          290,
          291,
          292,
          293,
          294,
          295,
          296,
          297,
          298,
          299,
          300,
          301,
          302,
          303,
          304,
          305,
          306,
          307,
          308,
          309,
          310,
          311,
          312,
          313,
          314,
          315,
          316,
          317,
          318,
          319,
          320,
          321,
          322,
          323,
          324,
          325,
          326,
          327,
          328,
          329,
          330,
          331,
          332,
          333,
          334,
          335,
          336,
          337,
          338,
          339,
          340,
          341,
          342,
          343,
          344,
          345,
          346,
          347,
          348,
          349,
          350,
          351,
          352,
          353,
          354,
          355,
          356,
          357,
          358,
          359,
          360,
          361,
          362,
          363,
          364,
          365,
          366,
          367,
          368,
          369,
          370,
          371,
          372,
          373,
          374,
          375,
          376,
          377,
          378,
          379,
          380,
          381,
          382,
          383,
          384,
          385,
          386,
          387,
          388,
          389,
          390,
          391,
          392,
          393,
          394,
          395,
          396,
          397,
          398,
          399,
          400,
          401,
          402,
          403,
          404,
          405,
          406,
          407,
          408,
          409,
          410
        ],
        "AcquisitionTime": [
          "165118.197500",
          "165119.687500",
          "165121.177500",
          "165122.667500",
          "165124.157500",
          "165125.647500",
          "165127.137500",
          "165128.627500",
          "165130.117500",
          "165131.607500",
          "165133.097500",
          "165134.587500",
          "165136.077500",
          "165137.567500",
          "165139.057500",
          "165140.547500",
          "165142.037500",
          "165143.527500",
          "165145.017500",
          "165146.507500",
          "165147.997500",
          "165149.487500",
          "165150.977500",
          "165152.467500",
          "165153.957500",
          "165155.447500",
          "165156.937500",
          "165158.427500",
          "165159.917500",
          "165201.407500",
          "165202.897500",
          "165204.387500",
          "165205.877500",
          "165207.367500",
          "165208.857500",
          "165210.347500",
          "165211.837500",
          "165213.327500",
          "165214.817500",
          "165216.307500",
          "165217.797500",
          "165219.287500",
          "165220.777500",
          "165222.267500",
          "165223.757500",
          "165225.247500",
          "165226.737500",
          "165228.227500",
          "165229.717500",
          "165231.207500",
          "165232.697500",
          "165234.187500",
          "165235.677500",
          "165237.167500",
          "165238.657500",
          "165240.147500",
          "165241.637500",
          "165243.127500",
          "165244.617500",
          "165246.107500",
          "165247.597500",
          "165249.087500",
          "165250.577500",
          "165252.067500",
          "165253.557500",
          "165255.047500",
          "165256.537500",
          "165258.027500",
          "165259.517500",
          "165301.007500",
          "165302.497500",
          "165303.987500",
          "165305.477500",
          "165306.967500",
          "165308.457500",
          "165309.947500",
          "165311.437500",
          "165312.927500",
          "165314.417500",
          "165315.907500",
          "165317.397500",
          "165318.887500",
          "165320.377500",
          "165321.867500",
          "165323.357500",
          "165324.847500",
          "165326.337500",
          "165327.827500",
          "165329.317500",
          "165330.807500",
          "165332.297500",
          "165333.787500",
          "165335.277500",
          "165336.767500",
          "165338.257500",
          "165339.747500",
          "165341.237500",
          "165342.727500",
          "165344.217500",
          "165345.707500",
          "165347.197500",
          "165348.687500",
          "165350.177500",
          "165351.667500",
          "165353.157500",
          "165354.647500",
          "165356.137500",
          "165357.627500",
          "165359.117500",
          "165400.607500",
          "165402.097500",
          "165403.587500",
          "165405.077500",
          "165406.567500",
          "165408.057500",
          "165409.547500",
          "165411.037500",
          "165412.527500",
          "165414.017500",
          "165415.507500",
          "165416.997500",
          "165418.487500",
          "165419.977500",
          "165421.467500",
          "165422.957500",
          "165424.447500",
          "165425.937500",
          "165427.427500",
          "165428.917500",
          "165430.407500",
          "165431.897500",
          "165433.387500",
          "165434.877500",
          "165436.367500",
          "165437.857500",
          "165439.347500",
          "165440.837500",
          "165442.327500",
          "165443.817500",
          "165445.307500",
          "165446.797500",
          "165448.287500",
          "165449.777500",
          "165451.267500",
          "165452.757500",
          "165454.247500",
          "165455.737500",
          "165457.227500",
          "165458.717500",
          "165500.207500",
          "165501.697500",
          "165503.187500",
          "165504.677500",
          "165506.167500",
          "165507.657500",
          "165509.147500",
          "165510.637500",
          "165512.127500",
          "165513.617500",
          "165515.107500",
          "165516.597500",
          "165518.087500",
          "165519.577500",
          "165521.067500",
          "165522.557500",
          "165524.047500",
          "165525.537500",
          "165527.027500",
          "165528.517500",
          "165530.007500",
          "165531.497500",
          "165532.987500",
          "165534.477500",
          "165535.967500",
          "165537.457500",
          "165538.947500",
          "165540.437500",
          "165541.927500",
          "165543.417500",
          "165544.907500",
          "165546.397500",
          "165547.887500",
          "165549.377500",
          "165550.867500",
          "165552.357500",
          "165553.847500",
          "165555.337500",
          "165556.827500",
          "165558.317500",
          "165559.807500",
          "165601.297500",
          "165602.787500",
          "165604.277500",
          "165605.767500",
          "165607.257500",
          "165608.747500",
          "165610.237500",
          "165611.727500",
          "165613.217500",
          "165614.707500",
          "165616.197500",
          "165617.687500",
          "165619.177500",
          "165620.667500",
          "165622.157500",
          "165623.647500",
          "165625.137500",
          "165626.627500",
          "165628.117500",
          "165629.607500",
          "165631.097500",
          "165632.587500",
          "165634.077500",
          "165635.567500",
          "165637.057500",
          "165638.547500",
          "165640.037500",
          "165641.527500",
          "165643.017500",
          "165644.507500",
          "165645.997500",
          "165647.487500",
          "165648.977500",
          "165650.467500",
          "165651.957500",
          "165653.447500",
          "165654.937500",
          "165656.427500",
          "165657.917500",
          "165659.407500",
          "165700.897500",
          "165702.387500",
          "165703.877500",
          "165705.367500",
          "165706.857500",
          "165708.347500",
          "165709.837500",
          "165711.327500",
          "165712.817500",
          "165714.307500",
          "165715.797500",
          "165717.287500",
          "165718.777500",
          "165720.267500",
          "165721.757500",
          "165723.247500",
          "165724.737500",
          "165726.227500",
          "165727.717500",
          "165729.207500",
          "165730.697500",
          "165732.187500",
          "165733.677500",
          "165735.167500",
          "165736.657500",
          "165738.147500",
          "165739.637500",
          "165741.127500",
          "165742.617500",
          "165744.107500",
          "165745.597500",
          "165747.087500",
          "165748.577500",
          "165750.067500",
          "165751.557500",
          "165753.047500",
          "165754.537500",
          "165756.027500",
          "165757.517500",
          "165759.007500",
          "165800.497500",
          "165801.987500",
          "165803.477500",
          "165804.967500",
          "165806.457500",
          "165807.947500",
          "165809.437500",
          "165810.927500",
          "165812.417500",
          "165813.907500",
          "165815.397500",
          "165816.887500",
          "165818.377500",
          "165819.867500",
          "165821.357500",
          "165822.847500",
          "165824.337500",
          "165825.827500",
          "165827.317500",
          "165828.807500",
          "165830.297500",
          "165831.787500",
          "165833.277500",
          "165834.767500",
          "165836.257500",
          "165837.747500",
          "165839.237500",
          "165840.727500",
          "165842.217500",
          "165843.707500",
          "165845.197500",
          "165846.687500",
          "165848.177500",
          "165849.667500",
          "165851.157500",
          "165852.647500",
          "165854.137500",
          "165855.627500",
          "165857.117500",
          "165858.607500",
          "165900.097500",
          "165901.587500",
          "165903.077500",
          "165904.567500",
          "165906.057500",
          "165907.547500",
          "165909.037500",
          "165910.527500",
          "165912.017500",
          "165913.507500",
          "165914.997500",
          "165916.487500",
          "165917.977500",
          "165919.467500",
          "165920.957500",
          "165922.447500",
          "165923.937500",
          "165925.427500",
          "165926.917500",
          "165928.407500",
          "165929.897500",
          "165931.387500",
          "165932.877500",
          "165934.367500",
          "165935.857500",
          "165937.347500",
          "165938.837500",
          "165940.327500",
          "165941.817500",
          "165943.307500",
          "165944.797500",
          "165946.287500",
          "165947.777500",
          "165949.267500",
          "165950.757500",
          "165952.247500",
          "165953.737500",
          "165955.227500",
          "165956.717500",
          "165958.207500",
          "165959.697500",
          "170001.187500",
          "170002.677500",
          "170004.167500",
          "170005.657500",
          "170007.147500",
          "170008.637500",
          "170010.127500",
          "170011.617500",
          "170013.107500",
          "170014.597500",
          "170016.087500",
          "170017.577500",
          "170019.067500",
          "170020.557500",
          "170022.047500",
          "170023.537500",
          "170025.027500",
          "170026.517500",
          "170028.007500",
          "170029.497500",
          "170030.987500",
          "170032.477500",
          "170033.967500",
          "170035.457500",
          "170036.947500",
          "170038.437500",
          "170039.927500",
          "170041.417500",
          "170042.907500",
          "170044.397500",
          "170045.887500",
          "170047.377500",
          "170048.867500",
          "170050.357500",
          "170051.847500",
          "170053.337500",
          "170054.827500",
          "170056.317500",
          "170057.807500",
          "170059.297500",
          "170100.787500",
          "170102.277500",
          "170103.767500",
          "170105.257500",
          "170106.747500",
          "170108.237500",
          "170109.727500",
          "170111.217500",
          "170112.707500",
          "170114.197500",
          "170115.687500",
          "170117.177500",
          "170118.667500",
          "170120.157500",
          "170121.647500",
          "170123.137500",
          "170124.627500",
          "170126.117500",
          "170127.607500"
        ],
        "ContentTime": [
          "165234.238000",
          "165234.241000",
          "165234.250000",
          "165234.253000",
          "165234.256000",
          "165234.259000",
          "165234.262000",
          "165234.265000",
          "165234.268000",
          "165234.271000",
          "165234.274000",
          "165234.277000",
          "165234.280000",
          "165234.292000",
          "165234.294000",
          "165234.297000",
          "165234.300000",
          "165234.303000",
          "165234.306000",
          "165234.315000",
          "165234.318000",
          "165254.208000",
          "165254.211000",
          "165254.214000",
          "165254.217000",
          "165254.220000",
          "165254.223000",
          "165254.226000",
          "165254.228000",
          "165254.231000",
          "165254.234000",
          "165254.237000",
          "165254.240000",
          "165254.243000",
          "165254.246000",
          "165254.249000",
          "165254.251000",
          "165254.254000",
          "165254.257000",
          "165254.260000",
          "165254.263000",
          "165254.266000",
          "165314.208000",
          "165314.211000",
          "165314.214000",
          "165314.217000",
          "165314.220000",
          "165314.222000",
          "165314.225000",
          "165314.232000",
          "165314.235000",
          "165314.238000",
          "165314.241000",
          "165314.244000",
          "165314.247000",
          "165314.250000",
          "165314.252000",
          "165314.255000",
          "165314.258000",
          "165314.261000",
          "165314.264000",
          "165314.267000",
          "165334.208000",
          "165334.211000",
          "165334.214000",
          "165334.217000",
          "165334.220000",
          "165334.223000",
          "165334.225000",
          "165334.228000",
          "165334.231000",
          "165334.234000",
          "165334.237000",
          "165334.240000",
          "165334.249000",
          "165334.252000",
          "165334.255000",
          "165334.258000",
          "165334.261000",
          "165334.264000",
          "165334.267000",
          "165334.270000",
          "165354.208000",
          "165354.211000",
          "165354.214000",
          "165354.217000",
          "165354.220000",
          "165354.223000",
          "165354.225000",
          "165354.228000",
          "165354.231000",
          "165354.234000",
          "165354.237000",
          "165354.240000",
          "165354.243000",
          "165354.246000",
          "165354.249000",
          "165354.252000",
          "165354.255000",
          "165354.257000",
          "165354.260000",
          "165354.263000",
          "165434.208000",
          "165434.211000",
          "165434.214000",
          "165434.217000",
          "165434.220000",
          "165434.223000",
          "165434.225000",
          "165434.228000",
          "165434.231000",
          "165434.234000",
          "165434.237000",
          "165434.240000",
          "165434.243000",
          "165434.246000",
          "165434.249000",
          "165434.252000",
          "165434.255000",
          "165434.257000",
          "165434.260000",
          "165434.263000",
          "165434.266000",
          "165434.269000",
          "165434.272000",
          "165434.275000",
          "165434.277000",
          "165434.280000",
          "165434.283000",
          "165434.286000",
          "165434.289000",
          "165514.208000",
          "165514.211000",
          "165514.214000",
          "165514.217000",
          "165514.220000",
          "165514.223000",
          "165514.225000",
          "165514.228000",
          "165514.231000",
          "165514.234000",
          "165514.237000",
          "165514.240000",
          "165514.243000",
          "165514.246000",
          "165514.249000",
          "165514.252000",
          "165514.254000",
          "165514.257000",
          "165514.260000",
          "165514.263000",
          "165514.266000",
          "165514.269000",
          "165514.272000",
          "165514.275000",
          "165514.278000",
          "165514.281000",
          "165514.284000",
          "165554.207000",
          "165554.210000",
          "165554.213000",
          "165554.216000",
          "165554.219000",
          "165554.221000",
          "165554.224000",
          "165554.227000",
          "165554.230000",
          "165554.233000",
          "165554.236000",
          "165554.262000",
          "165554.265000",
          "165554.268000",
          "165554.271000",
          "165554.273000",
          "165554.276000",
          "165554.279000",
          "165554.282000",
          "165554.285000",
          "165554.288000",
          "165554.291000",
          "165554.294000",
          "165554.296000",
          "165554.299000",
          "165554.302000",
          "165554.305000",
          "165634.208000",
          "165634.211000",
          "165634.214000",
          "165634.217000",
          "165634.220000",
          "165634.223000",
          "165634.226000",
          "165634.229000",
          "165634.232000",
          "165634.235000",
          "165634.238000",
          "165634.241000",
          "165634.244000",
          "165634.247000",
          "165634.250000",
          "165634.253000",
          "165634.256000",
          "165634.259000",
          "165634.262000",
          "165634.264000",
          "165634.267000",
          "165634.270000",
          "165634.273000",
          "165634.276000",
          "165634.284000",
          "165634.287000",
          "165654.208000",
          "165654.211000",
          "165654.214000",
          "165654.217000",
          "165654.220000",
          "165654.223000",
