{
  "aor": 0.00029485294117647054,
  "aqi": 0.006592679779411765,
  "bids_meta": {
    "AcquisitionMatrixPE": 104,
    "AcquisitionNumber": 1,
    "AcquisitionTime": "12:22:41.985000",
    "BandwidthPerPixelPhaseEncode": 17.17,
    "BaseResolution": 104,
    "BodyPartExamined": "BRAIN",
    "CogAtlasID": "trm_4c898da401420",
    "CoilString": "HC1-7;NC1_2",
    "ConsistencyInfo": "N4_VE11C_LATEST_20160120",
    "ConversionSoftware": "dcm2niix",
    "ConversionSoftwareVersion": "v1.0.20190720  (JP2:OpenJPEG) GCC7.3.0",
    "DerivedVendorReportedEchoSpacing": 0.000560011,
    "DeviceSerialNumber": "167006",
    "DwellTime": 2.1e-06,
    "EchoTime": 0.037,
    "EchoTrainLength": 104,
    "EffectiveEchoSpacing": 0.000560011,
    "FlipAngle": 52,
    "ImageComments": "Unaliased_MB4_PE3_LB",
    "ImageOrientationPatientDICOM": [
      0.995856,
      0.0533544,
      -0.073644,
      -0.0652719,
      0.983227,
      -0.170305
    ],
    "ImageType": [
      "ORIGINAL",
      "PRIMARY",
      "M",
      "MB",
      "ND",
      "MOSAIC"
    ],
    "ImagingFrequency": 123.259,
    "InPlanePhaseEncodingDirectionDICOM": "COL",
    "InstitutionAddress": "Chemin_Queen-Mary_4565_Montreal_District_CA_H3W_1W5",
    "InstitutionName": "IUGM",
    "InstitutionalDepartmentName": "Department",
    "MRAcquisitionType": "2D",
    "MagneticFieldStrength": 3,
    "Manufacturer": "Siemens",
    "ManufacturersModelName": "Prisma_fit",
    "Modality": "MR",
    "MultibandAccelerationFactor": 4,
    "PartialFourier": 1,
    "PatientPosition": "HFS",
    "PercentPhaseFOV": 100,
    "PhaseEncodingDirection": "j-",
    "PhaseEncodingSteps": 104,
    "PhaseResolution": 1,
    "PixelBandwidth": 2290,
    "ProcedureStepDescription": "video5_generic",
    "ProtocolName": "func_task-life4",
    "PulseSequenceDetails": "%CustomerSeq%_cmrr_mbep2d_bold",
    "ReceiveCoilActiveElements": "HC1-7;NC1,2",
    "ReceiveCoilName": "HeadNeck_64",
    "ReconMatrixPE": 104,
    "RepetitionTime": 1.49,
    "SAR": 0.0329539,
    "ScanOptions": "FS",
    "ScanningSequence": "EP",
    "SequenceName": "epfid2d1_104",
    "SequenceVariant": "SK_SS",
    "SeriesDescription": "func_task-life4",
    "SeriesNumber": 20,
    "ShimSetting": [
      595,
      -7270,
      -8830,
      551,
      -81,
      -306,
      -3,
      64
    ],
    "SliceThickness": 2,
    "SliceTiming": [
      0,
      0.7825,
      0.0975,
      0.8825,
      0.195,
      0.98,
      0.2925,
      1.0775,
      0.3925,
      1.175,
      0.49,
      1.2725,
      0.5875,
      1.37,
      0.685,
      0,
      0.7825,
      0.0975,
      0.8825,
      0.195,
      0.98,
      0.2925,
      1.0775,
      0.3925,
      1.175,
      0.49,
      1.2725,
      0.5875,
      1.37,
      0.685,
      0,
      0.7825,
      0.0975,
      0.8825,
      0.195,
      0.98,
      0.2925,
      1.0775,
      0.3925,
      1.175,
      0.49,
      1.2725,
      0.5875,
      1.37,
      0.685,
      0,
      0.7825,
      0.0975,
      0.8825,
      0.195,
      0.98,
      0.2925,
      1.0775,
      0.3925,
      1.175,
      0.49,
      1.2725,
      0.5875,
      1.37,
      0.685
    ],
    "SoftwareVersions": "syngo_MR_E11",
    "SpacingBetweenSlices": 2,
    "StationName": "MRC35049",
    "TaskName": "life04",
    "TotalReadoutTime": 0.0576811,
    "TxRefAmp": 218.11,
    "WipMemBlock": "27d0b707-2e50-4de0-a556-18d1b5611cf7||Sequence: R016 ve11c/master r/e634e98; Dec 19 2017 11:00:25 by eja",
    "dataset": "<unset>",
    "dcmmeta_affine": [
      [
        -1.9917126893997192,
        -0.1305437684059143,
        -0.12664461135864258,
        110.74897003173828
      ],
      [
        -0.10670880973339081,
        1.9664546251296997,
        -0.34881144762039185,
        -69.13129425048828
      ],
      [
        -0.1472880244255066,
        0.34060904383659363,
        1.9652713537216187,
        -40.88555145263672
      ],
      [
        0.0,
        0.0,
        0.0,
        1.0
      ]
    ],
    "dcmmeta_reorient_transform": [
      [
        0.0,
        -1.0,
        0.0,
        103.0
      ],
      [
        1.0,
        0.0,
        0.0,
        0.0
      ],
      [
        0.0,
        0.0,
        1.0,
        0.0
      ],
      [
        0.0,
        0.0,
        0.0,
        1.0
      ]
    ],
    "dcmmeta_shape": [
      104,
      104,
      60,
      410
    ],
    "dcmmeta_slice_dim": 2,
    "dcmmeta_version": 0.6,
    "global": {
      "const": {
        "AcquisitionMatrix": [
          104,
          0,
          0,
          104
        ],
        "AngioFlag": "N",
        "BitsAllocated": 16,
        "BitsStored": 16,
        "BodyPartExamined": "BRAIN",
        "Columns": 832,
        "EchoNumbers": 1,
        "EchoTime": 37.0,
        "EchoTrainLength": 104,
        "FlipAngle": 52.0,
        "HighBit": 15,
        "ImageOrientationPatient": [
          0.99585634850546,
          0.05335440620288,
          -0.0736440118415,
          -0.0652718815488,
          0.98322731447004,
          -0.1703045200784
        ],
        "ImagePositionPatient": [
          -774.76845360809,
          -888.04502709181,
          171.79170901388
        ],
        "ImageType": [
          "ORIGINAL",
          "PRIMARY",
          "M",
          "MB",
          "ND",
          "MOSAIC"
        ],
        "ImagedNucleus": "1H",
        "ImagingFrequency": 123.259194,
        "InPlanePhaseEncodingDirection": "COL",
        "MRAcquisitionType": "2D",
        "MagneticFieldStrength": 3.0,
        "Manufacturer": "SIEMENS",
        "ManufacturerModelName": "Prisma_fit",
        "Modality": "MR",
        "NumberOfAverages": 1.0,
        "NumberOfPhaseEncodingSteps": 104,
        "PercentPhaseFieldOfView": 100.0,
        "PercentSampling": 100.0,
        "PerformedProcedureStepStartTime": "112903.787000",
        "PhotometricInterpretation": "MONOCHROME2",
        "PixelBandwidth": 2290.0,
        "PixelRepresentation": 0,
        "PixelSpacing": [
          2.0,
          2.0
        ],
        "ProtocolName": "func_task-life4",
        "RepetitionTime": 1490.0,
        "Rows": 832,
        "SAR": 0.03295385639363,
        "SamplesPerPixel": 1,
        "ScanOptions": "FS",
        "ScanningSequence": "EP",
        "SequenceName": "epfid2d1_104",
        "SequenceVariant": [
          "SK",
          "SS"
        ],
        "SeriesDescription": "func_task-life4",
        "SeriesNumber": 20,
        "SeriesTime": "122412.193000",
        "SliceLocation": -35.131591992198,
        "SliceThickness": 2.0,
        "SmallestImagePixelValue": 0,
        "SoftwareVersions": "syngo MR E11",
        "SpacingBetweenSlices": 1.9999999741634,
        "SpecificCharacterSet": "ISO_IR 100",
        "StudyID": "1",
        "StudyTime": "112903.625000",
        "TransmitCoilName": "Body",
        "VariableFlipAngleFlag": "N",
        "WindowCenterWidthExplanation": "Algo1",
        "dBdt": 0.0
      },
      "slices": {}
    },
    "modality": "bold",
    "run_id": 1,
    "session_id": "007",
    "subject_id": "04",
    "task_id": "life04",
    "time": {
      "samples": {
        "AcquisitionNumber": [
          1,
          2,
          3,
          4,
          5,
          6,
          7,
          8,
          9,
          10,
          11,
          12,
          13,
          14,
          15,
          16,
          17,
          18,
          19,
          20,
          21,
          22,
          23,
          24,
          25,
          26,
          27,
          28,
          29,
          30,
          31,
          32,
          33,
          34,
          35,
          36,
          37,
          38,
          39,
          40,
          41,
          42,
          43,
          44,
          45,
          46,
          47,
          48,
          49,
          50,
          51,
          52,
          53,
          54,
          55,
          56,
          57,
          58,
          59,
          60,
          61,
          62,
          63,
          64,
          65,
          66,
          67,
          68,
          69,
          70,
          71,
          72,
          73,
          74,
          75,
          76,
          77,
          78,
          79,
          80,
          81,
          82,
          83,
          84,
          85,
          86,
          87,
          88,
          89,
          90,
          91,
          92,
          93,
          94,
          95,
          96,
          97,
          98,
          99,
          100,
          101,
          102,
          103,
          104,
          105,
          106,
          107,
          108,
          109,
          110,
          111,
          112,
          113,
          114,
          115,
          116,
          117,
          118,
          119,
          120,
          121,
          122,
          123,
          124,
          125,
          126,
          127,
          128,
          129,
          130,
          131,
          132,
          133,
          134,
          135,
          136,
          137,
          138,
          139,
          140,
          141,
          142,
          143,
          144,
          145,
          146,
          147,
          148,
          149,
          150,
          151,
          152,
          153,
          154,
          155,
          156,
          157,
          158,
          159,
          160,
          161,
          162,
          163,
          164,
          165,
          166,
          167,
          168,
          169,
          170,
          171,
          172,
          173,
          174,
          175,
          176,
          177,
          178,
          179,
          180,
          181,
          182,
          183,
          184,
          185,
          186,
          187,
          188,
          189,
          190,
          191,
          192,
          193,
          194,
          195,
          196,
          197,
          198,
          199,
          200,
          201,
          202,
          203,
          204,
          205,
          206,
          207,
          208,
          209,
          210,
          211,
          212,
          213,
          214,
          215,
          216,
          217,
          218,
          219,
          220,
          221,
          222,
          223,
          224,
          225,
          226,
          227,
          228,
          229,
          230,
          231,
          232,
          233,
          234,
          235,
          236,
          237,
          238,
          239,
          240,
          241,
          242,
          243,
          244,
          245,
          246,
          247,
          248,
          249,
          250,
          251,
          252,
          253,
          254,
          255,
          256,
          257,
          258,
          259,
          260,
          261,
          262,
          263,
          264,
          265,
          266,
          267,
          268,
          269,
          270,
          271,
          272,
          273,
          274,
          275,
          276,
          277,
          278,
          279,
          280,
          281,
          282,
          283,
          284,
          285,
          286,
          287,
          288,
          289,
          290,
          291,
          292,
          293,
          294,
          295,
          296,
          297,
          298,
          299,
          300,
          301,
          302,
          303,
          304,
          305,
          306,
          307,
          308,
          309,
          310,
          311,
          312,
          313,
          314,
          315,
          316,
          317,
          318,
          319,
          320,
          321,
          322,
          323,
          324,
          325,
          326,
          327,
          328,
          329,
          330,
          331,
          332,
          333,
          334,
          335,
          336,
          337,
          338,
          339,
          340,
          341,
          342,
          343,
          344,
          345,
          346,
          347,
          348,
          349,
          350,
          351,
          352,
          353,
          354,
          355,
          356,
          357,
          358,
          359,
          360,
          361,
          362,
          363,
          364,
          365,
          366,
          367,
          368,
          369,
          370,
          371,
          372,
          373,
          374,
          375,
          376,
          377,
          378,
          379,
          380,
          381,
          382,
          383,
          384,
          385,
          386,
          387,
          388,
          389,
          390,
          391,
          392,
          393,
          394,
          395,
          396,
          397,
          398,
          399,
          400,
          401,
          402,
          403,
          404,
          405,
          406,
          407,
          408,
          409,
          410
        ],
        "AcquisitionTime": [
          "122241.985000",
          "122243.475000",
          "122244.965000",
          "122246.455000",
          "122247.945000",
          "122249.435000",
          "122250.925000",
          "122252.415000",
          "122253.905000",
          "122255.395000",
          "122256.885000",
          "122258.375000",
          "122259.865000",
          "122301.355000",
          "122302.845000",
          "122304.335000",
          "122305.825000",
          "122307.315000",
          "122308.805000",
          "122310.295000",
          "122311.785000",
          "122313.275000",
          "122314.765000",
          "122316.255000",
          "122317.745000",
          "122319.235000",
          "122320.725000",
          "122322.215000",
          "122323.705000",
          "122325.195000",
          "122326.685000",
          "122328.175000",
          "122329.665000",
          "122331.155000",
          "122332.645000",
          "122334.135000",
          "122335.625000",
          "122337.115000",
          "122338.605000",
          "122340.095000",
          "122341.585000",
          "122343.075000",
          "122344.565000",
          "122346.055000",
          "122347.545000",
          "122349.035000",
          "122350.525000",
          "122352.015000",
          "122353.505000",
          "122354.995000",
          "122356.485000",
          "122357.975000",
          "122359.465000",
          "122400.955000",
          "122402.445000",
          "122403.935000",
          "122405.425000",
          "122406.915000",
          "122408.405000",
          "122409.895000",
          "122411.385000",
          "122412.875000",
          "122414.365000",
          "122415.855000",
          "122417.345000",
          "122418.835000",
          "122420.325000",
          "122421.815000",
          "122423.305000",
          "122424.795000",
          "122426.285000",
          "122427.775000",
          "122429.265000",
          "122430.755000",
          "122432.245000",
          "122433.735000",
          "122435.225000",
          "122436.715000",
          "122438.205000",
          "122439.695000",
          "122441.185000",
          "122442.675000",
          "122444.165000",
          "122445.655000",
          "122447.145000",
          "122448.635000",
          "122450.125000",
          "122451.615000",
          "122453.105000",
          "122454.595000",
          "122456.085000",
          "122457.575000",
          "122459.065000",
          "122500.555000",
          "122502.045000",
          "122503.535000",
          "122505.025000",
          "122506.515000",
          "122508.005000",
          "122509.495000",
          "122510.985000",
          "122512.475000",
          "122513.965000",
          "122515.455000",
          "122516.945000",
          "122518.435000",
          "122519.925000",
          "122521.415000",
          "122522.905000",
          "122524.395000",
          "122525.885000",
          "122527.375000",
          "122528.865000",
          "122530.355000",
          "122531.845000",
          "122533.335000",
          "122534.825000",
          "122536.315000",
          "122537.805000",
          "122539.295000",
          "122540.785000",
          "122542.275000",
          "122543.765000",
          "122545.255000",
          "122546.745000",
          "122548.235000",
          "122549.725000",
          "122551.215000",
          "122552.705000",
          "122554.195000",
          "122555.685000",
          "122557.175000",
          "122558.665000",
          "122600.155000",
          "122601.645000",
          "122603.135000",
          "122604.625000",
          "122606.115000",
          "122607.605000",
          "122609.095000",
          "122610.585000",
          "122612.075000",
          "122613.565000",
          "122615.055000",
          "122616.545000",
          "122618.035000",
          "122619.525000",
          "122621.015000",
          "122622.505000",
          "122623.995000",
          "122625.485000",
          "122626.975000",
          "122628.465000",
          "122629.955000",
          "122631.445000",
          "122632.935000",
          "122634.425000",
          "122635.915000",
          "122637.405000",
          "122638.895000",
          "122640.385000",
          "122641.875000",
          "122643.365000",
          "122644.855000",
          "122646.345000",
          "122647.835000",
          "122649.325000",
          "122650.815000",
          "122652.305000",
          "122653.795000",
          "122655.285000",
          "122656.775000",
          "122658.265000",
          "122659.755000",
          "122701.245000",
          "122702.735000",
          "122704.225000",
          "122705.715000",
          "122707.205000",
          "122708.695000",
          "122710.185000",
          "122711.675000",
          "122713.165000",
          "122714.655000",
          "122716.145000",
          "122717.635000",
          "122719.125000",
          "122720.615000",
          "122722.105000",
          "122723.595000",
          "122725.085000",
          "122726.575000",
          "122728.065000",
          "122729.555000",
          "122731.045000",
          "122732.535000",
          "122734.025000",
          "122735.515000",
          "122737.005000",
          "122738.495000",
          "122739.985000",
          "122741.475000",
          "122742.965000",
          "122744.455000",
          "122745.945000",
          "122747.435000",
          "122748.925000",
          "122750.415000",
          "122751.905000",
          "122753.395000",
          "122754.885000",
          "122756.375000",
          "122757.865000",
          "122759.355000",
          "122800.845000",
          "122802.335000",
          "122803.825000",
          "122805.315000",
          "122806.805000",
          "122808.295000",
          "122809.785000",
          "122811.275000",
          "122812.765000",
          "122814.255000",
          "122815.745000",
          "122817.235000",
          "122818.725000",
          "122820.215000",
          "122821.705000",
          "122823.195000",
          "122824.685000",
          "122826.175000",
          "122827.665000",
          "122829.155000",
          "122830.645000",
          "122832.135000",
          "122833.625000",
          "122835.115000",
          "122836.605000",
          "122838.095000",
          "122839.585000",
          "122841.075000",
          "122842.565000",
          "122844.055000",
          "122845.545000",
          "122847.035000",
          "122848.525000",
          "122850.015000",
          "122851.505000",
          "122852.995000",
          "122854.485000",
          "122855.975000",
          "122857.465000",
          "122858.955000",
          "122900.445000",
          "122901.935000",
          "122903.425000",
          "122904.915000",
          "122906.405000",
          "122907.895000",
          "122909.385000",
          "122910.875000",
          "122912.365000",
          "122913.855000",
          "122915.345000",
          "122916.835000",
          "122918.325000",
          "122919.815000",
          "122921.305000",
          "122922.795000",
          "122924.285000",
          "122925.775000",
          "122927.265000",
          "122928.755000",
          "122930.245000",
          "122931.735000",
          "122933.225000",
          "122934.715000",
          "122936.205000",
          "122937.695000",
          "122939.185000",
          "122940.675000",
          "122942.165000",
          "122943.655000",
          "122945.145000",
          "122946.635000",
          "122948.125000",
          "122949.615000",
          "122951.105000",
          "122952.595000",
          "122954.085000",
          "122955.575000",
          "122957.065000",
          "122958.555000",
          "123000.045000",
          "123001.535000",
          "123003.025000",
          "123004.515000",
          "123006.005000",
          "123007.495000",
          "123008.985000",
          "123010.475000",
          "123011.965000",
          "123013.455000",
          "123014.945000",
          "123016.435000",
          "123017.925000",
          "123019.415000",
          "123020.905000",
          "123022.395000",
          "123023.885000",
          "123025.375000",
          "123026.865000",
          "123028.355000",
          "123029.845000",
          "123031.335000",
          "123032.825000",
          "123034.315000",
          "123035.805000",
          "123037.295000",
          "123038.785000",
          "123040.275000",
          "123041.765000",
          "123043.255000",
          "123044.745000",
          "123046.235000",
          "123047.725000",
          "123049.215000",
          "123050.705000",
          "123052.195000",
          "123053.685000",
          "123055.175000",
          "123056.665000",
          "123058.155000",
          "123059.645000",
          "123101.135000",
          "123102.625000",
          "123104.115000",
          "123105.605000",
          "123107.095000",
          "123108.585000",
          "123110.075000",
          "123111.565000",
          "123113.055000",
          "123114.545000",
          "123116.035000",
          "123117.525000",
          "123119.015000",
          "123120.505000",
          "123121.995000",
          "123123.485000",
          "123124.975000",
          "123126.465000",
          "123127.955000",
          "123129.445000",
          "123130.935000",
          "123132.425000",
          "123133.915000",
          "123135.405000",
          "123136.895000",
          "123138.385000",
          "123139.875000",
          "123141.365000",
          "123142.855000",
          "123144.345000",
          "123145.835000",
          "123147.325000",
          "123148.815000",
          "123150.305000",
          "123151.795000",
          "123153.285000",
          "123154.775000",
          "123156.265000",
          "123157.755000",
          "123159.245000",
          "123200.735000",
          "123202.225000",
          "123203.715000",
          "123205.205000",
          "123206.695000",
          "123208.185000",
          "123209.675000",
          "123211.165000",
          "123212.655000",
          "123214.145000",
          "123215.635000",
          "123217.125000",
          "123218.615000",
          "123220.105000",
          "123221.595000",
          "123223.085000",
          "123224.575000",
          "123226.065000",
          "123227.555000",
          "123229.045000",
          "123230.535000",
          "123232.025000",
          "123233.515000",
          "123235.005000",
          "123236.495000",
          "123237.985000",
          "123239.475000",
          "123240.965000",
          "123242.455000",
          "123243.945000",
          "123245.435000",
          "123246.925000",
          "123248.415000",
          "123249.905000",
          "123251.395000"
        ],
        "ContentTime": [
          "122412.196000",
          "122412.199000",
          "122412.202000",
          "122412.205000",
          "122412.208000",
          "122412.211000",
          "122412.214000",
          "122412.216000",
          "122412.219000",
          "122412.239000",
          "122412.241000",
          "122412.244000",
          "122412.247000",
          "122412.250000",
          "122412.253000",
          "122412.256000",
          "122412.259000",
          "122412.261000",
          "122412.264000",
          "122412.273000",
          "122412.276000",
          "122412.279000",
          "122412.282000",
          "122412.285000",
          "122412.287000",
          "122412.290000",
          "122412.293000",
          "122412.296000",
          "122412.299000",
          "122412.307000",
          "122412.310000",
          "122412.313000",
          "122412.316000",
          "122412.327000",
          "122412.330000",
          "122412.333000",
          "122412.335000",
          "122432.153000",
          "122432.156000",
          "122432.159000",
          "122432.162000",
          "122432.164000",
          "122432.167000",
          "122432.170000",
          "122432.173000",
          "122432.176000",
          "122432.179000",
          "122432.181000",
          "122432.184000",
          "122432.187000",
          "122432.190000",
          "122432.193000",
          "122432.205000",
          "122432.208000",
          "122432.210000",
          "122432.213000",
          "122432.216000",
          "122432.221000",
          "122452.153000",
          "122452.156000",
          "122452.158000",
          "122452.161000",
          "122452.164000",
          "122452.167000",
          "122452.170000",
          "122452.172000",
          "122452.175000",
          "122452.178000",
          "122452.181000",
          "122452.184000",
          "122452.187000",
          "122452.190000",
          "122452.192000",
          "122452.195000",
          "122452.198000",
          "122452.201000",
          "122452.204000",
          "122452.206000",
          "122512.153000",
          "122512.156000",
          "122512.158000",
          "122512.161000",
          "122512.164000",
          "122512.167000",
          "122512.170000",
          "122512.173000",
          "122512.175000",
          "122512.179000",
          "122512.181000",
          "122512.184000",
          "122512.187000",
          "122512.190000",
          "122512.193000",
          "122512.196000",
          "122512.198000",
          "122512.201000",
          "122512.204000",
          "122512.207000",
          "122552.153000",
          "122552.156000",
          "122552.159000",
          "122552.162000",
          "122552.165000",
          "122552.167000",
          "122552.170000",
          "122552.173000",
          "122552.176000",
          "122552.179000",
          "122552.182000",
          "122552.184000",
          "122552.187000",
          "122552.190000",
          "122552.193000",
          "122552.196000",
          "122552.199000",
          "122552.202000",
          "122552.204000",
          "122552.207000",
          "122552.210000",
          "122552.213000",
          "122552.216000",
          "122552.219000",
          "122552.222000",
          "122552.224000",
          "122552.227000",
          "122552.230000",
          "122552.233000",
          "122632.153000",
          "122632.156000",
          "122632.159000",
          "122632.162000",
          "122632.164000",
          "122632.167000",
          "122632.170000",
          "122632.173000",
          "122632.176000",
          "122632.179000",
          "122632.182000",
          "122632.184000",
          "122632.187000",
          "122632.190000",
          "122632.193000",
          "122632.195000",
          "122632.198000",
          "122632.201000",
          "122632.204000",
          "122632.207000",
          "122632.210000",
          "122632.213000",
          "122632.215000",
          "122632.218000",
          "122632.221000",
          "122632.224000",
          "122632.227000",
          "122712.153000",
          "122712.156000",
          "122712.159000",
          "122712.161000",
          "122712.164000",
          "122712.167000",
          "122712.170000",
          "122712.173000",
          "122712.176000",
          "122712.179000",
          "122712.181000",
          "122712.184000",
          "122712.187000",
          "122712.190000",
          "122712.193000",
          "122712.196000",
          "122712.199000",
          "122712.201000",
          "122712.204000",
          "122712.207000",
          "122712.210000",
          "122712.213000",
          "122712.216000",
          "122712.219000",
          "122712.222000",
          "122712.224000",
          "122712.227000",
          "122752.153000",
          "122752.156000",
          "122752.159000",
          "122752.162000",
          "122752.164000",
          "122752.167000",
          "122752.170000",
          "122752.173000",
          "122752.176000",
          "122752.179000",
          "122752.181000",
          "122752.184000",
          "122752.187000",
          "122752.190000",
          "122752.193000",
          "122752.195000",
          "122752.198000",
          "122752.201000",
          "122752.204000",
          "122752.207000",
          "122752.211000",
          "122752.214000",
          "122752.217000",
          "122752.220000",
          "122752.222000",
          "122752.225000",
          "122832.153000",
          "122832.156000",
          "122832.159000",
