{
  "aor": 0.000552258064516129,
  "aqi": 0.012816723300248137,
  "bids_meta": {
    "AcquisitionMatrixPE": 104,
    "AcquisitionNumber": 1,
    "AcquisitionTime": "12:44:48.992500",
    "BandwidthPerPixelPhaseEncode": 17.17,
    "BaseResolution": 104,
    "BodyPartExamined": "BRAIN",
    "CogAtlasID": "trm_4c898da401420",
    "CoilString": "HC1-7;NC1_2",
    "ConsistencyInfo": "N4_VE11C_LATEST_20160120",
    "ConversionSoftware": "dcm2niix",
    "ConversionSoftwareVersion": "v1.0.20190720  (JP2:OpenJPEG) GCC7.3.0",
    "DerivedVendorReportedEchoSpacing": 0.000560011,
    "DeviceSerialNumber": "167006",
    "DwellTime": 2.1e-06,
    "EchoTime": 0.037,
    "EchoTrainLength": 104,
    "EffectiveEchoSpacing": 0.000560011,
    "FlipAngle": 52,
    "ImageComments": "Unaliased_MB4_PE3_LB",
    "ImageOrientationPatientDICOM": [
      0.995856,
      0.0533544,
      -0.073644,
      -0.0652719,
      0.983227,
      -0.170305
    ],
    "ImageType": [
      "ORIGINAL",
      "PRIMARY",
      "M",
      "MB",
      "ND",
      "MOSAIC"
    ],
    "ImagingFrequency": 123.259,
    "InPlanePhaseEncodingDirectionDICOM": "COL",
    "InstitutionAddress": "Chemin_Queen-Mary_4565_Montreal_District_CA_H3W_1W5",
    "InstitutionName": "IUGM",
    "InstitutionalDepartmentName": "Department",
    "MRAcquisitionType": "2D",
    "MagneticFieldStrength": 3,
    "Manufacturer": "Siemens",
    "ManufacturersModelName": "Prisma_fit",
    "Modality": "MR",
    "MultibandAccelerationFactor": 4,
    "PartialFourier": 1,
    "PatientPosition": "HFS",
    "PercentPhaseFOV": 100,
    "PhaseEncodingDirection": "j-",
    "PhaseEncodingSteps": 104,
    "PhaseResolution": 1,
    "PixelBandwidth": 2290,
    "ProcedureStepDescription": "video5_generic",
    "ProtocolName": "func_task-bourne1",
    "PulseSequenceDetails": "%CustomerSeq%_cmrr_mbep2d_bold",
    "ReceiveCoilActiveElements": "HC1-7;NC1,2",
    "ReceiveCoilName": "HeadNeck_64",
    "ReconMatrixPE": 104,
    "RepetitionTime": 1.49,
    "SAR": 0.0329511,
    "ScanOptions": "FS",
    "ScanningSequence": "EP",
    "SequenceName": "epfid2d1_104",
    "SequenceVariant": "SK_SS",
    "SeriesDescription": "func_task-bourne1",
    "SeriesNumber": 24,
    "ShimSetting": [
      595,
      -7270,
      -8830,
      553,
      -80,
      -307,
      -3,
      65
    ],
    "SliceThickness": 2,
    "SliceTiming": [
      0,
      0.785,
      0.0975,
      0.8825,
      0.195,
      0.98,
      0.295,
      1.0775,
      0.3925,
      1.175,
      0.49,
      1.275,
      0.5875,
      1.3725,
      0.685,
      0,
      0.785,
      0.0975,
      0.8825,
      0.195,
      0.98,
      0.295,
      1.0775,
      0.3925,
      1.175,
      0.49,
      1.275,
      0.5875,
      1.3725,
      0.685,
      0,
      0.785,
      0.0975,
      0.8825,
      0.195,
      0.98,
      0.295,
      1.0775,
      0.3925,
      1.175,
      0.49,
      1.275,
      0.5875,
      1.3725,
      0.685,
      0,
      0.785,
      0.0975,
      0.8825,
      0.195,
      0.98,
      0.295,
      1.0775,
      0.3925,
      1.175,
      0.49,
      1.275,
      0.5875,
      1.3725,
      0.685
    ],
    "SoftwareVersions": "syngo_MR_E11",
    "SpacingBetweenSlices": 2,
    "StationName": "MRC35049",
    "TaskName": "bourne01",
    "TotalReadoutTime": 0.0576811,
    "TxRefAmp": 218.11,
    "WipMemBlock": "82f994b4-c649-4bbb-9c47-f3d1080bd09e||Sequence: R016 ve11c/master r/e634e98; Dec 19 2017 11:00:25 by eja",
    "dataset": "<unset>",
    "dcmmeta_affine": [
      [
        -1.9917126893997192,
        -0.1305437684059143,
        -0.12664461135864258,
        110.74897003173828
      ],
      [
        -0.10670880973339081,
        1.9664546251296997,
        -0.34881144762039185,
        -69.13129425048828
      ],
      [
        -0.1472880244255066,
        0.34060904383659363,
        1.9652713537216187,
        -40.88555145263672
      ],
      [
        0.0,
        0.0,
        0.0,
        1.0
      ]
    ],
    "dcmmeta_reorient_transform": [
      [
        0.0,
        -1.0,
        0.0,
        103.0
      ],
      [
        1.0,
        0.0,
        0.0,
        0.0
      ],
      [
        0.0,
        0.0,
        1.0,
        0.0
      ],
      [
        0.0,
        0.0,
        0.0,
        1.0
      ]
    ],
    "dcmmeta_shape": [
      104,
      104,
      60,
      403
    ],
    "dcmmeta_slice_dim": 2,
    "dcmmeta_version": 0.6,
    "global": {
      "const": {
        "AcquisitionMatrix": [
          104,
          0,
          0,
          104
        ],
        "AngioFlag": "N",
        "BitsAllocated": 16,
        "BitsStored": 16,
        "BodyPartExamined": "BRAIN",
        "Columns": 832,
        "EchoNumbers": 1,
        "EchoTime": 37.0,
        "EchoTrainLength": 104,
        "FlipAngle": 52.0,
        "HighBit": 15,
        "ImageOrientationPatient": [
          0.99585634850546,
          0.05335440620288,
          -0.0736440118415,
          -0.0652718815488,
          0.98322731447004,
          -0.1703045200784
        ],
        "ImagePositionPatient": [
          -774.76845360809,
          -888.04502709181,
          171.79170901388
        ],
        "ImageType": [
          "ORIGINAL",
          "PRIMARY",
          "M",
          "MB",
          "ND",
          "MOSAIC"
        ],
        "ImagedNucleus": "1H",
        "ImagingFrequency": 123.259201,
        "InPlanePhaseEncodingDirection": "COL",
        "MRAcquisitionType": "2D",
        "MagneticFieldStrength": 3.0,
        "Manufacturer": "SIEMENS",
        "ManufacturerModelName": "Prisma_fit",
        "Modality": "MR",
        "NumberOfAverages": 1.0,
        "NumberOfPhaseEncodingSteps": 104,
        "PercentPhaseFieldOfView": 100.0,
        "PercentSampling": 100.0,
        "PerformedProcedureStepStartTime": "112903.787000",
        "PhotometricInterpretation": "MONOCHROME2",
        "PixelBandwidth": 2290.0,
        "PixelRepresentation": 0,
        "PixelSpacing": [
          2.0,
          2.0
        ],
        "ProtocolName": "func_task-bourne1",
        "RepetitionTime": 1490.0,
        "Rows": 832,
        "SAR": 0.03295111049908,
        "SamplesPerPixel": 1,
        "ScanOptions": "FS",
        "ScanningSequence": "EP",
        "SequenceName": "epfid2d1_104",
        "SequenceVariant": [
          "SK",
          "SS"
        ],
        "SeriesDescription": "func_task-bourne1",
        "SeriesNumber": 24,
        "SeriesTime": "124606.408000",
        "SliceLocation": -35.131591992198,
        "SliceThickness": 2.0,
        "SmallestImagePixelValue": 0,
        "SoftwareVersions": "syngo MR E11",
        "SpacingBetweenSlices": 1.9999999741634,
        "SpecificCharacterSet": "ISO_IR 100",
        "StudyID": "1",
        "StudyTime": "112903.625000",
        "TransmitCoilName": "Body",
        "VariableFlipAngleFlag": "N",
        "WindowCenterWidthExplanation": "Algo1",
        "dBdt": 0.0
      },
      "slices": {}
    },
    "modality": "bold",
    "session_id": "007",
    "subject_id": "04",
    "task_id": "bourne01",
    "time": {
      "samples": {
        "AcquisitionNumber": [
          1,
          2,
          3,
          4,
          5,
          6,
          7,
          8,
          9,
          10,
          11,
          12,
          13,
          14,
          15,
          16,
          17,
          18,
          19,
          20,
          21,
          22,
          23,
          24,
          25,
          26,
          27,
          28,
          29,
          30,
          31,
          32,
          33,
          34,
          35,
          36,
          37,
          38,
          39,
          40,
          41,
          42,
          43,
          44,
          45,
          46,
          47,
          48,
          49,
          50,
          51,
          52,
          53,
          54,
          55,
          56,
          57,
          58,
          59,
          60,
          61,
          62,
          63,
          64,
          65,
          66,
          67,
          68,
          69,
          70,
          71,
          72,
          73,
          74,
          75,
          76,
          77,
          78,
          79,
          80,
          81,
          82,
          83,
          84,
          85,
          86,
          87,
          88,
          89,
          90,
          91,
          92,
          93,
          94,
          95,
          96,
          97,
          98,
          99,
          100,
          101,
          102,
          103,
          104,
          105,
          106,
          107,
          108,
          109,
          110,
          111,
          112,
          113,
          114,
          115,
          116,
          117,
          118,
          119,
          120,
          121,
          122,
          123,
          124,
          125,
          126,
          127,
          128,
          129,
          130,
          131,
          132,
          133,
          134,
          135,
          136,
          137,
          138,
          139,
          140,
          141,
          142,
          143,
          144,
          145,
          146,
          147,
          148,
          149,
          150,
          151,
          152,
          153,
          154,
          155,
          156,
          157,
          158,
          159,
          160,
          161,
          162,
          163,
          164,
          165,
          166,
          167,
          168,
          169,
          170,
          171,
          172,
          173,
          174,
          175,
          176,
          177,
          178,
          179,
          180,
          181,
          182,
          183,
          184,
          185,
          186,
          187,
          188,
          189,
          190,
          191,
          192,
          193,
          194,
          195,
          196,
          197,
          198,
          199,
          200,
          201,
          202,
          203,
          204,
          205,
          206,
          207,
          208,
          209,
          210,
          211,
          212,
          213,
          214,
          215,
          216,
          217,
          218,
          219,
          220,
          221,
          222,
          223,
          224,
          225,
          226,
          227,
          228,
          229,
          230,
          231,
          232,
          233,
          234,
          235,
          236,
          237,
          238,
          239,
          240,
          241,
          242,
          243,
          244,
          245,
          246,
          247,
          248,
          249,
          250,
          251,
          252,
          253,
          254,
          255,
          256,
          257,
          258,
          259,
          260,
          261,
          262,
          263,
          264,
          265,
          266,
          267,
          268,
          269,
          270,
          271,
          272,
          273,
          274,
          275,
          276,
          277,
          278,
          279,
          280,
          281,
          282,
          283,
          284,
          285,
          286,
          287,
          288,
          289,
          290,
          291,
          292,
          293,
          294,
          295,
          296,
          297,
          298,
          299,
          300,
          301,
          302,
          303,
          304,
          305,
          306,
          307,
          308,
          309,
          310,
          311,
          312,
          313,
          314,
          315,
          316,
          317,
          318,
          319,
          320,
          321,
          322,
          323,
          324,
          325,
          326,
          327,
          328,
          329,
          330,
          331,
          332,
          333,
          334,
          335,
          336,
          337,
          338,
          339,
          340,
          341,
          342,
          343,
          344,
          345,
          346,
          347,
          348,
          349,
          350,
          351,
          352,
          353,
          354,
          355,
          356,
          357,
          358,
          359,
          360,
          361,
          362,
          363,
          364,
          365,
          366,
          367,
          368,
          369,
          370,
          371,
          372,
          373,
          374,
          375,
          376,
          377,
          378,
          379,
          380,
          381,
          382,
          383,
          384,
          385,
          386,
          387,
          388,
          389,
          390,
          391,
          392,
          393,
          394,
          395,
          396,
          397,
          398,
          399,
          400,
          401,
          402,
          403
        ],
        "AcquisitionTime": [
          "124448.992500",
          "124450.482500",
          "124451.972500",
          "124453.462500",
          "124454.952500",
          "124456.442500",
          "124457.932500",
          "124459.422500",
          "124500.912500",
          "124502.402500",
          "124503.892500",
          "124505.382500",
          "124506.872500",
          "124508.362500",
          "124509.852500",
          "124511.342500",
          "124512.832500",
          "124514.322500",
          "124515.812500",
          "124517.302500",
          "124518.792500",
          "124520.282500",
          "124521.772500",
          "124523.262500",
          "124524.752500",
          "124526.242500",
          "124527.732500",
          "124529.222500",
          "124530.712500",
          "124532.202500",
          "124533.692500",
          "124535.182500",
          "124536.672500",
          "124538.162500",
          "124539.652500",
          "124541.142500",
          "124542.632500",
          "124544.122500",
          "124545.612500",
          "124547.102500",
          "124548.592500",
          "124550.082500",
          "124551.572500",
          "124553.062500",
          "124554.552500",
          "124556.042500",
          "124557.532500",
          "124559.022500",
          "124600.512500",
          "124602.002500",
          "124603.492500",
          "124604.982500",
          "124606.472500",
          "124607.962500",
          "124609.452500",
          "124610.942500",
          "124612.432500",
          "124613.922500",
          "124615.412500",
          "124616.902500",
          "124618.392500",
          "124619.882500",
          "124621.372500",
          "124622.862500",
          "124624.352500",
          "124625.842500",
          "124627.332500",
          "124628.822500",
          "124630.312500",
          "124631.802500",
          "124633.292500",
          "124634.782500",
          "124636.272500",
          "124637.762500",
          "124639.252500",
          "124640.742500",
          "124642.232500",
          "124643.722500",
          "124645.212500",
          "124646.702500",
          "124648.192500",
          "124649.682500",
          "124651.172500",
          "124652.662500",
          "124654.152500",
          "124655.642500",
          "124657.132500",
          "124658.622500",
          "124700.112500",
          "124701.602500",
          "124703.092500",
          "124704.582500",
          "124706.072500",
          "124707.562500",
          "124709.052500",
          "124710.542500",
          "124712.032500",
          "124713.522500",
          "124715.012500",
          "124716.502500",
          "124717.992500",
          "124719.482500",
          "124720.972500",
          "124722.462500",
          "124723.952500",
          "124725.442500",
          "124726.932500",
          "124728.422500",
          "124729.912500",
          "124731.402500",
          "124732.892500",
          "124734.382500",
          "124735.872500",
          "124737.362500",
          "124738.852500",
          "124740.342500",
          "124741.832500",
          "124743.322500",
          "124744.812500",
          "124746.302500",
          "124747.792500",
          "124749.282500",
          "124750.772500",
          "124752.262500",
          "124753.752500",
          "124755.242500",
          "124756.732500",
          "124758.222500",
          "124759.712500",
          "124801.202500",
          "124802.692500",
          "124804.182500",
          "124805.672500",
          "124807.162500",
          "124808.652500",
          "124810.142500",
          "124811.632500",
          "124813.122500",
          "124814.612500",
          "124816.102500",
          "124817.592500",
          "124819.082500",
          "124820.572500",
          "124822.062500",
          "124823.552500",
          "124825.042500",
          "124826.532500",
          "124828.022500",
          "124829.512500",
          "124831.002500",
          "124832.492500",
          "124833.982500",
          "124835.472500",
          "124836.962500",
          "124838.452500",
          "124839.942500",
          "124841.432500",
          "124842.922500",
          "124844.412500",
          "124845.902500",
          "124847.392500",
          "124848.882500",
          "124850.372500",
          "124851.862500",
          "124853.352500",
          "124854.842500",
          "124856.332500",
          "124857.822500",
          "124859.312500",
          "124900.802500",
          "124902.292500",
          "124903.782500",
          "124905.272500",
          "124906.762500",
          "124908.252500",
          "124909.742500",
          "124911.232500",
          "124912.722500",
          "124914.212500",
          "124915.702500",
          "124917.192500",
          "124918.682500",
          "124920.172500",
          "124921.662500",
          "124923.152500",
          "124924.642500",
          "124926.132500",
          "124927.622500",
          "124929.112500",
          "124930.602500",
          "124932.092500",
          "124933.582500",
          "124935.072500",
          "124936.562500",
          "124938.052500",
          "124939.542500",
          "124941.032500",
          "124942.522500",
          "124944.012500",
          "124945.502500",
          "124946.992500",
          "124948.482500",
          "124949.972500",
          "124951.462500",
          "124952.952500",
          "124954.442500",
          "124955.932500",
          "124957.422500",
          "124958.912500",
          "125000.402500",
          "125001.892500",
          "125003.382500",
          "125004.872500",
          "125006.362500",
          "125007.852500",
          "125009.342500",
          "125010.832500",
          "125012.322500",
          "125013.812500",
          "125015.302500",
          "125016.792500",
          "125018.282500",
          "125019.772500",
          "125021.262500",
          "125022.752500",
          "125024.242500",
          "125025.732500",
          "125027.222500",
          "125028.712500",
          "125030.202500",
          "125031.692500",
          "125033.182500",
          "125034.672500",
          "125036.162500",
          "125037.652500",
          "125039.142500",
          "125040.632500",
          "125042.122500",
          "125043.612500",
          "125045.102500",
          "125046.592500",
          "125048.082500",
          "125049.572500",
          "125051.062500",
          "125052.552500",
          "125054.042500",
          "125055.532500",
          "125057.022500",
          "125058.512500",
          "125100.002500",
          "125101.492500",
          "125102.982500",
          "125104.472500",
          "125105.962500",
          "125107.452500",
          "125108.942500",
          "125110.432500",
          "125111.922500",
          "125113.412500",
          "125114.902500",
          "125116.392500",
          "125117.882500",
          "125119.372500",
          "125120.862500",
          "125122.352500",
          "125123.842500",
          "125125.332500",
          "125126.822500",
          "125128.312500",
          "125129.802500",
          "125131.292500",
          "125132.782500",
          "125134.272500",
          "125135.762500",
          "125137.252500",
          "125138.742500",
          "125140.232500",
          "125141.722500",
          "125143.212500",
          "125144.702500",
          "125146.192500",
          "125147.682500",
          "125149.172500",
          "125150.662500",
          "125152.152500",
          "125153.642500",
          "125155.132500",
          "125156.622500",
          "125158.112500",
          "125159.602500",
          "125201.092500",
          "125202.582500",
          "125204.072500",
          "125205.562500",
          "125207.052500",
          "125208.542500",
          "125210.032500",
          "125211.522500",
          "125213.012500",
          "125214.502500",
          "125215.992500",
          "125217.482500",
          "125218.972500",
          "125220.462500",
          "125221.952500",
          "125223.442500",
          "125224.932500",
          "125226.422500",
          "125227.912500",
          "125229.402500",
          "125230.892500",
          "125232.382500",
          "125233.872500",
          "125235.362500",
          "125236.852500",
          "125238.342500",
          "125239.832500",
          "125241.322500",
          "125242.812500",
          "125244.302500",
          "125245.792500",
          "125247.282500",
          "125248.772500",
          "125250.262500",
          "125251.752500",
          "125253.242500",
          "125254.732500",
          "125256.222500",
          "125257.712500",
          "125259.202500",
          "125300.692500",
          "125302.182500",
          "125303.672500",
          "125305.162500",
          "125306.652500",
          "125308.142500",
          "125309.632500",
          "125311.122500",
          "125312.612500",
          "125314.102500",
          "125315.592500",
          "125317.082500",
          "125318.572500",
          "125320.062500",
          "125321.552500",
          "125323.042500",
          "125324.532500",
          "125326.022500",
          "125327.512500",
          "125329.002500",
          "125330.492500",
          "125331.982500",
          "125333.472500",
          "125334.962500",
          "125336.452500",
          "125337.942500",
          "125339.432500",
          "125340.922500",
          "125342.412500",
          "125343.902500",
          "125345.392500",
          "125346.882500",
          "125348.372500",
          "125349.862500",
          "125351.352500",
          "125352.842500",
          "125354.332500",
          "125355.822500",
          "125357.312500",
          "125358.802500",
          "125400.292500",
          "125401.782500",
          "125403.272500",
          "125404.762500",
          "125406.252500",
          "125407.742500",
          "125409.232500",
          "125410.722500",
          "125412.212500",
          "125413.702500",
          "125415.192500",
          "125416.682500",
          "125418.172500",
          "125419.662500",
          "125421.152500",
          "125422.642500",
          "125424.132500",
          "125425.622500",
          "125427.112500",
          "125428.602500",
          "125430.092500",
          "125431.582500",
          "125433.072500",
          "125434.562500",
          "125436.052500",
          "125437.542500",
          "125439.032500",
          "125440.522500",
          "125442.012500",
          "125443.502500",
          "125444.992500",
          "125446.482500",
          "125447.972500"
        ],
        "ContentTime": [
          "124606.411000",
          "124606.414000",
          "124606.417000",
          "124606.420000",
          "124606.423000",
          "124606.425000",
          "124606.428000",
          "124606.431000",
          "124606.434000",
          "124606.437000",
          "124606.440000",
          "124606.443000",
          "124606.445000",
          "124606.448000",
          "124606.451000",
          "124606.454000",
          "124606.457000",
          "124606.460000",
          "124606.462000",
          "124606.468000",
          "124606.471000",
          "124606.482000",
          "124606.485000",
          "124626.358000",
          "124626.361000",
          "124626.364000",
          "124626.367000",
          "124626.369000",
          "124626.372000",
          "124626.384000",
          "124626.386000",
          "124626.389000",
          "124626.392000",
          "124626.395000",
          "124626.398000",
          "124626.401000",
          "124626.408000",
          "124626.411000",
          "124626.414000",
          "124626.417000",
          "124626.420000",
          "124626.423000",
          "124626.426000",
          "124646.359000",
          "124646.362000",
          "124646.365000",
          "124646.368000",
          "124646.370000",
          "124646.373000",
          "124646.376000",
          "124646.379000",
          "124646.382000",
          "124646.385000",
          "124646.399000",
          "124646.402000",
          "124646.404000",
          "124646.407000",
          "124646.410000",
          "124646.413000",
          "124646.416000",
          "124646.419000",
          "124646.421000",
          "124646.424000",
          "124706.359000",
          "124706.362000",
          "124706.365000",
          "124706.368000",
          "124706.371000",
          "124706.373000",
          "124706.376000",
          "124706.379000",
          "124706.382000",
          "124706.385000",
          "124706.388000",
          "124706.390000",
          "124706.393000",
          "124706.396000",
          "124706.399000",
          "124706.402000",
          "124706.405000",
          "124706.408000",
          "124706.411000",
          "124706.413000",
          "124706.416000",
          "124726.358000",
          "124726.361000",
          "124726.364000",
          "124726.367000",
          "124726.369000",
          "124726.372000",
          "124726.375000",
          "124726.378000",
          "124726.381000",
          "124726.384000",
          "124726.387000",
          "124726.389000",
          "124726.392000",
          "124726.395000",
          "124726.398000",
          "124726.401000",
          "124726.404000",
          "124726.407000",
          "124726.410000",
          "124726.412000",
          "124806.358000",
          "124806.361000",
          "124806.364000",
          "124806.366000",
          "124806.369000",
          "124806.372000",
          "124806.375000",
          "124806.378000",
          "124806.381000",
          "124806.383000",
          "124806.386000",
          "124806.389000",
          "124806.392000",
          "124806.395000",
          "124806.398000",
          "124806.401000",
          "124806.410000",
          "124806.413000",
          "124806.416000",
          "124806.419000",
          "124806.421000",
          "124806.424000",
          "124806.427000",
          "124806.430000",
          "124806.433000",
          "124806.436000",
          "124806.438000",
          "124846.358000",
          "124846.361000",
          "124846.364000",
          "124846.367000",
          "124846.370000",
          "124846.373000",
          "124846.376000",
          "124846.379000",
          "124846.382000",
          "124846.385000",
          "124846.388000",
          "124846.391000",
          "124846.393000",
          "124846.396000",
          "124846.399000",
          "124846.402000",
          "124846.405000",
          "124846.408000",
          "124846.411000",
          "124846.413000",
          "124846.416000",
          "124846.419000",
          "124846.422000",
          "124846.425000",
          "124846.428000",
          "124846.430000",
          "124846.433000",
          "124926.359000",
          "124926.362000",
          "124926.365000",
          "124926.368000",
          "124926.371000",
          "124926.374000",
          "124926.376000",
          "124926.379000",
          "124926.382000",
          "124926.385000",
          "124926.388000",
          "124926.391000",
          "124926.394000",
          "124926.397000",
          "124926.399000",
          "124926.402000",
          "124926.405000",
          "124926.408000",
          "124926.411000",
          "124926.414000",
          "124926.417000",
          "124926.420000",
          "124926.422000",
          "124926.425000",
          "124926.428000",
          "124926.431000",
          "124926.434000",
          "125006.358000",
          "125006.361000",
          "125006.364000",
          "125006.367000",
          "125006.369000",
          "125006.372000",
          "125006.375000",
          "125006.378000",
          "125006.381000",
          "125006.384000",
          "125006.400000",
          "125006.403000",
          "125006.406000",
          "125006.409000",
          "125006.412000",
          "125006.414000",
          "125006.417000",
          "125006.426000",
          "125006.429000",
          "125006.432000",
          "125006.435000",
          "125006.438000",
          "125006.441000",
          "125006.444000",
          "125006.447000",
          "125006.449000",
          "125006.452000",
          "125046.358000",
          "125046.361000",
          "125046.364000",
          "125046.367000",
          "125046.370000",
          "125046.373000",
          "125046.376000",
          "125046.378000",
          "125046.381000",
