{
  "aor": 0.0006348655256723716,
  "aqi": 0.007139601442542788,
  "bids_meta": {
    "AcquisitionMatrixPE": 104,
    "AcquisitionNumber": 1,
    "AcquisitionTime": "11:54:28.647500",
    "BandwidthPerPixelPhaseEncode": 17.17,
    "BaseResolution": 104,
    "BodyPartExamined": "BRAIN",
    "CogAtlasID": "trm_4c898da401420",
    "CoilString": "HC1-7;NC1_2",
    "ConsistencyInfo": "N4_VE11C_LATEST_20160120",
    "ConversionSoftware": "dcm2niix",
    "ConversionSoftwareVersion": "v1.0.20190720  (JP2:OpenJPEG) GCC7.3.0",
    "DerivedVendorReportedEchoSpacing": 0.000560011,
    "DeviceSerialNumber": "167006",
    "DwellTime": 2.1e-06,
    "EchoTime": 0.037,
    "EchoTrainLength": 104,
    "EffectiveEchoSpacing": 0.000560011,
    "FlipAngle": 52,
    "ImageComments": "Unaliased_MB4_PE3_LB",
    "ImageOrientationPatientDICOM": [
      0.996762,
      0.0434919,
      -0.0676368,
      -0.0527614,
      0.988469,
      -0.141937
    ],
    "ImageType": [
      "ORIGINAL",
      "PRIMARY",
      "M",
      "MB",
      "ND",
      "MOSAIC"
    ],
    "ImagingFrequency": 123.259,
    "InPlanePhaseEncodingDirectionDICOM": "COL",
    "InstitutionAddress": "Chemin_Queen-Mary_4565_Montreal_District_CA_H3W_1W5",
    "InstitutionName": "IUGM",
    "InstitutionalDepartmentName": "Department",
    "MRAcquisitionType": "2D",
    "MagneticFieldStrength": 3,
    "Manufacturer": "Siemens",
    "ManufacturersModelName": "Prisma_fit",
    "Modality": "MR",
    "MultibandAccelerationFactor": 4,
    "PartialFourier": 1,
    "PatientPosition": "HFS",
    "PercentPhaseFOV": 100,
    "PhaseEncodingDirection": "j-",
    "PhaseEncodingSteps": 104,
    "PhaseResolution": 1,
    "PixelBandwidth": 2290,
    "ProcedureStepDescription": "video5_generic",
    "ProtocolName": "func_task-life2",
    "PulseSequenceDetails": "%CustomerSeq%_cmrr_mbep2d_bold",
    "ReceiveCoilActiveElements": "HC1-7;NC1,2",
    "ReceiveCoilName": "HeadNeck_64",
    "ReconMatrixPE": 104,
    "RepetitionTime": 1.49,
    "SAR": 0.0315382,
    "ScanOptions": "FS",
    "ScanningSequence": "EP",
    "SequenceName": "epfid2d1_104",
    "SequenceVariant": "SK_SS",
    "SeriesDescription": "func_task-life2",
    "SeriesNumber": 9,
    "ShimSetting": [
      595,
      -7276,
      -8812,
      561,
      -61,
      -332,
      -9,
      66
    ],
    "SliceThickness": 2,
    "SliceTiming": [
      0,
      0.785,
      0.0975,
      0.8825,
      0.1975,
      0.98,
      0.295,
      1.0775,
      0.3925,
      1.1775,
      0.49,
      1.275,
      0.5875,
      1.3725,
      0.6875,
      0,
      0.785,
      0.0975,
      0.8825,
      0.1975,
      0.98,
      0.295,
      1.0775,
      0.3925,
      1.1775,
      0.49,
      1.275,
      0.5875,
      1.3725,
      0.6875,
      0,
      0.785,
      0.0975,
      0.8825,
      0.1975,
      0.98,
      0.295,
      1.0775,
      0.3925,
      1.1775,
      0.49,
      1.275,
      0.5875,
      1.3725,
      0.6875,
      0,
      0.785,
      0.0975,
      0.8825,
      0.1975,
      0.98,
      0.295,
      1.0775,
      0.3925,
      1.1775,
      0.49,
      1.275,
      0.5875,
      1.3725,
      0.6875
    ],
    "SoftwareVersions": "syngo_MR_E11",
    "SpacingBetweenSlices": 2,
    "StationName": "MRC35049",
    "TaskName": "life02",
    "TotalReadoutTime": 0.0576811,
    "TxRefAmp": 214.398,
    "WipMemBlock": "677cf399-a636-4fe9-be76-44969bfd194d||Sequence: R016 ve11c/master r/e634e98; Dec 19 2017 11:00:25 by eja",
    "dataset": "<unset>",
    "dcmmeta_affine": [
      [
        -1.9935232400894165,
        -0.10552285611629486,
        -0.1213674396276474,
        109.70181274414062
      ],
      [
        -0.0869838148355484,
        1.9769370555877686,
        -0.2900925874710083,
        -72.01966094970703
      ],
      [
        -0.13527360558509827,
        0.28387466073036194,
        1.9751243591308594,
        -34.35193634033203
      ],
      [
        0.0,
        0.0,
        0.0,
        1.0
      ]
    ],
    "dcmmeta_reorient_transform": [
      [
        0.0,
        -1.0,
        0.0,
        103.0
      ],
      [
        1.0,
        0.0,
        0.0,
        0.0
      ],
      [
        0.0,
        0.0,
        1.0,
        0.0
      ],
      [
        0.0,
        0.0,
        0.0,
        1.0
      ]
    ],
    "dcmmeta_shape": [
      104,
      104,
      60,
      410
    ],
    "dcmmeta_slice_dim": 2,
    "dcmmeta_version": 0.6,
    "global": {
      "const": {
        "AcquisitionMatrix": [
          104,
          0,
          0,
          104
        ],
        "AngioFlag": "N",
        "BitsAllocated": 16,
        "BitsStored": 16,
        "BodyPartExamined": "BRAIN",
        "Columns": 832,
        "EchoNumbers": 1,
        "EchoTime": 37.0,
        "EchoTrainLength": 104,
        "FlipAngle": 52.0,
        "HighBit": 15,
        "ImageOrientationPatient": [
          0.99676161519221,
          0.043491905716,
          -0.0676367992783,
          -0.0527614287865,
          0.98846852469473,
          -0.1419373358924
        ],
        "ImagePositionPatient": [
          -786.06509227147,
          -882.87204772148,
          147.45712447754
        ],
        "ImageType": [
          "ORIGINAL",
          "PRIMARY",
          "M",
          "MB",
          "ND",
          "MOSAIC"
        ],
        "ImagedNucleus": "1H",
        "ImagingFrequency": 123.259169,
        "InPlanePhaseEncodingDirection": "COL",
        "MRAcquisitionType": "2D",
        "MagneticFieldStrength": 3.0,
        "Manufacturer": "SIEMENS",
        "ManufacturerModelName": "Prisma_fit",
        "Modality": "MR",
        "NumberOfAverages": 1.0,
        "NumberOfPhaseEncodingSteps": 104,
        "PercentPhaseFieldOfView": 100.0,
        "PercentSampling": 100.0,
        "PerformedProcedureStepStartTime": "112903.787000",
        "PhotometricInterpretation": "MONOCHROME2",
        "PixelBandwidth": 2290.0,
        "PixelRepresentation": 0,
        "PixelSpacing": [
          2.0,
          2.0
        ],
        "ProtocolName": "func_task-life2",
        "RepetitionTime": 1490.0,
        "Rows": 832,
        "SAR": 0.03153817080626,
        "SamplesPerPixel": 1,
        "ScanOptions": "FS",
        "ScanningSequence": "EP",
        "SequenceName": "epfid2d1_104",
        "SequenceVariant": [
          "SK",
          "SS"
        ],
        "SeriesDescription": "func_task-life2",
        "SeriesNumber": 9,
        "SeriesTime": "115532.194000",
        "SliceLocation": -30.135602417785,
        "SliceThickness": 2.0,
        "SmallestImagePixelValue": 0,
        "SoftwareVersions": "syngo MR E11",
        "SpacingBetweenSlices": 1.999999972044,
        "SpecificCharacterSet": "ISO_IR 100",
        "StudyID": "1",
        "StudyTime": "112903.625000",
        "TransmitCoilName": "Body",
        "VariableFlipAngleFlag": "N",
        "WindowCenterWidthExplanation": "Algo1",
        "dBdt": 0.0
      },
      "slices": {}
    },
    "modality": "bold",
    "run_id": 1,
    "session_id": "007",
    "subject_id": "04",
    "task_id": "life02",
    "time": {
      "samples": {
        "AcquisitionNumber": [
          1,
          2,
          3,
          4,
          5,
          6,
          7,
          8,
          9,
          10,
          11,
          12,
          13,
          14,
          15,
          16,
          17,
          18,
          19,
          20,
          21,
          22,
          23,
          24,
          25,
          26,
          27,
          28,
          29,
          30,
          31,
          32,
          33,
          34,
          35,
          36,
          37,
          38,
          39,
          40,
          41,
          42,
          43,
          44,
          45,
          46,
          47,
          48,
          49,
          50,
          51,
          52,
          53,
          54,
          55,
          56,
          57,
          58,
          59,
          60,
          61,
          62,
          63,
          64,
          65,
          66,
          67,
          68,
          69,
          70,
          71,
          72,
          73,
          74,
          75,
          76,
          77,
          78,
          79,
          80,
          81,
          82,
          83,
          84,
          85,
          86,
          87,
          88,
          89,
          90,
          91,
          92,
          93,
          94,
          95,
          96,
          97,
          98,
          99,
          100,
          101,
          102,
          103,
          104,
          105,
          106,
          107,
          108,
          109,
          110,
          111,
          112,
          113,
          114,
          115,
          116,
          117,
          118,
          119,
          120,
          121,
          122,
          123,
          124,
          125,
          126,
          127,
          128,
          129,
          130,
          131,
          132,
          133,
          134,
          135,
          136,
          137,
          138,
          139,
          140,
          141,
          142,
          143,
          144,
          145,
          146,
          147,
          148,
          149,
          150,
          151,
          152,
          153,
          154,
          155,
          156,
          157,
          158,
          159,
          160,
          161,
          162,
          163,
          164,
          165,
          166,
          167,
          168,
          169,
          170,
          171,
          172,
          173,
          174,
          175,
          176,
          177,
          178,
          179,
          180,
          181,
          182,
          183,
          184,
          185,
          186,
          187,
          188,
          189,
          190,
          191,
          192,
          193,
          194,
          195,
          196,
          197,
          198,
          199,
          200,
          201,
          202,
          203,
          204,
          205,
          206,
          207,
          208,
          209,
          210,
          211,
          212,
          213,
          214,
          215,
          216,
          217,
          218,
          219,
          220,
          221,
          222,
          223,
          224,
          225,
          226,
          227,
          228,
          229,
          230,
          231,
          232,
          233,
          234,
          235,
          236,
          237,
          238,
          239,
          240,
          241,
          242,
          243,
          244,
          245,
          246,
          247,
          248,
          249,
          250,
          251,
          252,
          253,
          254,
          255,
          256,
          257,
          258,
          259,
          260,
          261,
          262,
          263,
          264,
          265,
          266,
          267,
          268,
          269,
          270,
          271,
          272,
          273,
          274,
          275,
          276,
          277,
          278,
          279,
          280,
          281,
          282,
          283,
          284,
          285,
          286,
          287,
          288,
          289,
          290,
          291,
          292,
          293,
          294,
          295,
          296,
          297,
          298,
          299,
          300,
          301,
          302,
          303,
          304,
          305,
          306,
          307,
          308,
          309,
          310,
          311,
          312,
          313,
          314,
          315,
          316,
          317,
          318,
          319,
          320,
          321,
          322,
          323,
          324,
          325,
          326,
          327,
          328,
          329,
          330,
          331,
          332,
          333,
          334,
          335,
          336,
          337,
          338,
          339,
          340,
          341,
          342,
          343,
          344,
          345,
          346,
          347,
          348,
          349,
          350,
          351,
          352,
          353,
          354,
          355,
          356,
          357,
          358,
          359,
          360,
          361,
          362,
          363,
          364,
          365,
          366,
          367,
          368,
          369,
          370,
          371,
          372,
          373,
          374,
          375,
          376,
          377,
          378,
          379,
          380,
          381,
          382,
          383,
          384,
          385,
          386,
          387,
          388,
          389,
          390,
          391,
          392,
          393,
          394,
          395,
          396,
          397,
          398,
          399,
          400,
          401,
          402,
          403,
          404,
          405,
          406,
          407,
          408,
          409,
          410
        ],
        "AcquisitionTime": [
          "115428.647500",
          "115430.137500",
          "115431.627500",
          "115433.117500",
          "115434.607500",
          "115436.097500",
          "115437.587500",
          "115439.077500",
          "115440.567500",
          "115442.057500",
          "115443.547500",
          "115445.037500",
          "115446.527500",
          "115448.017500",
          "115449.507500",
          "115450.997500",
          "115452.487500",
          "115453.977500",
          "115455.467500",
          "115456.957500",
          "115458.447500",
          "115459.937500",
          "115501.427500",
          "115502.917500",
          "115504.407500",
          "115505.897500",
          "115507.387500",
          "115508.877500",
          "115510.367500",
          "115511.857500",
          "115513.347500",
          "115514.837500",
          "115516.327500",
          "115517.817500",
          "115519.307500",
          "115520.797500",
          "115522.287500",
          "115523.777500",
          "115525.267500",
          "115526.757500",
          "115528.247500",
          "115529.737500",
          "115531.227500",
          "115532.717500",
          "115534.207500",
          "115535.697500",
          "115537.187500",
          "115538.677500",
          "115540.167500",
          "115541.657500",
          "115543.147500",
          "115544.637500",
          "115546.127500",
          "115547.617500",
          "115549.107500",
          "115550.597500",
          "115552.087500",
          "115553.577500",
          "115555.067500",
          "115556.557500",
          "115558.047500",
          "115559.537500",
          "115601.027500",
          "115602.517500",
          "115604.007500",
          "115605.497500",
          "115606.987500",
          "115608.477500",
          "115609.967500",
          "115611.457500",
          "115612.947500",
          "115614.437500",
          "115615.927500",
          "115617.417500",
          "115618.907500",
          "115620.397500",
          "115621.887500",
          "115623.377500",
          "115624.867500",
          "115626.357500",
          "115627.847500",
          "115629.337500",
          "115630.827500",
          "115632.317500",
          "115633.807500",
          "115635.297500",
          "115636.787500",
          "115638.277500",
          "115639.767500",
          "115641.257500",
          "115642.747500",
          "115644.237500",
          "115645.727500",
          "115647.217500",
          "115648.707500",
          "115650.197500",
          "115651.687500",
          "115653.177500",
          "115654.667500",
          "115656.157500",
          "115657.647500",
          "115659.137500",
          "115700.627500",
          "115702.117500",
          "115703.607500",
          "115705.097500",
          "115706.587500",
          "115708.077500",
          "115709.567500",
          "115711.057500",
          "115712.547500",
          "115714.037500",
          "115715.527500",
          "115717.017500",
          "115718.507500",
          "115719.997500",
          "115721.487500",
          "115722.977500",
          "115724.467500",
          "115725.957500",
          "115727.447500",
          "115728.937500",
          "115730.427500",
          "115731.917500",
          "115733.407500",
          "115734.897500",
          "115736.387500",
          "115737.877500",
          "115739.367500",
          "115740.857500",
          "115742.347500",
          "115743.837500",
          "115745.327500",
          "115746.817500",
          "115748.307500",
          "115749.797500",
          "115751.287500",
          "115752.777500",
          "115754.267500",
          "115755.757500",
          "115757.247500",
          "115758.737500",
          "115800.227500",
          "115801.717500",
          "115803.207500",
          "115804.697500",
          "115806.187500",
          "115807.677500",
          "115809.167500",
          "115810.657500",
          "115812.147500",
          "115813.637500",
          "115815.127500",
          "115816.617500",
          "115818.107500",
          "115819.597500",
          "115821.087500",
          "115822.577500",
          "115824.067500",
          "115825.557500",
          "115827.047500",
          "115828.537500",
          "115830.027500",
          "115831.517500",
          "115833.007500",
          "115834.497500",
          "115835.987500",
          "115837.477500",
          "115838.967500",
          "115840.457500",
          "115841.947500",
          "115843.437500",
          "115844.927500",
          "115846.417500",
          "115847.907500",
          "115849.397500",
          "115850.887500",
          "115852.377500",
          "115853.867500",
          "115855.357500",
          "115856.847500",
          "115858.337500",
          "115859.827500",
          "115901.317500",
          "115902.807500",
          "115904.297500",
          "115905.787500",
          "115907.277500",
          "115908.767500",
          "115910.257500",
          "115911.747500",
          "115913.237500",
          "115914.727500",
          "115916.217500",
          "115917.707500",
          "115919.197500",
          "115920.687500",
          "115922.177500",
          "115923.667500",
          "115925.157500",
          "115926.647500",
          "115928.137500",
          "115929.627500",
          "115931.117500",
          "115932.607500",
          "115934.097500",
          "115935.587500",
          "115937.077500",
          "115938.567500",
          "115940.057500",
          "115941.547500",
          "115943.037500",
          "115944.527500",
          "115946.017500",
          "115947.507500",
          "115948.997500",
          "115950.487500",
          "115951.977500",
          "115953.467500",
          "115954.957500",
          "115956.447500",
          "115957.937500",
          "115959.427500",
          "120000.917500",
          "120002.407500",
          "120003.897500",
          "120005.387500",
          "120006.877500",
          "120008.367500",
          "120009.857500",
          "120011.347500",
          "120012.837500",
          "120014.327500",
          "120015.817500",
          "120017.307500",
          "120018.797500",
          "120020.287500",
          "120021.777500",
          "120023.267500",
          "120024.757500",
          "120026.247500",
          "120027.737500",
          "120029.227500",
          "120030.717500",
          "120032.207500",
          "120033.697500",
          "120035.187500",
          "120036.677500",
          "120038.167500",
          "120039.657500",
          "120041.147500",
          "120042.637500",
          "120044.127500",
          "120045.617500",
          "120047.107500",
          "120048.597500",
          "120050.087500",
          "120051.577500",
          "120053.067500",
          "120054.557500",
          "120056.047500",
          "120057.537500",
          "120059.027500",
          "120100.517500",
          "120102.007500",
          "120103.497500",
          "120104.987500",
          "120106.477500",
          "120107.967500",
          "120109.457500",
          "120110.947500",
          "120112.437500",
          "120113.927500",
          "120115.417500",
          "120116.907500",
          "120118.397500",
          "120119.887500",
          "120121.377500",
          "120122.867500",
          "120124.357500",
          "120125.847500",
          "120127.337500",
          "120128.827500",
          "120130.317500",
          "120131.807500",
          "120133.297500",
          "120134.787500",
          "120136.277500",
          "120137.767500",
          "120139.257500",
          "120140.747500",
          "120142.237500",
          "120143.727500",
          "120145.217500",
          "120146.707500",
          "120148.197500",
          "120149.687500",
          "120151.177500",
          "120152.667500",
          "120154.157500",
          "120155.647500",
          "120157.137500",
          "120158.627500",
          "120200.117500",
          "120201.607500",
          "120203.097500",
          "120204.587500",
          "120206.077500",
          "120207.567500",
          "120209.057500",
          "120210.547500",
          "120212.037500",
          "120213.527500",
          "120215.017500",
          "120216.507500",
          "120217.997500",
          "120219.487500",
          "120220.977500",
          "120222.467500",
          "120223.957500",
          "120225.447500",
          "120226.937500",
          "120228.427500",
          "120229.917500",
          "120231.407500",
          "120232.897500",
          "120234.387500",
          "120235.877500",
          "120237.367500",
          "120238.857500",
          "120240.347500",
          "120241.837500",
          "120243.327500",
          "120244.817500",
          "120246.307500",
          "120247.797500",
          "120249.287500",
          "120250.777500",
          "120252.267500",
          "120253.757500",
          "120255.247500",
          "120256.737500",
          "120258.227500",
          "120259.717500",
          "120301.207500",
          "120302.697500",
          "120304.187500",
          "120305.677500",
          "120307.167500",
          "120308.657500",
          "120310.147500",
          "120311.637500",
          "120313.127500",
          "120314.617500",
          "120316.107500",
          "120317.597500",
          "120319.087500",
          "120320.577500",
          "120322.067500",
          "120323.557500",
          "120325.047500",
          "120326.537500",
          "120328.027500",
          "120329.517500",
          "120331.007500",
          "120332.497500",
          "120333.987500",
          "120335.477500",
          "120336.967500",
          "120338.457500",
          "120339.947500",
          "120341.437500",
          "120342.927500",
          "120344.417500",
          "120345.907500",
          "120347.397500",
          "120348.887500",
          "120350.377500",
          "120351.867500",
          "120353.357500",
          "120354.847500",
          "120356.337500",
          "120357.827500",
          "120359.317500",
          "120400.807500",
          "120402.297500",
          "120403.787500",
          "120405.277500",
          "120406.767500",
          "120408.257500",
          "120409.747500",
          "120411.237500",
          "120412.727500",
          "120414.217500",
          "120415.707500",
          "120417.197500",
          "120418.687500",
          "120420.177500",
          "120421.667500",
          "120423.157500",
          "120424.647500",
          "120426.137500",
          "120427.627500",
          "120429.117500",
          "120430.607500",
          "120432.097500",
          "120433.587500",
          "120435.077500",
          "120436.567500",
          "120438.057500"
        ],
        "ContentTime": [
          "115532.197000",
          "115532.201000",
          "115532.203000",
          "115532.206000",
          "115532.209000",
          "115532.212000",
          "115532.218000",
          "115532.220000",
          "115532.223000",
          "115532.226000",
          "115552.153000",
          "115552.170000",
          "115552.173000",
          "115552.176000",
          "115552.179000",
          "115552.182000",
          "115552.184000",
          "115552.187000",
          "115552.190000",
          "115552.193000",
          "115552.196000",
          "115552.206000",
          "115552.209000",
          "115552.212000",
          "115552.215000",
          "115552.218000",
          "115552.221000",
          "115552.224000",
          "115552.226000",
          "115552.229000",
          "115612.153000",
          "115612.156000",
          "115612.159000",
          "115612.170000",
          "115612.173000",
          "115612.176000",
          "115612.178000",
          "115612.181000",
          "115612.184000",
          "115612.187000",
          "115612.190000",
          "115612.193000",
          "115612.195000",
          "115612.198000",
          "115612.201000",
          "115612.210000",
          "115612.213000",
          "115612.215000",
          "115612.218000",
          "115612.221000",
          "115632.153000",
          "115632.157000",
          "115632.161000",
          "115632.164000",
          "115632.167000",
          "115632.170000",
          "115632.173000",
          "115632.176000",
          "115632.179000",
          "115632.182000",
          "115632.185000",
          "115632.188000",
          "115632.190000",
          "115632.193000",
          "115632.196000",
          "115632.199000",
          "115632.202000",
          "115632.205000",
          "115632.207000",
          "115632.210000",
          "115652.153000",
          "115652.156000",
          "115652.159000",
          "115652.161000",
          "115652.164000",
          "115652.167000",
          "115652.170000",
          "115652.173000",
          "115652.176000",
          "115652.179000",
          "115652.182000",
          "115652.184000",
          "115652.188000",
          "115652.190000",
          "115652.193000",
          "115652.196000",
          "115652.199000",
          "115652.202000",
          "115652.205000",
          "115652.207000",
          "115652.210000",
          "115732.153000",
          "115732.156000",
          "115732.159000",
          "115732.168000",
          "115732.171000",
          "115732.174000",
          "115732.177000",
          "115732.180000",
          "115732.183000",
          "115732.186000",
          "115732.189000",
          "115732.192000",
          "115732.195000",
          "115732.198000",
          "115732.201000",
          "115732.203000",
          "115732.206000",
          "115732.209000",
          "115732.212000",
          "115732.215000",
          "115732.218000",
          "115732.221000",
          "115732.223000",
          "115732.226000",
          "115732.229000",
          "115732.232000",
          "115732.236000",
          "115732.240000",
          "115732.243000",
          "115732.246000",
          "115732.249000",
          "115812.153000",
          "115812.156000",
          "115812.159000",
          "115812.161000",
          "115812.164000",
          "115812.167000",
          "115812.170000",
          "115812.173000",
          "115812.176000",
          "115812.179000",
          "115812.182000",
          "115812.185000",
          "115812.188000",
          "115812.190000",
          "115812.193000",
          "115812.196000",
          "115812.199000",
          "115812.202000",
          "115812.205000",
          "115812.208000",
          "115812.211000",
          "115812.214000",
          "115812.216000",
          "115812.219000",
          "115812.222000",
          "115812.225000",
          "115812.228000",
          "115852.153000",
          "115852.156000",
          "115852.159000",
          "115852.161000",
          "115852.164000",
          "115852.167000",
          "115852.176000",
          "115852.179000",
          "115852.182000",
          "115852.185000",
          "115852.188000",
          "115852.191000",
          "115852.194000",
          "115852.197000",
          "115852.200000",
          "115852.203000",
          "115852.206000",
          "115852.217000",
          "115852.220000",
          "115852.223000",
          "115852.226000",
          "115852.228000",
          "115852.231000",
          "115852.234000",
          "115852.237000",
          "115852.240000",
          "115852.243000",
          "115932.152000",
          "115932.155000",
          "115932.158000",
          "115932.161000",
          "115932.163000",
          "115932.166000",
          "115932.169000",
          "115932.172000",
          "115932.175000",
          "115932.178000",
          "115932.181000",
          "115932.184000",
          "115932.186000",
          "115932.189000",
          "115932.192000",
          "115932.195000",
          "115932.198000",
          "115932.201000",
          "115932.203000",
          "115932.206000",
          "115932.209000",
          "115932.220000",
          "115932.222000",
          "115932.225000",
          "115932.228000",
          "115932.231000",
          "115932.234000",
          "120012.153000",
          "120012.156000",
          "120012.159000",
          "120012.162000",
          "120012.165000",
          "120012.183000",
