{
  "aor": 0.0006531295843520781,
  "aqi": 0.006742572127139365,
  "bids_meta": {
    "AcquisitionMatrixPE": 104,
    "AcquisitionNumber": 1,
    "AcquisitionTime": "12:51:28.362500",
    "BandwidthPerPixelPhaseEncode": 17.17,
    "BaseResolution": 104,
    "BodyPartExamined": "BRAIN",
    "CogAtlasID": "trm_4c898da401420",
    "CoilString": "HC1-7;NC1_2",
    "ConsistencyInfo": "N4_VE11C_LATEST_20160120",
    "ConversionSoftware": "dcm2niix",
    "ConversionSoftwareVersion": "v1.0.20190720  (JP2:OpenJPEG) GCC7.3.0",
    "DerivedVendorReportedEchoSpacing": 0.000560011,
    "DeviceSerialNumber": "167006",
    "DwellTime": 2.1e-06,
    "EchoTime": 0.037,
    "EchoTrainLength": 104,
    "EffectiveEchoSpacing": 0.000560011,
    "FlipAngle": 52,
    "ImageComments": "Unaliased_MB4_PE3_LB",
    "ImageOrientationPatientDICOM": [
      0.998434,
      0.012893,
      -0.0544365,
      -0.0203913,
      0.990009,
      -0.139524
    ],
    "ImageType": [
      "ORIGINAL",
      "PRIMARY",
      "M",
      "MB",
      "ND",
      "MOSAIC"
    ],
    "ImagingFrequency": 123.259,
    "InPlanePhaseEncodingDirectionDICOM": "COL",
    "InstitutionAddress": "Chemin_Queen-Mary_4565_Montreal_District_CA_H3W_1W5",
    "InstitutionName": "IUGM",
    "InstitutionalDepartmentName": "Department",
    "MRAcquisitionType": "2D",
    "MagneticFieldStrength": 3,
    "Manufacturer": "Siemens",
    "ManufacturersModelName": "Prisma_fit",
    "Modality": "MR",
    "MultibandAccelerationFactor": 4,
    "PartialFourier": 1,
    "PatientPosition": "HFS",
    "PercentPhaseFOV": 100,
    "PhaseEncodingDirection": "j-",
    "PhaseEncodingSteps": 104,
    "PhaseResolution": 1,
    "PixelBandwidth": 2290,
    "ProcedureStepDescription": "video5_generic",
    "ProtocolName": "func_task-figures6",
    "PulseSequenceDetails": "%CustomerSeq%_cmrr_mbep2d_bold",
    "ReceiveCoilActiveElements": "HC1-7;NC1,2",
    "ReceiveCoilName": "HeadNeck_64",
    "ReconMatrixPE": 104,
    "RepetitionTime": 1.49,
    "SAR": 0.0346403,
    "ScanOptions": "FS",
    "ScanningSequence": "EP",
    "SequenceName": "epfid2d1_104",
    "SequenceVariant": "SK_SS",
    "SeriesDescription": "func_task-figures6",
    "SeriesNumber": 19,
    "ShimSetting": [
      607,
      -7260,
      -8833,
      588,
      -29,
      -325,
      0,
      36
    ],
    "SliceThickness": 2,
    "SliceTiming": [
      0,
      0.7825,
      0.0975,
      0.88,
      0.195,
      0.98,
      0.2925,
      1.0775,
      0.39,
      1.175,
      0.49,
      1.2725,
      0.5875,
      1.37,
      0.685,
      0,
      0.7825,
      0.0975,
      0.88,
      0.195,
      0.98,
      0.2925,
      1.0775,
      0.39,
      1.175,
      0.49,
      1.2725,
      0.5875,
      1.37,
      0.685,
      0,
      0.7825,
      0.0975,
      0.88,
      0.195,
      0.98,
      0.2925,
      1.0775,
      0.39,
      1.175,
      0.49,
      1.2725,
      0.5875,
      1.37,
      0.685,
      0,
      0.7825,
      0.0975,
      0.88,
      0.195,
      0.98,
      0.2925,
      1.0775,
      0.39,
      1.175,
      0.49,
      1.2725,
      0.5875,
      1.37,
      0.685
    ],
    "SoftwareVersions": "syngo_MR_E11",
    "SpacingBetweenSlices": 2,
    "StationName": "MRC35049",
    "TaskName": "figures06",
    "TotalReadoutTime": 0.0576811,
    "TxRefAmp": 220.615,
    "WipMemBlock": "f1bb5d75-e133-4585-b9ac-7b3d430f4a1f||Sequence: R016 ve11c/master r/e634e98; Dec 19 2017 11:00:25 by eja",
    "dataset": "<unset>",
    "dcmmeta_affine": [
      [
        -1.9968680143356323,
        -0.04078250378370285,
        -0.1041875034570694,
        106.20792388916016
      ],
      [
        -0.025785919278860092,
        1.9800175428390503,
        -0.2808302342891693,
        -83.62176513671875
      ],
      [
        -0.10887301713228226,
        0.2790471613407135,
        1.9774426221847534,
        -43.24338150024414
      ],
      [
        0.0,
        0.0,
        0.0,
        1.0
      ]
    ],
    "dcmmeta_reorient_transform": [
      [
        0.0,
        -1.0,
        0.0,
        103.0
      ],
      [
        1.0,
        0.0,
        0.0,
        0.0
      ],
      [
        0.0,
        0.0,
        1.0,
        0.0
      ],
      [
        0.0,
        0.0,
        0.0,
        1.0
      ]
    ],
    "dcmmeta_shape": [
      104,
      104,
      60,
      410
    ],
    "dcmmeta_slice_dim": 2,
    "dcmmeta_version": 0.6,
    "global": {
      "const": {
        "AcquisitionMatrix": [
          104,
          0,
          0,
          104
        ],
        "AngioFlag": "N",
        "BitsAllocated": 16,
        "BitsStored": 16,
        "BodyPartExamined": "BRAIN",
        "Columns": 832,
        "EchoNumbers": 1,
        "EchoTime": 37.0,
        "EchoTrainLength": 104,
        "FlipAngle": 52.0,
        "HighBit": 15,
        "ImageOrientationPatient": [
          0.9984339928785,
          0.01289295957674,
          -0.0544365085035,
          -0.0203912522027,
          0.9900087721085,
          -0.1395235750038
        ],
        "ImagePositionPatient": [
          -814.02244485624,
          -850.43250362528,
          126.70141530201
        ],
        "ImageType": [
          "ORIGINAL",
          "PRIMARY",
          "M",
          "MB",
          "ND",
          "MOSAIC"
        ],
        "ImagedNucleus": "1H",
        "ImagingFrequency": 123.259197,
        "InPlanePhaseEncodingDirection": "COL",
        "MRAcquisitionType": "2D",
        "MagneticFieldStrength": 3.0,
        "Manufacturer": "SIEMENS",
        "ManufacturerModelName": "Prisma_fit",
        "Modality": "MR",
        "NumberOfAverages": 1.0,
        "NumberOfPhaseEncodingSteps": 104,
        "PercentPhaseFieldOfView": 100.0,
        "PercentSampling": 100.0,
        "PerformedProcedureStepStartTime": "112713.998000",
        "PhotometricInterpretation": "MONOCHROME2",
        "PixelBandwidth": 2290.0,
        "PixelRepresentation": 0,
        "PixelSpacing": [
          2.0,
          2.0
        ],
        "ProtocolName": "func_task-figures6",
        "RepetitionTime": 1490.0,
        "Rows": 832,
        "SAR": 0.03464028820866,
        "SamplesPerPixel": 1,
        "ScanOptions": "FS",
        "ScanningSequence": "EP",
        "SequenceName": "epfid2d1_104",
        "SequenceVariant": [
          "SK",
          "SS"
        ],
        "SeriesDescription": "func_task-figures6",
        "SeriesNumber": 19,
        "SeriesTime": "125244.581000",
        "SliceLocation": -36.546663498406,
        "SliceThickness": 2.0,
        "SmallestImagePixelValue": 0,
        "SoftwareVersions": "syngo MR E11",
        "SpacingBetweenSlices": 2.0000000287592,
        "SpecificCharacterSet": "ISO_IR 100",
        "StudyID": "1",
        "StudyTime": "112713.914000",
        "TransmitCoilName": "Body",
        "VariableFlipAngleFlag": "N",
        "WindowCenterWidthExplanation": "Algo1",
        "dBdt": 0.0
      },
      "slices": {}
    },
    "modality": "bold",
    "run_id": 2,
    "session_id": "010",
    "subject_id": "04",
    "task_id": "figures06",
    "time": {
      "samples": {
        "AcquisitionNumber": [
          1,
          2,
          3,
          4,
          5,
          6,
          7,
          8,
          9,
          10,
          11,
          12,
          13,
          14,
          15,
          16,
          17,
          18,
          19,
          20,
          21,
          22,
          23,
          24,
          25,
          26,
          27,
          28,
          29,
          30,
          31,
          32,
          33,
          34,
          35,
          36,
          37,
          38,
          39,
          40,
          41,
          42,
          43,
          44,
          45,
          46,
          47,
          48,
          49,
          50,
          51,
          52,
          53,
          54,
          55,
          56,
          57,
          58,
          59,
          60,
          61,
          62,
          63,
          64,
          65,
          66,
          67,
          68,
          69,
          70,
          71,
          72,
          73,
          74,
          75,
          76,
          77,
          78,
          79,
          80,
          81,
          82,
          83,
          84,
          85,
          86,
          87,
          88,
          89,
          90,
          91,
          92,
          93,
          94,
          95,
          96,
          97,
          98,
          99,
          100,
          101,
          102,
          103,
          104,
          105,
          106,
          107,
          108,
          109,
          110,
          111,
          112,
          113,
          114,
          115,
          116,
          117,
          118,
          119,
          120,
          121,
          122,
          123,
          124,
          125,
          126,
          127,
          128,
          129,
          130,
          131,
          132,
          133,
          134,
          135,
          136,
          137,
          138,
          139,
          140,
          141,
          142,
          143,
          144,
          145,
          146,
          147,
          148,
          149,
          150,
          151,
          152,
          153,
          154,
          155,
          156,
          157,
          158,
          159,
          160,
          161,
          162,
          163,
          164,
          165,
          166,
          167,
          168,
          169,
          170,
          171,
          172,
          173,
          174,
          175,
          176,
          177,
          178,
          179,
          180,
          181,
          182,
          183,
          184,
          185,
          186,
          187,
          188,
          189,
          190,
          191,
          192,
          193,
          194,
          195,
          196,
          197,
          198,
          199,
          200,
          201,
          202,
          203,
          204,
          205,
          206,
          207,
          208,
          209,
          210,
          211,
          212,
          213,
          214,
          215,
          216,
          217,
          218,
          219,
          220,
          221,
          222,
          223,
          224,
          225,
          226,
          227,
          228,
          229,
          230,
          231,
          232,
          233,
          234,
          235,
          236,
          237,
          238,
          239,
          240,
          241,
          242,
          243,
          244,
          245,
          246,
          247,
          248,
          249,
          250,
          251,
          252,
          253,
          254,
          255,
          256,
          257,
          258,
          259,
          260,
          261,
          262,
          263,
          264,
          265,
          266,
          267,
          268,
          269,
          270,
          271,
          272,
          273,
          274,
          275,
          276,
          277,
          278,
          279,
          280,
          281,
          282,
          283,
          284,
          285,
          286,
          287,
          288,
          289,
          290,
          291,
          292,
          293,
          294,
          295,
          296,
          297,
          298,
          299,
          300,
          301,
          302,
          303,
          304,
          305,
          306,
          307,
          308,
          309,
          310,
          311,
          312,
          313,
          314,
          315,
          316,
          317,
          318,
          319,
          320,
          321,
          322,
          323,
          324,
          325,
          326,
          327,
          328,
          329,
          330,
          331,
          332,
          333,
          334,
          335,
          336,
          337,
          338,
          339,
          340,
          341,
          342,
          343,
          344,
          345,
          346,
          347,
          348,
          349,
          350,
          351,
          352,
          353,
          354,
          355,
          356,
          357,
          358,
          359,
          360,
          361,
          362,
          363,
          364,
          365,
          366,
          367,
          368,
          369,
          370,
          371,
          372,
          373,
          374,
          375,
          376,
          377,
          378,
          379,
          380,
          381,
          382,
          383,
          384,
          385,
          386,
          387,
          388,
          389,
          390,
          391,
          392,
          393,
          394,
          395,
          396,
          397,
          398,
          399,
          400,
          401,
          402,
          403,
          404,
          405,
          406,
          407,
          408,
          409,
          410
        ],
        "AcquisitionTime": [
          "125128.362500",
          "125129.852500",
          "125131.342500",
          "125132.832500",
          "125134.322500",
          "125135.812500",
          "125137.302500",
          "125138.792500",
          "125140.282500",
          "125141.772500",
          "125143.262500",
          "125144.752500",
          "125146.242500",
          "125147.732500",
          "125149.222500",
          "125150.712500",
          "125152.202500",
          "125153.692500",
          "125155.182500",
          "125156.672500",
          "125158.162500",
          "125159.652500",
          "125201.142500",
          "125202.632500",
          "125204.122500",
          "125205.612500",
          "125207.102500",
          "125208.592500",
          "125210.082500",
          "125211.572500",
          "125213.062500",
          "125214.552500",
          "125216.042500",
          "125217.532500",
          "125219.022500",
          "125220.512500",
          "125222.002500",
          "125223.492500",
          "125224.982500",
          "125226.472500",
          "125227.962500",
          "125229.452500",
          "125230.942500",
          "125232.432500",
          "125233.922500",
          "125235.412500",
          "125236.902500",
          "125238.392500",
          "125239.882500",
          "125241.372500",
          "125242.862500",
          "125244.352500",
          "125245.842500",
          "125247.332500",
          "125248.822500",
          "125250.312500",
          "125251.802500",
          "125253.292500",
          "125254.782500",
          "125256.272500",
          "125257.762500",
          "125259.252500",
          "125300.742500",
          "125302.232500",
          "125303.722500",
          "125305.212500",
          "125306.702500",
          "125308.192500",
          "125309.682500",
          "125311.172500",
          "125312.662500",
          "125314.152500",
          "125315.642500",
          "125317.132500",
          "125318.622500",
          "125320.112500",
          "125321.602500",
          "125323.092500",
          "125324.582500",
          "125326.072500",
          "125327.562500",
          "125329.052500",
          "125330.542500",
          "125332.032500",
          "125333.522500",
          "125335.012500",
          "125336.502500",
          "125337.992500",
          "125339.482500",
          "125340.972500",
          "125342.462500",
          "125343.952500",
          "125345.442500",
          "125346.932500",
          "125348.422500",
          "125349.912500",
          "125351.402500",
          "125352.892500",
          "125354.382500",
          "125355.872500",
          "125357.362500",
          "125358.852500",
          "125400.342500",
          "125401.832500",
          "125403.322500",
          "125404.812500",
          "125406.302500",
          "125407.792500",
          "125409.282500",
          "125410.772500",
          "125412.262500",
          "125413.752500",
          "125415.242500",
          "125416.732500",
          "125418.222500",
          "125419.712500",
          "125421.202500",
          "125422.692500",
          "125424.182500",
          "125425.672500",
          "125427.162500",
          "125428.652500",
          "125430.142500",
          "125431.632500",
          "125433.122500",
          "125434.612500",
          "125436.102500",
          "125437.592500",
          "125439.082500",
          "125440.572500",
          "125442.062500",
          "125443.552500",
          "125445.042500",
          "125446.532500",
          "125448.022500",
          "125449.512500",
          "125451.002500",
          "125452.492500",
          "125453.982500",
          "125455.472500",
          "125456.962500",
          "125458.452500",
          "125459.942500",
          "125501.432500",
          "125502.922500",
          "125504.412500",
          "125505.902500",
          "125507.392500",
          "125508.882500",
          "125510.372500",
          "125511.862500",
          "125513.352500",
          "125514.842500",
          "125516.332500",
          "125517.822500",
          "125519.312500",
          "125520.802500",
          "125522.292500",
          "125523.782500",
          "125525.272500",
          "125526.762500",
          "125528.252500",
          "125529.742500",
          "125531.232500",
          "125532.722500",
          "125534.212500",
          "125535.702500",
          "125537.192500",
          "125538.682500",
          "125540.172500",
          "125541.662500",
          "125543.152500",
          "125544.642500",
          "125546.132500",
          "125547.622500",
          "125549.112500",
          "125550.602500",
          "125552.092500",
          "125553.582500",
          "125555.072500",
          "125556.562500",
          "125558.052500",
          "125559.542500",
          "125601.032500",
          "125602.522500",
          "125604.012500",
          "125605.502500",
          "125606.992500",
          "125608.482500",
          "125609.972500",
          "125611.462500",
          "125612.952500",
          "125614.442500",
          "125615.932500",
          "125617.422500",
          "125618.912500",
          "125620.402500",
          "125621.892500",
          "125623.382500",
          "125624.872500",
          "125626.362500",
          "125627.852500",
          "125629.342500",
          "125630.832500",
          "125632.322500",
          "125633.812500",
          "125635.302500",
          "125636.792500",
          "125638.282500",
          "125639.772500",
          "125641.262500",
          "125642.752500",
          "125644.242500",
          "125645.732500",
          "125647.222500",
          "125648.712500",
          "125650.202500",
          "125651.692500",
          "125653.182500",
          "125654.672500",
          "125656.162500",
          "125657.652500",
          "125659.142500",
          "125700.632500",
          "125702.122500",
          "125703.612500",
          "125705.102500",
          "125706.592500",
          "125708.082500",
          "125709.572500",
          "125711.062500",
          "125712.552500",
          "125714.042500",
          "125715.532500",
          "125717.022500",
          "125718.512500",
          "125720.002500",
          "125721.492500",
          "125722.982500",
          "125724.472500",
          "125725.962500",
          "125727.452500",
          "125728.942500",
          "125730.432500",
          "125731.922500",
          "125733.412500",
          "125734.902500",
          "125736.392500",
          "125737.882500",
          "125739.372500",
          "125740.862500",
          "125742.352500",
          "125743.842500",
          "125745.332500",
          "125746.822500",
          "125748.312500",
          "125749.802500",
          "125751.292500",
          "125752.782500",
          "125754.272500",
          "125755.762500",
          "125757.252500",
          "125758.742500",
          "125800.232500",
          "125801.722500",
          "125803.212500",
          "125804.702500",
          "125806.192500",
          "125807.682500",
          "125809.172500",
          "125810.662500",
          "125812.152500",
          "125813.642500",
          "125815.132500",
          "125816.622500",
          "125818.112500",
          "125819.602500",
          "125821.092500",
          "125822.582500",
          "125824.072500",
          "125825.562500",
          "125827.052500",
          "125828.542500",
          "125830.032500",
          "125831.522500",
          "125833.012500",
          "125834.502500",
          "125835.992500",
          "125837.482500",
          "125838.972500",
          "125840.462500",
          "125841.952500",
          "125843.442500",
          "125844.932500",
          "125846.422500",
          "125847.912500",
          "125849.402500",
          "125850.892500",
          "125852.382500",
          "125853.872500",
          "125855.362500",
          "125856.852500",
          "125858.342500",
          "125859.832500",
          "125901.322500",
          "125902.812500",
          "125904.302500",
          "125905.792500",
          "125907.282500",
          "125908.772500",
          "125910.262500",
          "125911.752500",
          "125913.242500",
          "125914.732500",
          "125916.222500",
          "125917.712500",
          "125919.202500",
          "125920.692500",
          "125922.182500",
          "125923.672500",
          "125925.162500",
          "125926.652500",
          "125928.142500",
          "125929.632500",
          "125931.122500",
          "125932.612500",
          "125934.102500",
          "125935.592500",
          "125937.082500",
          "125938.572500",
          "125940.062500",
          "125941.552500",
          "125943.042500",
          "125944.532500",
          "125946.022500",
          "125947.512500",
          "125949.002500",
          "125950.492500",
          "125951.982500",
          "125953.472500",
          "125954.962500",
          "125956.452500",
          "125957.942500",
          "125959.432500",
          "130000.922500",
          "130002.412500",
          "130003.902500",
          "130005.392500",
          "130006.882500",
          "130008.372500",
          "130009.862500",
          "130011.352500",
          "130012.842500",
          "130014.332500",
          "130015.822500",
          "130017.312500",
          "130018.802500",
          "130020.292500",
          "130021.782500",
          "130023.272500",
          "130024.762500",
          "130026.252500",
          "130027.742500",
          "130029.232500",
          "130030.722500",
          "130032.212500",
          "130033.702500",
          "130035.192500",
          "130036.682500",
          "130038.172500",
          "130039.662500",
          "130041.152500",
          "130042.642500",
          "130044.132500",
          "130045.622500",
          "130047.112500",
          "130048.602500",
          "130050.092500",
          "130051.582500",
          "130053.072500",
          "130054.562500",
          "130056.052500",
          "130057.542500",
          "130059.032500",
          "130100.522500",
          "130102.012500",
          "130103.502500",
          "130104.992500",
          "130106.482500",
          "130107.972500",
          "130109.462500",
          "130110.952500",
          "130112.442500",
          "130113.932500",
          "130115.422500",
          "130116.912500",
          "130118.402500",
          "130119.892500",
          "130121.382500",
          "130122.872500",
          "130124.362500",
          "130125.852500",
          "130127.342500",
          "130128.832500",
          "130130.322500",
          "130131.812500",
          "130133.302500",
          "130134.792500",
          "130136.282500",
          "130137.772500"
        ],
        "ContentTime": [
          "125244.583000",
          "125244.587000",
          "125244.590000",
          "125244.593000",
          "125244.595000",
          "125244.598000",
          "125244.601000",
          "125244.614000",
          "125244.616000",
          "125244.619000",
          "125244.622000",
          "125244.625000",
          "125244.628000",
          "125244.631000",
          "125244.634000",
          "125244.637000",
          "125244.639000",
          "125244.642000",
          "125244.645000",
          "125244.651000",
          "125304.501000",
          "125304.504000",
          "125304.506000",
          "125304.509000",
          "125304.521000",
          "125304.524000",
          "125304.527000",
          "125304.530000",
          "125304.533000",
          "125304.535000",
          "125304.538000",
          "125304.541000",
          "125304.544000",
          "125304.547000",
          "125304.550000",
          "125304.552000",
          "125304.555000",
          "125304.558000",
          "125304.561000",
          "125304.564000",
          "125324.501000",
          "125324.504000",
          "125324.507000",
          "125324.509000",
          "125324.512000",
          "125324.515000",
          "125324.518000",
          "125324.521000",
          "125324.524000",
          "125324.527000",
          "125324.530000",
          "125324.533000",
          "125324.535000",
          "125324.538000",
          "125324.541000",
          "125324.544000",
          "125324.547000",
          "125324.550000",
          "125324.553000",
          "125324.556000",
          "125324.559000",
          "125344.501000",
          "125344.504000",
          "125344.507000",
          "125344.510000",
          "125344.512000",
          "125344.515000",
          "125344.518000",
          "125344.521000",
          "125344.524000",
          "125344.527000",
          "125344.529000",
          "125344.532000",
          "125344.535000",
          "125344.538000",
          "125344.541000",
          "125344.544000",
          "125344.547000",
          "125344.550000",
          "125344.553000",
          "125344.555000",
          "125404.501000",
          "125404.504000",
          "125404.507000",
          "125404.509000",
          "125404.512000",
          "125404.515000",
          "125404.518000",
          "125404.521000",
          "125404.524000",
          "125404.527000",
          "125404.530000",
          "125404.532000",
          "125404.535000",
          "125404.538000",
          "125404.541000",
          "125404.544000",
          "125404.554000",
          "125404.557000",
          "125404.560000",
          "125404.563000",
          "125444.500000",
          "125444.503000",
          "125444.506000",
          "125444.509000",
          "125444.512000",
          "125444.515000",
          "125444.517000",
          "125444.520000",
          "125444.523000",
          "125444.526000",
          "125444.529000",
          "125444.532000",
          "125444.535000",
          "125444.538000",
          "125444.540000",
          "125444.552000",
          "125444.555000",
          "125444.558000",
          "125444.570000",
          "125444.573000",
          "125444.576000",
          "125444.579000",
          "125444.581000",
          "125444.584000",
          "125444.587000",
          "125444.590000",
          "125444.593000",
          "125444.596000",
          "125444.599000",
          "125444.602000",
          "125524.501000",
          "125524.504000",
          "125524.507000",
          "125524.510000",
          "125524.513000",
          "125524.516000",
          "125524.518000",
          "125524.521000",
          "125524.524000",
          "125524.527000",
          "125524.530000",
          "125524.533000",
          "125524.536000",
          "125524.539000",
          "125524.541000",
          "125524.544000",
          "125524.547000",
          "125524.550000",
          "125524.553000",
          "125524.556000",
          "125524.559000",
          "125524.562000",
          "125524.564000",
          "125524.567000",
          "125524.570000",
          "125524.573000",
          "125524.576000",
          "125604.501000",
          "125604.504000",
          "125604.507000",
          "125604.510000",
          "125604.513000",
          "125604.515000",
          "125604.518000",
          "125604.521000",
          "125604.524000",
          "125604.527000",
          "125604.530000",
          "125604.533000",
          "125604.536000",
          "125604.538000",
          "125604.541000",
          "125604.544000",
          "125604.548000",
          "125604.551000",
          "125604.555000",
          "125604.558000",
          "125604.562000",
          "125604.565000",
          "125604.568000",
          "125604.570000",
          "125604.573000",
          "125604.576000",
          "125644.501000",
          "125644.504000",
          "125644.507000",
          "125644.509000",
          "125644.512000",
          "125644.515000",
          "125644.518000",
          "125644.521000",
          "125644.524000",
          "125644.527000",
          "125644.529000",
          "125644.532000",
          "125644.535000",
          "125644.538000",
          "125644.541000",
          "125644.544000",
          "125644.547000",
          "125644.550000",
          "125644.553000",
          "125644.555000",
          "125644.558000",
          "125644.561000",
          "125644.564000",
          "125644.567000",
          "125644.570000",
          "125644.573000",
