{
  "aor": 0.0004571323529411765,
  "aqi": 0.00562026931372549,
  "bids_meta": {
    "AcquisitionMatrixPE": 104,
    "AcquisitionNumber": 1,
    "AcquisitionTime": "12:08:55.985000",
    "BandwidthPerPixelPhaseEncode": 17.17,
    "BaseResolution": 104,
    "BodyPartExamined": "BRAIN",
    "CogAtlasID": "trm_4c898da401420",
    "CoilString": "HC1-7;NC1_2",
    "ConsistencyInfo": "N4_VE11C_LATEST_20160120",
    "ConversionSoftware": "dcm2niix",
    "ConversionSoftwareVersion": "v1.0.20190720  (JP2:OpenJPEG) GCC7.3.0",
    "DerivedVendorReportedEchoSpacing": 0.000560011,
    "DeviceSerialNumber": "167006",
    "DwellTime": 2.1e-06,
    "EchoTime": 0.037,
    "EchoTrainLength": 104,
    "EffectiveEchoSpacing": 0.000560011,
    "FlipAngle": 52,
    "ImageComments": "Unaliased_MB4_PE3_LB",
    "ImageOrientationPatientDICOM": [
      0.998434,
      0.012893,
      -0.0544365,
      -0.0203913,
      0.990009,
      -0.139524
    ],
    "ImageType": [
      "ORIGINAL",
      "PRIMARY",
      "M",
      "MB",
      "ND",
      "MOSAIC"
    ],
    "ImagingFrequency": 123.259,
    "InPlanePhaseEncodingDirectionDICOM": "COL",
    "InstitutionAddress": "Chemin_Queen-Mary_4565_Montreal_District_CA_H3W_1W5",
    "InstitutionName": "IUGM",
    "InstitutionalDepartmentName": "Department",
    "MRAcquisitionType": "2D",
    "MagneticFieldStrength": 3,
    "Manufacturer": "Siemens",
    "ManufacturersModelName": "Prisma_fit",
    "Modality": "MR",
    "MultibandAccelerationFactor": 4,
    "PartialFourier": 1,
    "PatientPosition": "HFS",
    "PercentPhaseFOV": 100,
    "PhaseEncodingDirection": "j-",
    "PhaseEncodingSteps": 104,
    "PhaseResolution": 1,
    "PixelBandwidth": 2290,
    "ProcedureStepDescription": "video5_generic",
    "ProtocolName": "func_task-figures2",
    "PulseSequenceDetails": "%CustomerSeq%_cmrr_mbep2d_bold",
    "ReceiveCoilActiveElements": "HC1-7;NC1,2",
    "ReceiveCoilName": "HeadNeck_64",
    "ReconMatrixPE": 104,
    "RepetitionTime": 1.49,
    "SAR": 0.0346399,
    "ScanOptions": "FS",
    "ScanningSequence": "EP",
    "SequenceName": "epfid2d1_104",
    "SequenceVariant": "SK_SS",
    "SeriesDescription": "func_task-figures2",
    "SeriesNumber": 11,
    "ShimSetting": [
      607,
      -7260,
      -8833,
      588,
      -29,
      -325,
      0,
      36
    ],
    "SliceThickness": 2,
    "SliceTiming": [
      0,
      0.785,
      0.0975,
      0.8825,
      0.1975,
      0.98,
      0.295,
      1.0775,
      0.3925,
      1.1775,
      0.49,
      1.275,
      0.5875,
      1.3725,
      0.6875,
      0,
      0.785,
      0.0975,
      0.8825,
      0.1975,
      0.98,
      0.295,
      1.0775,
      0.3925,
      1.1775,
      0.49,
      1.275,
      0.5875,
      1.3725,
      0.6875,
      0,
      0.785,
      0.0975,
      0.8825,
      0.1975,
      0.98,
      0.295,
      1.0775,
      0.3925,
      1.1775,
      0.49,
      1.275,
      0.5875,
      1.3725,
      0.6875,
      0,
      0.785,
      0.0975,
      0.8825,
      0.1975,
      0.98,
      0.295,
      1.0775,
      0.3925,
      1.1775,
      0.49,
      1.275,
      0.5875,
      1.3725,
      0.6875
    ],
    "SoftwareVersions": "syngo_MR_E11",
    "SpacingBetweenSlices": 2,
    "StationName": "MRC35049",
    "TaskName": "figures02",
    "TotalReadoutTime": 0.0576811,
    "TxRefAmp": 220.615,
    "WipMemBlock": "49d1fc77-be48-491e-a82e-4197ec995594||Sequence: R016 ve11c/master r/e634e98; Dec 19 2017 11:00:25 by eja",
    "dataset": "<unset>",
    "dcmmeta_affine": [
      [
        -1.9968680143356323,
        -0.04078250378370285,
        -0.1041875034570694,
        106.20792388916016
      ],
      [
        -0.025785919278860092,
        1.9800175428390503,
        -0.2808302342891693,
        -83.62176513671875
      ],
      [
        -0.10887301713228226,
        0.2790471613407135,
        1.9774426221847534,
        -43.24338150024414
      ],
      [
        0.0,
        0.0,
        0.0,
        1.0
      ]
    ],
    "dcmmeta_reorient_transform": [
      [
        0.0,
        -1.0,
        0.0,
        103.0
      ],
      [
        1.0,
        0.0,
        0.0,
        0.0
      ],
      [
        0.0,
        0.0,
        1.0,
        0.0
      ],
      [
        0.0,
        0.0,
        0.0,
        1.0
      ]
    ],
    "dcmmeta_shape": [
      104,
      104,
      60,
      409
    ],
    "dcmmeta_slice_dim": 2,
    "dcmmeta_version": 0.6,
    "global": {
      "const": {
        "AcquisitionMatrix": [
          104,
          0,
          0,
          104
        ],
        "AngioFlag": "N",
        "BitsAllocated": 16,
        "BitsStored": 16,
        "BodyPartExamined": "BRAIN",
        "Columns": 832,
        "EchoNumbers": 1,
        "EchoTime": 37.0,
        "EchoTrainLength": 104,
        "FlipAngle": 52.0,
        "HighBit": 15,
        "ImageOrientationPatient": [
          0.9984339928785,
          0.01289295957674,
          -0.0544365085035,
          -0.0203912522027,
          0.9900087721085,
          -0.1395235750038
        ],
        "ImagePositionPatient": [
          -814.02244485624,
          -850.43250362528,
          126.70141530201
        ],
        "ImageType": [
          "ORIGINAL",
          "PRIMARY",
          "M",
          "MB",
          "ND",
          "MOSAIC"
        ],
        "ImagedNucleus": "1H",
        "ImagingFrequency": 123.25918,
        "InPlanePhaseEncodingDirection": "COL",
        "MRAcquisitionType": "2D",
        "MagneticFieldStrength": 3.0,
        "Manufacturer": "SIEMENS",
        "ManufacturerModelName": "Prisma_fit",
        "Modality": "MR",
        "NumberOfAverages": 1.0,
        "NumberOfPhaseEncodingSteps": 104,
        "PercentPhaseFieldOfView": 100.0,
        "PercentSampling": 100.0,
        "PerformedProcedureStepStartTime": "112713.998000",
        "PhotometricInterpretation": "MONOCHROME2",
        "PixelBandwidth": 2290.0,
        "PixelRepresentation": 0,
        "PixelSpacing": [
          2.0,
          2.0
        ],
        "ProtocolName": "func_task-figures2",
        "RepetitionTime": 1490.0,
        "Rows": 832,
        "SAR": 0.03463988169129,
        "SamplesPerPixel": 1,
        "ScanOptions": "FS",
        "ScanningSequence": "EP",
        "SequenceName": "epfid2d1_104",
        "SequenceVariant": [
          "SK",
          "SS"
        ],
        "SeriesDescription": "func_task-figures2",
        "SeriesNumber": 11,
        "SeriesTime": "121013.735000",
        "SliceLocation": -36.546663498406,
        "SliceThickness": 2.0,
        "SmallestImagePixelValue": 0,
        "SoftwareVersions": "syngo MR E11",
        "SpacingBetweenSlices": 2.0000000287592,
        "SpecificCharacterSet": "ISO_IR 100",
        "StudyID": "1",
        "StudyTime": "112713.914000",
        "TransmitCoilName": "Body",
        "VariableFlipAngleFlag": "N",
        "WindowCenterWidthExplanation": "Algo1",
        "dBdt": 0.0
      },
      "slices": {}
    },
    "modality": "bold",
    "run_id": 2,
    "session_id": "010",
    "subject_id": "04",
    "task_id": "figures02",
    "time": {
      "samples": {
        "AcquisitionNumber": [
          1,
          2,
          3,
          4,
          5,
          6,
          7,
          8,
          9,
          10,
          11,
          12,
          13,
          14,
          15,
          16,
          17,
          18,
          19,
          20,
          21,
          22,
          23,
          24,
          25,
          26,
          27,
          28,
          29,
          30,
          31,
          32,
          33,
          34,
          35,
          36,
          37,
          38,
          39,
          40,
          41,
          42,
          43,
          44,
          45,
          46,
          47,
          48,
          49,
          50,
          51,
          52,
          53,
          54,
          55,
          56,
          57,
          58,
          59,
          60,
          61,
          62,
          63,
          64,
          65,
          66,
          67,
          68,
          69,
          70,
          71,
          72,
          73,
          74,
          75,
          76,
          77,
          78,
          79,
          80,
          81,
          82,
          83,
          84,
          85,
          86,
          87,
          88,
          89,
          90,
          91,
          92,
          93,
          94,
          95,
          96,
          97,
          98,
          99,
          100,
          101,
          102,
          103,
          104,
          105,
          106,
          107,
          108,
          109,
          110,
          111,
          112,
          113,
          114,
          115,
          116,
          117,
          118,
          119,
          120,
          121,
          122,
          123,
          124,
          125,
          126,
          127,
          128,
          129,
          130,
          131,
          132,
          133,
          134,
          135,
          136,
          137,
          138,
          139,
          140,
          141,
          142,
          143,
          144,
          145,
          146,
          147,
          148,
          149,
          150,
          151,
          152,
          153,
          154,
          155,
          156,
          157,
          158,
          159,
          160,
          161,
          162,
          163,
          164,
          165,
          166,
          167,
          168,
          169,
          170,
          171,
          172,
          173,
          174,
          175,
          176,
          177,
          178,
          179,
          180,
          181,
          182,
          183,
          184,
          185,
          186,
          187,
          188,
          189,
          190,
          191,
          192,
          193,
          194,
          195,
          196,
          197,
          198,
          199,
          200,
          201,
          202,
          203,
          204,
          205,
          206,
          207,
          208,
          209,
          210,
          211,
          212,
          213,
          214,
          215,
          216,
          217,
          218,
          219,
          220,
          221,
          222,
          223,
          224,
          225,
          226,
          227,
          228,
          229,
          230,
          231,
          232,
          233,
          234,
          235,
          236,
          237,
          238,
          239,
          240,
          241,
          242,
          243,
          244,
          245,
          246,
          247,
          248,
          249,
          250,
          251,
          252,
          253,
          254,
          255,
          256,
          257,
          258,
          259,
          260,
          261,
          262,
          263,
          264,
          265,
          266,
          267,
          268,
          269,
          270,
          271,
          272,
          273,
          274,
          275,
          276,
          277,
          278,
          279,
          280,
          281,
          282,
          283,
          284,
          285,
          286,
          287,
          288,
          289,
          290,
          291,
          292,
          293,
          294,
          295,
          296,
          297,
          298,
          299,
          300,
          301,
          302,
          303,
          304,
          305,
          306,
          307,
          308,
          309,
          310,
          311,
          312,
          313,
          314,
          315,
          316,
          317,
          318,
          319,
          320,
          321,
          322,
          323,
          324,
          325,
          326,
          327,
          328,
          329,
          330,
          331,
          332,
          333,
          334,
          335,
          336,
          337,
          338,
          339,
          340,
          341,
          342,
          343,
          344,
          345,
          346,
          347,
          348,
          349,
          350,
          351,
          352,
          353,
          354,
          355,
          356,
          357,
          358,
          359,
          360,
          361,
          362,
          363,
          364,
          365,
          366,
          367,
          368,
          369,
          370,
          371,
          372,
          373,
          374,
          375,
          376,
          377,
          378,
          379,
          380,
          381,
          382,
          383,
          384,
          385,
          386,
          387,
          388,
          389,
          390,
          391,
          392,
          393,
          394,
          395,
          396,
          397,
          398,
          399,
          400,
          401,
          402,
          403,
          404,
          405,
          406,
          407,
          408,
          409
        ],
        "AcquisitionTime": [
          "120855.985000",
          "120857.475000",
          "120858.965000",
          "120900.455000",
          "120901.945000",
          "120903.435000",
          "120904.925000",
          "120906.415000",
          "120907.905000",
          "120909.395000",
          "120910.885000",
          "120912.375000",
          "120913.865000",
          "120915.355000",
          "120916.845000",
          "120918.335000",
          "120919.825000",
          "120921.315000",
          "120922.805000",
          "120924.295000",
          "120925.785000",
          "120927.275000",
          "120928.765000",
          "120930.255000",
          "120931.745000",
          "120933.235000",
          "120934.725000",
          "120936.215000",
          "120937.705000",
          "120939.195000",
          "120940.685000",
          "120942.175000",
          "120943.665000",
          "120945.155000",
          "120946.645000",
          "120948.135000",
          "120949.625000",
          "120951.115000",
          "120952.605000",
          "120954.095000",
          "120955.585000",
          "120957.075000",
          "120958.565000",
          "121000.055000",
          "121001.545000",
          "121003.035000",
          "121004.525000",
          "121006.015000",
          "121007.505000",
          "121008.995000",
          "121010.485000",
          "121011.975000",
          "121013.465000",
          "121014.955000",
          "121016.445000",
          "121017.935000",
          "121019.425000",
          "121020.915000",
          "121022.405000",
          "121023.895000",
          "121025.385000",
          "121026.875000",
          "121028.365000",
          "121029.855000",
          "121031.345000",
          "121032.835000",
          "121034.325000",
          "121035.815000",
          "121037.305000",
          "121038.795000",
          "121040.285000",
          "121041.775000",
          "121043.265000",
          "121044.755000",
          "121046.245000",
          "121047.735000",
          "121049.225000",
          "121050.715000",
          "121052.205000",
          "121053.695000",
          "121055.185000",
          "121056.675000",
          "121058.165000",
          "121059.655000",
          "121101.145000",
          "121102.635000",
          "121104.125000",
          "121105.615000",
          "121107.105000",
          "121108.595000",
          "121110.085000",
          "121111.575000",
          "121113.065000",
          "121114.555000",
          "121116.045000",
          "121117.535000",
          "121119.025000",
          "121120.515000",
          "121122.005000",
          "121123.495000",
          "121124.985000",
          "121126.475000",
          "121127.965000",
          "121129.455000",
          "121130.945000",
          "121132.435000",
          "121133.925000",
          "121135.415000",
          "121136.905000",
          "121138.395000",
          "121139.885000",
          "121141.375000",
          "121142.865000",
          "121144.355000",
          "121145.845000",
          "121147.335000",
          "121148.825000",
          "121150.315000",
          "121151.805000",
          "121153.295000",
          "121154.785000",
          "121156.275000",
          "121157.765000",
          "121159.255000",
          "121200.745000",
          "121202.235000",
          "121203.725000",
          "121205.215000",
          "121206.705000",
          "121208.195000",
          "121209.685000",
          "121211.175000",
          "121212.665000",
          "121214.155000",
          "121215.645000",
          "121217.135000",
          "121218.625000",
          "121220.115000",
          "121221.605000",
          "121223.095000",
          "121224.585000",
          "121226.075000",
          "121227.565000",
          "121229.055000",
          "121230.545000",
          "121232.035000",
          "121233.525000",
          "121235.015000",
          "121236.505000",
          "121237.995000",
          "121239.485000",
          "121240.975000",
          "121242.465000",
          "121243.955000",
          "121245.445000",
          "121246.935000",
          "121248.425000",
          "121249.915000",
          "121251.405000",
          "121252.895000",
          "121254.385000",
          "121255.875000",
          "121257.365000",
          "121258.855000",
          "121300.345000",
          "121301.835000",
          "121303.325000",
          "121304.815000",
          "121306.305000",
          "121307.795000",
          "121309.285000",
          "121310.775000",
          "121312.265000",
          "121313.755000",
          "121315.245000",
          "121316.735000",
          "121318.225000",
          "121319.715000",
          "121321.205000",
          "121322.695000",
          "121324.185000",
          "121325.675000",
          "121327.165000",
          "121328.655000",
          "121330.145000",
          "121331.635000",
          "121333.125000",
          "121334.615000",
          "121336.105000",
          "121337.595000",
          "121339.085000",
          "121340.575000",
          "121342.065000",
          "121343.555000",
          "121345.045000",
          "121346.535000",
          "121348.025000",
          "121349.515000",
          "121351.005000",
          "121352.495000",
          "121353.985000",
          "121355.475000",
          "121356.965000",
          "121358.455000",
          "121359.945000",
          "121401.435000",
          "121402.925000",
          "121404.415000",
          "121405.905000",
          "121407.395000",
          "121408.885000",
          "121410.375000",
          "121411.865000",
          "121413.355000",
          "121414.845000",
          "121416.335000",
          "121417.825000",
          "121419.315000",
          "121420.805000",
          "121422.295000",
          "121423.785000",
          "121425.275000",
          "121426.765000",
          "121428.255000",
          "121429.745000",
          "121431.235000",
          "121432.725000",
          "121434.215000",
          "121435.705000",
          "121437.195000",
          "121438.685000",
          "121440.175000",
          "121441.665000",
          "121443.155000",
          "121444.645000",
          "121446.135000",
          "121447.625000",
          "121449.115000",
          "121450.605000",
          "121452.095000",
          "121453.585000",
          "121455.075000",
          "121456.565000",
          "121458.055000",
          "121459.545000",
          "121501.035000",
          "121502.525000",
          "121504.015000",
          "121505.505000",
          "121506.995000",
          "121508.485000",
          "121509.975000",
          "121511.465000",
          "121512.955000",
          "121514.445000",
          "121515.935000",
          "121517.425000",
          "121518.915000",
          "121520.405000",
          "121521.895000",
          "121523.385000",
          "121524.875000",
          "121526.365000",
          "121527.855000",
          "121529.345000",
          "121530.835000",
          "121532.325000",
          "121533.815000",
          "121535.305000",
          "121536.795000",
          "121538.285000",
          "121539.775000",
          "121541.265000",
          "121542.755000",
          "121544.245000",
          "121545.735000",
          "121547.225000",
          "121548.715000",
          "121550.205000",
          "121551.695000",
          "121553.185000",
          "121554.675000",
          "121556.165000",
          "121557.655000",
          "121559.145000",
          "121600.635000",
          "121602.125000",
          "121603.615000",
          "121605.105000",
          "121606.595000",
          "121608.085000",
          "121609.575000",
          "121611.065000",
          "121612.555000",
          "121614.045000",
          "121615.535000",
          "121617.025000",
          "121618.515000",
          "121620.005000",
          "121621.495000",
          "121622.985000",
          "121624.475000",
          "121625.965000",
          "121627.455000",
          "121628.945000",
          "121630.435000",
          "121631.925000",
          "121633.415000",
          "121634.905000",
          "121636.395000",
          "121637.885000",
          "121639.375000",
          "121640.865000",
          "121642.355000",
          "121643.845000",
          "121645.335000",
          "121646.825000",
          "121648.315000",
          "121649.805000",
          "121651.295000",
          "121652.785000",
          "121654.275000",
          "121655.765000",
          "121657.255000",
          "121658.745000",
          "121700.235000",
          "121701.725000",
          "121703.215000",
          "121704.705000",
          "121706.195000",
          "121707.685000",
          "121709.175000",
          "121710.665000",
          "121712.155000",
          "121713.645000",
          "121715.135000",
          "121716.625000",
          "121718.115000",
          "121719.605000",
          "121721.095000",
          "121722.585000",
          "121724.075000",
          "121725.565000",
          "121727.055000",
          "121728.545000",
          "121730.035000",
          "121731.525000",
          "121733.015000",
          "121734.505000",
          "121735.995000",
          "121737.485000",
          "121738.975000",
          "121740.465000",
          "121741.955000",
          "121743.445000",
          "121744.935000",
          "121746.425000",
          "121747.915000",
          "121749.405000",
          "121750.895000",
          "121752.385000",
          "121753.875000",
          "121755.365000",
          "121756.855000",
          "121758.345000",
          "121759.835000",
          "121801.325000",
          "121802.815000",
          "121804.305000",
          "121805.795000",
          "121807.285000",
          "121808.775000",
          "121810.265000",
          "121811.755000",
          "121813.245000",
          "121814.735000",
          "121816.225000",
          "121817.715000",
          "121819.205000",
          "121820.695000",
          "121822.185000",
          "121823.675000",
          "121825.165000",
          "121826.655000",
          "121828.145000",
          "121829.635000",
          "121831.125000",
          "121832.615000",
          "121834.105000",
          "121835.595000",
          "121837.085000",
          "121838.575000",
          "121840.065000",
          "121841.555000",
          "121843.045000",
          "121844.535000",
          "121846.025000",
          "121847.515000",
          "121849.005000",
          "121850.495000",
          "121851.985000",
          "121853.475000",
          "121854.965000",
          "121856.455000",
          "121857.945000",
          "121859.435000",
          "121900.925000",
          "121902.415000",
          "121903.905000"
        ],
        "ContentTime": [
          "121013.738000",
          "121013.741000",
          "121013.750000",
          "121013.753000",
          "121013.756000",
          "121013.759000",
          "121013.762000",
          "121013.765000",
          "121013.768000",
          "121013.771000",
          "121013.776000",
          "121013.779000",
          "121013.781000",
          "121013.784000",
          "121013.787000",
          "121013.790000",
          "121013.793000",
          "121013.796000",
          "121013.805000",
          "121013.808000",
          "121013.811000",
          "121013.814000",
          "121013.817000",
          "121033.696000",
          "121033.699000",
          "121033.702000",
          "121033.705000",
          "121033.708000",
          "121033.711000",
          "121033.713000",
          "121033.716000",
          "121033.719000",
          "121033.722000",
          "121033.725000",
          "121033.728000",
          "121033.731000",
          "121033.733000",
          "121033.736000",
          "121033.739000",
          "121033.742000",
          "121033.745000",
          "121033.748000",
          "121033.750000",
          "121053.696000",
          "121053.699000",
          "121053.702000",
          "121053.705000",
          "121053.707000",
          "121053.710000",
          "121053.713000",
          "121053.716000",
          "121053.719000",
          "121053.728000",
          "121053.731000",
          "121053.734000",
          "121053.737000",
          "121053.740000",
          "121053.742000",
          "121053.745000",
          "121053.748000",
          "121053.751000",
          "121053.754000",
          "121053.757000",
          "121113.696000",
          "121113.699000",
          "121113.702000",
          "121113.705000",
          "121113.708000",
          "121113.711000",
          "121113.714000",
          "121113.717000",
          "121113.720000",
          "121113.723000",
          "121113.725000",
          "121113.728000",
          "121113.732000",
          "121113.735000",
          "121113.738000",
          "121113.741000",
          "121113.744000",
          "121113.747000",
          "121113.750000",
          "121113.753000",
          "121133.696000",
          "121133.699000",
          "121133.702000",
          "121133.705000",
          "121133.708000",
          "121133.710000",
          "121133.713000",
          "121133.716000",
          "121133.719000",
          "121133.722000",
          "121133.725000",
          "121133.728000",
          "121133.730000",
          "121133.733000",
          "121133.736000",
          "121133.739000",
          "121133.742000",
          "121133.744000",
          "121133.747000",
          "121133.750000",
          "121133.753000",
          "121213.696000",
          "121213.699000",
          "121213.702000",
          "121213.705000",
          "121213.708000",
          "121213.710000",
          "121213.713000",
          "121213.716000",
          "121213.719000",
          "121213.722000",
          "121213.725000",
          "121213.728000",
          "121213.744000",
          "121213.747000",
          "121213.750000",
          "121213.753000",
          "121213.756000",
          "121213.768000",
          "121213.771000",
          "121213.774000",
          "121213.777000",
          "121213.780000",
          "121213.783000",
          "121213.786000",
          "121213.788000",
          "121213.792000",
          "121213.794000",
          "121253.696000",
          "121253.699000",
          "121253.702000",
          "121253.705000",
          "121253.708000",
          "121253.710000",
          "121253.713000",
          "121253.716000",
          "121253.719000",
          "121253.722000",
          "121253.725000",
          "121253.728000",
          "121253.731000",
          "121253.733000",
          "121253.736000",
          "121253.739000",
          "121253.742000",
          "121253.745000",
          "121253.748000",
          "121253.751000",
          "121253.754000",
          "121253.756000",
          "121253.759000",
          "121253.762000",
          "121253.765000",
          "121253.768000",
          "121253.771000",
          "121333.696000",
          "121333.699000",
          "121333.702000",
          "121333.705000",
          "121333.708000",
          "121333.711000",
          "121333.713000",
          "121333.716000",
          "121333.719000",
          "121333.722000",
          "121333.725000",
          "121333.728000",
          "121333.731000",
          "121333.734000",
          "121333.736000",
          "121333.739000",
          "121333.742000",
          "121333.745000",
          "121333.748000",
          "121333.751000",
          "121333.753000",
          "121333.756000",
          "121333.759000",
          "121333.762000",
          "121333.765000",
          "121333.768000",
          "121333.771000",
          "121413.696000",
          "121413.699000",
          "121413.702000",
          "121413.705000",
          "121413.708000",
          "121413.710000",
          "121413.713000",
          "121413.716000",
          "121413.719000",
          "121413.722000",
          "121413.725000",
          "121413.728000",
          "121413.731000",
          "121413.733000",
          "121413.736000",
          "121413.739000",
          "121413.742000",
          "121413.745000",
          "121413.748000",
          "121413.751000",
          "121413.754000",
          "121413.756000",
          "121413.759000",
          "121413.762000",
          "121413.765000",
