{
  "aor": 0.00042439803439803437,
  "aqi": 0.00839593176904177,
  "bids_meta": {
    "AcquisitionMatrixPE": 104,
    "AcquisitionNumber": 1,
    "AcquisitionTime": "12:40:53.042500",
    "BandwidthPerPixelPhaseEncode": 17.17,
    "BaseResolution": 104,
    "BodyPartExamined": "BRAIN",
    "CogAtlasID": "trm_4c898da401420",
    "CoilString": "HC1-7;NC1_2",
    "ConsistencyInfo": "N4_VE11C_LATEST_20160120",
    "ConversionSoftware": "dcm2niix",
    "ConversionSoftwareVersion": "v1.0.20190720  (JP2:OpenJPEG) GCC7.3.0",
    "DerivedVendorReportedEchoSpacing": 0.000560011,
    "DeviceSerialNumber": "167006",
    "DwellTime": 2.1e-06,
    "EchoTime": 0.037,
    "EchoTrainLength": 104,
    "EffectiveEchoSpacing": 0.000560011,
    "FlipAngle": 52,
    "ImageComments": "Unaliased_MB4_PE3_LB",
    "ImageOrientationPatientDICOM": [
      0.998434,
      0.012893,
      -0.0544365,
      -0.0203913,
      0.990009,
      -0.139524
    ],
    "ImageType": [
      "ORIGINAL",
      "PRIMARY",
      "M",
      "MB",
      "ND",
      "MOSAIC"
    ],
    "ImagingFrequency": 123.259,
    "InPlanePhaseEncodingDirectionDICOM": "COL",
    "InstitutionAddress": "Chemin_Queen-Mary_4565_Montreal_District_CA_H3W_1W5",
    "InstitutionName": "IUGM",
    "InstitutionalDepartmentName": "Department",
    "MRAcquisitionType": "2D",
    "MagneticFieldStrength": 3,
    "Manufacturer": "Siemens",
    "ManufacturersModelName": "Prisma_fit",
    "Modality": "MR",
    "MultibandAccelerationFactor": 4,
    "PartialFourier": 1,
    "PatientPosition": "HFS",
    "PercentPhaseFOV": 100,
    "PhaseEncodingDirection": "j-",
    "PhaseEncodingSteps": 104,
    "PhaseResolution": 1,
    "PixelBandwidth": 2290,
    "ProcedureStepDescription": "video5_generic",
    "ProtocolName": "func_task-figures5",
    "PulseSequenceDetails": "%CustomerSeq%_cmrr_mbep2d_bold",
    "ReceiveCoilActiveElements": "HC1-7;NC1,2",
    "ReceiveCoilName": "HeadNeck_64",
    "ReconMatrixPE": 104,
    "RepetitionTime": 1.49,
    "SAR": 0.0346395,
    "ScanOptions": "FS",
    "ScanningSequence": "EP",
    "SequenceName": "epfid2d1_104",
    "SequenceVariant": "SK_SS",
    "SeriesDescription": "func_task-figures5",
    "SeriesNumber": 17,
    "ShimSetting": [
      607,
      -7260,
      -8833,
      588,
      -29,
      -325,
      0,
      36
    ],
    "SliceThickness": 2,
    "SliceTiming": [
      0,
      0.7825,
      0.0975,
      0.88,
      0.195,
      0.98,
      0.2925,
      1.0775,
      0.39,
      1.175,
      0.49,
      1.2725,
      0.5875,
      1.37,
      0.685,
      0,
      0.7825,
      0.0975,
      0.88,
      0.195,
      0.98,
      0.2925,
      1.0775,
      0.39,
      1.175,
      0.49,
      1.2725,
      0.5875,
      1.37,
      0.685,
      0,
      0.7825,
      0.0975,
      0.88,
      0.195,
      0.98,
      0.2925,
      1.0775,
      0.39,
      1.175,
      0.49,
      1.2725,
      0.5875,
      1.37,
      0.685,
      0,
      0.7825,
      0.0975,
      0.88,
      0.195,
      0.98,
      0.2925,
      1.0775,
      0.39,
      1.175,
      0.49,
      1.2725,
      0.5875,
      1.37,
      0.685
    ],
    "SoftwareVersions": "syngo_MR_E11",
    "SpacingBetweenSlices": 2,
    "StationName": "MRC35049",
    "TaskName": "figures05",
    "TotalReadoutTime": 0.0576811,
    "TxRefAmp": 220.615,
    "WipMemBlock": "036c631a-b1b8-408b-a9b3-f971fce82378||Sequence: R016 ve11c/master r/e634e98; Dec 19 2017 11:00:25 by eja",
    "dataset": "<unset>",
    "dcmmeta_affine": [
      [
        -1.9968680143356323,
        -0.04078250378370285,
        -0.1041875034570694,
        106.20792388916016
      ],
      [
        -0.025785919278860092,
        1.9800175428390503,
        -0.2808302342891693,
        -83.62176513671875
      ],
      [
        -0.10887301713228226,
        0.2790471613407135,
        1.9774426221847534,
        -43.24338150024414
      ],
      [
        0.0,
        0.0,
        0.0,
        1.0
      ]
    ],
    "dcmmeta_reorient_transform": [
      [
        0.0,
        -1.0,
        0.0,
        103.0
      ],
      [
        1.0,
        0.0,
        0.0,
        0.0
      ],
      [
        0.0,
        0.0,
        1.0,
        0.0
      ],
      [
        0.0,
        0.0,
        0.0,
        1.0
      ]
    ],
    "dcmmeta_shape": [
      104,
      104,
      60,
      408
    ],
    "dcmmeta_slice_dim": 2,
    "dcmmeta_version": 0.6,
    "global": {
      "const": {
        "AcquisitionMatrix": [
          104,
          0,
          0,
          104
        ],
        "AngioFlag": "N",
        "BitsAllocated": 16,
        "BitsStored": 16,
        "BodyPartExamined": "BRAIN",
        "Columns": 832,
        "EchoNumbers": 1,
        "EchoTime": 37.0,
        "EchoTrainLength": 104,
        "FlipAngle": 52.0,
        "HighBit": 15,
        "ImageOrientationPatient": [
          0.9984339928785,
          0.01289295957674,
          -0.0544365085035,
          -0.0203912522027,
          0.9900087721085,
          -0.1395235750038
        ],
        "ImagePositionPatient": [
          -814.02244485624,
          -850.43250362528,
          126.70141530201
        ],
        "ImageType": [
          "ORIGINAL",
          "PRIMARY",
          "M",
          "MB",
          "ND",
          "MOSAIC"
        ],
        "ImagedNucleus": "1H",
        "ImagingFrequency": 123.259194,
        "InPlanePhaseEncodingDirection": "COL",
        "MRAcquisitionType": "2D",
        "MagneticFieldStrength": 3.0,
        "Manufacturer": "SIEMENS",
        "ManufacturerModelName": "Prisma_fit",
        "Modality": "MR",
        "NumberOfAverages": 1.0,
        "NumberOfPhaseEncodingSteps": 104,
        "PercentPhaseFieldOfView": 100.0,
        "PercentSampling": 100.0,
        "PerformedProcedureStepStartTime": "112713.998000",
        "PhotometricInterpretation": "MONOCHROME2",
        "PixelBandwidth": 2290.0,
        "PixelRepresentation": 0,
        "PixelSpacing": [
          2.0,
          2.0
        ],
        "ProtocolName": "func_task-figures5",
        "RepetitionTime": 1490.0,
        "Rows": 832,
        "SAR": 0.03463947321484,
        "SamplesPerPixel": 1,
        "ScanOptions": "FS",
        "ScanningSequence": "EP",
        "SequenceName": "epfid2d1_104",
        "SequenceVariant": [
          "SK",
          "SS"
        ],
        "SeriesDescription": "func_task-figures5",
        "SeriesNumber": 17,
        "SeriesTime": "124213.719000",
        "SliceLocation": -36.546663498406,
        "SliceThickness": 2.0,
        "SmallestImagePixelValue": 0,
        "SoftwareVersions": "syngo MR E11",
        "SpacingBetweenSlices": 2.0000000287592,
        "SpecificCharacterSet": "ISO_IR 100",
        "StudyID": "1",
        "StudyTime": "112713.914000",
        "TransmitCoilName": "Body",
        "VariableFlipAngleFlag": "N",
        "WindowCenterWidthExplanation": "Algo1",
        "dBdt": 0.0
      },
      "slices": {}
    },
    "modality": "bold",
    "run_id": 2,
    "session_id": "010",
    "subject_id": "04",
    "task_id": "figures05",
    "time": {
      "samples": {
        "AcquisitionNumber": [
          1,
          2,
          3,
          4,
          5,
          6,
          7,
          8,
          9,
          10,
          11,
          12,
          13,
          14,
          15,
          16,
          17,
          18,
          19,
          20,
          21,
          22,
          23,
          24,
          25,
          26,
          27,
          28,
          29,
          30,
          31,
          32,
          33,
          34,
          35,
          36,
          37,
          38,
          39,
          40,
          41,
          42,
          43,
          44,
          45,
          46,
          47,
          48,
          49,
          50,
          51,
          52,
          53,
          54,
          55,
          56,
          57,
          58,
          59,
          60,
          61,
          62,
          63,
          64,
          65,
          66,
          67,
          68,
          69,
          70,
          71,
          72,
          73,
          74,
          75,
          76,
          77,
          78,
          79,
          80,
          81,
          82,
          83,
          84,
          85,
          86,
          87,
          88,
          89,
          90,
          91,
          92,
          93,
          94,
          95,
          96,
          97,
          98,
          99,
          100,
          101,
          102,
          103,
          104,
          105,
          106,
          107,
          108,
          109,
          110,
          111,
          112,
          113,
          114,
          115,
          116,
          117,
          118,
          119,
          120,
          121,
          122,
          123,
          124,
          125,
          126,
          127,
          128,
          129,
          130,
          131,
          132,
          133,
          134,
          135,
          136,
          137,
          138,
          139,
          140,
          141,
          142,
          143,
          144,
          145,
          146,
          147,
          148,
          149,
          150,
          151,
          152,
          153,
          154,
          155,
          156,
          157,
          158,
          159,
          160,
          161,
          162,
          163,
          164,
          165,
          166,
          167,
          168,
          169,
          170,
          171,
          172,
          173,
          174,
          175,
          176,
          177,
          178,
          179,
          180,
          181,
          182,
          183,
          184,
          185,
          186,
          187,
          188,
          189,
          190,
          191,
          192,
          193,
          194,
          195,
          196,
          197,
          198,
          199,
          200,
          201,
          202,
          203,
          204,
          205,
          206,
          207,
          208,
          209,
          210,
          211,
          212,
          213,
          214,
          215,
          216,
          217,
          218,
          219,
          220,
          221,
          222,
          223,
          224,
          225,
          226,
          227,
          228,
          229,
          230,
          231,
          232,
          233,
          234,
          235,
          236,
          237,
          238,
          239,
          240,
          241,
          242,
          243,
          244,
          245,
          246,
          247,
          248,
          249,
          250,
          251,
          252,
          253,
          254,
          255,
          256,
          257,
          258,
          259,
          260,
          261,
          262,
          263,
          264,
          265,
          266,
          267,
          268,
          269,
          270,
          271,
          272,
          273,
          274,
          275,
          276,
          277,
          278,
          279,
          280,
          281,
          282,
          283,
          284,
          285,
          286,
          287,
          288,
          289,
          290,
          291,
          292,
          293,
          294,
          295,
          296,
          297,
          298,
          299,
          300,
          301,
          302,
          303,
          304,
          305,
          306,
          307,
          308,
          309,
          310,
          311,
          312,
          313,
          314,
          315,
          316,
          317,
          318,
          319,
          320,
          321,
          322,
          323,
          324,
          325,
          326,
          327,
          328,
          329,
          330,
          331,
          332,
          333,
          334,
          335,
          336,
          337,
          338,
          339,
          340,
          341,
          342,
          343,
          344,
          345,
          346,
          347,
          348,
          349,
          350,
          351,
          352,
          353,
          354,
          355,
          356,
          357,
          358,
          359,
          360,
          361,
          362,
          363,
          364,
          365,
          366,
          367,
          368,
          369,
          370,
          371,
          372,
          373,
          374,
          375,
          376,
          377,
          378,
          379,
          380,
          381,
          382,
          383,
          384,
          385,
          386,
          387,
          388,
          389,
          390,
          391,
          392,
          393,
          394,
          395,
          396,
          397,
          398,
          399,
          400,
          401,
          402,
          403,
          404,
          405,
          406,
          407,
          408
        ],
        "AcquisitionTime": [
          "124053.042500",
          "124054.532500",
          "124056.022500",
          "124057.512500",
          "124059.002500",
          "124100.492500",
          "124101.982500",
          "124103.472500",
          "124104.962500",
          "124106.452500",
          "124107.942500",
          "124109.432500",
          "124110.922500",
          "124112.412500",
          "124113.902500",
          "124115.392500",
          "124116.882500",
          "124118.372500",
          "124119.862500",
          "124121.352500",
          "124122.842500",
          "124124.332500",
          "124125.822500",
          "124127.312500",
          "124128.802500",
          "124130.292500",
          "124131.782500",
          "124133.272500",
          "124134.762500",
          "124136.252500",
          "124137.742500",
          "124139.232500",
          "124140.722500",
          "124142.212500",
          "124143.702500",
          "124145.192500",
          "124146.682500",
          "124148.172500",
          "124149.662500",
          "124151.152500",
          "124152.642500",
          "124154.132500",
          "124155.622500",
          "124157.112500",
          "124158.602500",
          "124200.092500",
          "124201.582500",
          "124203.072500",
          "124204.562500",
          "124206.052500",
          "124207.542500",
          "124209.032500",
          "124210.522500",
          "124212.012500",
          "124213.502500",
          "124214.992500",
          "124216.482500",
          "124217.972500",
          "124219.462500",
          "124220.952500",
          "124222.442500",
          "124223.932500",
          "124225.422500",
          "124226.912500",
          "124228.402500",
          "124229.892500",
          "124231.382500",
          "124232.872500",
          "124234.362500",
          "124235.852500",
          "124237.342500",
          "124238.832500",
          "124240.322500",
          "124241.812500",
          "124243.302500",
          "124244.792500",
          "124246.282500",
          "124247.772500",
          "124249.262500",
          "124250.752500",
          "124252.242500",
          "124253.732500",
          "124255.222500",
          "124256.712500",
          "124258.202500",
          "124259.692500",
          "124301.182500",
          "124302.672500",
          "124304.162500",
          "124305.652500",
          "124307.142500",
          "124308.632500",
          "124310.122500",
          "124311.612500",
          "124313.102500",
          "124314.592500",
          "124316.082500",
          "124317.572500",
          "124319.062500",
          "124320.552500",
          "124322.042500",
          "124323.532500",
          "124325.022500",
          "124326.512500",
          "124328.002500",
          "124329.492500",
          "124330.982500",
          "124332.472500",
          "124333.962500",
          "124335.452500",
          "124336.942500",
          "124338.432500",
          "124339.922500",
          "124341.412500",
          "124342.902500",
          "124344.392500",
          "124345.882500",
          "124347.372500",
          "124348.862500",
          "124350.352500",
          "124351.842500",
          "124353.332500",
          "124354.822500",
          "124356.312500",
          "124357.802500",
          "124359.292500",
          "124400.782500",
          "124402.272500",
          "124403.762500",
          "124405.252500",
          "124406.742500",
          "124408.232500",
          "124409.722500",
          "124411.212500",
          "124412.702500",
          "124414.192500",
          "124415.682500",
          "124417.172500",
          "124418.662500",
          "124420.152500",
          "124421.642500",
          "124423.132500",
          "124424.622500",
          "124426.112500",
          "124427.602500",
          "124429.092500",
          "124430.582500",
          "124432.072500",
          "124433.562500",
          "124435.052500",
          "124436.542500",
          "124438.032500",
          "124439.522500",
          "124441.012500",
          "124442.502500",
          "124443.992500",
          "124445.482500",
          "124446.972500",
          "124448.462500",
          "124449.952500",
          "124451.442500",
          "124452.932500",
          "124454.422500",
          "124455.912500",
          "124457.402500",
          "124458.892500",
          "124500.382500",
          "124501.872500",
          "124503.362500",
          "124504.852500",
          "124506.342500",
          "124507.832500",
          "124509.322500",
          "124510.812500",
          "124512.302500",
          "124513.792500",
          "124515.282500",
          "124516.772500",
          "124518.262500",
          "124519.752500",
          "124521.242500",
          "124522.732500",
          "124524.222500",
          "124525.712500",
          "124527.202500",
          "124528.692500",
          "124530.182500",
          "124531.672500",
          "124533.162500",
          "124534.652500",
          "124536.142500",
          "124537.632500",
          "124539.122500",
          "124540.612500",
          "124542.102500",
          "124543.592500",
          "124545.082500",
          "124546.572500",
          "124548.062500",
          "124549.552500",
          "124551.042500",
          "124552.532500",
          "124554.022500",
          "124555.512500",
          "124557.002500",
          "124558.492500",
          "124559.982500",
          "124601.472500",
          "124602.962500",
          "124604.452500",
          "124605.942500",
          "124607.432500",
          "124608.922500",
          "124610.412500",
          "124611.902500",
          "124613.392500",
          "124614.882500",
          "124616.372500",
          "124617.862500",
          "124619.352500",
          "124620.842500",
          "124622.332500",
          "124623.822500",
          "124625.312500",
          "124626.802500",
          "124628.292500",
          "124629.782500",
          "124631.272500",
          "124632.762500",
          "124634.252500",
          "124635.742500",
          "124637.232500",
          "124638.722500",
          "124640.212500",
          "124641.702500",
          "124643.192500",
          "124644.682500",
          "124646.172500",
          "124647.662500",
          "124649.152500",
          "124650.642500",
          "124652.132500",
          "124653.622500",
          "124655.112500",
          "124656.602500",
          "124658.092500",
          "124659.582500",
          "124701.072500",
          "124702.562500",
          "124704.052500",
          "124705.542500",
          "124707.032500",
          "124708.522500",
          "124710.012500",
          "124711.502500",
          "124712.992500",
          "124714.482500",
          "124715.972500",
          "124717.462500",
          "124718.952500",
          "124720.442500",
          "124721.932500",
          "124723.422500",
          "124724.912500",
          "124726.402500",
          "124727.892500",
          "124729.382500",
          "124730.872500",
          "124732.362500",
          "124733.852500",
          "124735.342500",
          "124736.832500",
          "124738.322500",
          "124739.812500",
          "124741.302500",
          "124742.792500",
          "124744.282500",
          "124745.772500",
          "124747.262500",
          "124748.752500",
          "124750.242500",
          "124751.732500",
          "124753.222500",
          "124754.712500",
          "124756.202500",
          "124757.692500",
          "124759.182500",
          "124800.672500",
          "124802.162500",
          "124803.652500",
          "124805.142500",
          "124806.632500",
          "124808.122500",
          "124809.612500",
          "124811.102500",
          "124812.592500",
          "124814.082500",
          "124815.572500",
          "124817.062500",
          "124818.552500",
          "124820.042500",
          "124821.532500",
          "124823.022500",
          "124824.512500",
          "124826.002500",
          "124827.492500",
          "124828.982500",
          "124830.472500",
          "124831.962500",
          "124833.452500",
          "124834.942500",
          "124836.432500",
          "124837.922500",
          "124839.412500",
          "124840.902500",
          "124842.392500",
          "124843.882500",
          "124845.372500",
          "124846.862500",
          "124848.352500",
          "124849.842500",
          "124851.332500",
          "124852.822500",
          "124854.312500",
          "124855.802500",
          "124857.292500",
          "124858.782500",
          "124900.272500",
          "124901.762500",
          "124903.252500",
          "124904.742500",
          "124906.232500",
          "124907.722500",
          "124909.212500",
          "124910.702500",
          "124912.192500",
          "124913.682500",
          "124915.172500",
          "124916.662500",
          "124918.152500",
          "124919.642500",
          "124921.132500",
          "124922.622500",
          "124924.112500",
          "124925.602500",
          "124927.092500",
          "124928.582500",
          "124930.072500",
          "124931.562500",
          "124933.052500",
          "124934.542500",
          "124936.032500",
          "124937.522500",
          "124939.012500",
          "124940.502500",
          "124941.992500",
          "124943.482500",
          "124944.972500",
          "124946.462500",
          "124947.952500",
          "124949.442500",
          "124950.932500",
          "124952.422500",
          "124953.912500",
          "124955.402500",
          "124956.892500",
          "124958.382500",
          "124959.872500",
          "125001.362500",
          "125002.852500",
          "125004.342500",
          "125005.832500",
          "125007.322500",
          "125008.812500",
          "125010.302500",
          "125011.792500",
          "125013.282500",
          "125014.772500",
          "125016.262500",
          "125017.752500",
          "125019.242500",
          "125020.732500",
          "125022.222500",
          "125023.712500",
          "125025.202500",
          "125026.692500",
          "125028.182500",
          "125029.672500",
          "125031.162500",
          "125032.652500",
          "125034.142500",
          "125035.632500",
          "125037.122500",
          "125038.612500",
          "125040.102500",
          "125041.592500",
          "125043.082500",
          "125044.572500",
          "125046.062500",
          "125047.552500",
          "125049.042500",
          "125050.532500",
          "125052.022500",
          "125053.512500",
          "125055.002500",
          "125056.492500",
          "125057.982500",
          "125059.472500"
        ],
        "ContentTime": [
          "124213.722000",
          "124213.725000",
          "124213.734000",
          "124213.737000",
          "124213.740000",
          "124213.743000",
          "124213.746000",
          "124213.749000",
          "124213.751000",
          "124213.754000",
          "124213.757000",
          "124213.760000",
          "124213.769000",
          "124213.772000",
          "124213.775000",
          "124213.778000",
          "124213.781000",
          "124213.784000",
          "124213.787000",
          "124213.790000",
          "124213.792000",
          "124213.795000",
          "124213.798000",
          "124213.801000",
          "124213.804000",
          "124213.807000",
          "124213.810000",
          "124233.697000",
          "124233.700000",
          "124233.704000",
          "124233.707000",
          "124233.716000",
          "124233.719000",
          "124233.722000",
          "124233.725000",
          "124233.728000",
          "124233.730000",
          "124233.733000",
          "124233.736000",
          "124233.739000",
          "124233.742000",
          "124233.745000",
          "124233.748000",
          "124233.750000",
          "124233.753000",
          "124233.756000",
          "124233.759000",
          "124253.696000",
          "124253.699000",
          "124253.702000",
          "124253.710000",
          "124253.713000",
          "124253.716000",
          "124253.719000",
          "124253.722000",
          "124253.725000",
          "124253.728000",
          "124253.730000",
          "124253.733000",
          "124253.736000",
          "124253.739000",
          "124253.742000",
          "124253.744000",
          "124253.747000",
          "124253.750000",
          "124253.753000",
          "124253.756000",
          "124313.696000",
          "124313.704000",
          "124313.706000",
          "124313.709000",
          "124313.712000",
          "124313.715000",
          "124313.718000",
          "124313.721000",
          "124313.723000",
          "124313.726000",
          "124313.729000",
          "124313.732000",
          "124313.742000",
          "124313.745000",
          "124313.748000",
          "124313.751000",
          "124313.754000",
          "124313.757000",
          "124313.760000",
          "124313.762000",
          "124313.765000",
          "124353.696000",
          "124353.699000",
          "124353.702000",
          "124353.705000",
          "124353.708000",
          "124353.711000",
          "124353.713000",
          "124353.716000",
          "124353.719000",
          "124353.722000",
          "124353.729000",
          "124353.732000",
          "124353.735000",
          "124353.738000",
          "124353.741000",
          "124353.744000",
          "124353.746000",
          "124353.749000",
          "124353.752000",
          "124353.755000",
          "124353.758000",
          "124353.761000",
          "124353.764000",
          "124353.766000",
          "124353.769000",
          "124353.772000",
          "124353.775000",
          "124353.778000",
          "124353.781000",
          "124353.784000",
          "124353.787000",
          "124353.789000",
          "124353.792000",
          "124433.696000",
          "124433.699000",
          "124433.702000",
          "124433.705000",
          "124433.708000",
          "124433.710000",
          "124433.713000",
          "124433.716000",
          "124433.719000",
          "124433.722000",
          "124433.725000",
          "124433.728000",
          "124433.731000",
          "124433.733000",
          "124433.736000",
          "124433.739000",
          "124433.742000",
          "124433.745000",
          "124433.748000",
          "124433.751000",
          "124433.754000",
          "124433.757000",
          "124433.760000",
          "124433.763000",
          "124433.765000",
          "124433.768000",
          "124513.696000",
          "124513.699000",
          "124513.702000",
          "124513.705000",
          "124513.708000",
          "124513.710000",
          "124513.713000",
          "124513.716000",
          "124513.719000",
          "124513.722000",
          "124513.725000",
          "124513.728000",
          "124513.731000",
          "124513.733000",
          "124513.736000",
          "124513.739000",
          "124513.742000",
          "124513.745000",
          "124513.748000",
          "124513.751000",
          "124513.754000",
          "124513.756000",
          "124513.759000",
          "124513.762000",
          "124513.765000",
          "124513.768000",
          "124513.771000",
          "124553.696000",
          "124553.699000",
          "124553.702000",
          "124553.705000",
          "124553.708000",
          "124553.711000",
          "124553.714000",
          "124553.717000",
          "124553.737000",
          "124553.740000",
          "124553.743000",
          "124553.745000",
          "124553.748000",
          "124553.751000",
          "124553.754000",
          "124553.757000",
          "124553.760000",
          "124553.763000",
          "124553.766000",
          "124553.768000",
          "124553.771000",
          "124553.774000",
          "124553.777000",
          "124553.780000",
          "124553.783000",
          "124553.786000",
          "124553.789000",
          "124613.696000",
          "124613.699000",
          "124613.702000",
          "124613.705000",
          "124613.708000",
          "124613.711000",
          "124613.714000",
          "124613.716000",
          "124613.719000",
          "124613.722000",
          "124613.725000",
          "124613.728000",
