{
  "aor": 0.0003453545232273838,
  "aqi": 0.006315701075794621,
  "bids_meta": {
    "AcquisitionMatrixPE": 104,
    "AcquisitionNumber": 1,
    "AcquisitionTime": "12:30:14.982500",
    "BandwidthPerPixelPhaseEncode": 17.17,
    "BaseResolution": 104,
    "BodyPartExamined": "BRAIN",
    "CogAtlasID": "trm_4c898da401420",
    "CoilString": "HC1-7;NC1_2",
    "ConsistencyInfo": "N4_VE11C_LATEST_20160120",
    "ConversionSoftware": "dcm2niix",
    "ConversionSoftwareVersion": "v1.0.20190720  (JP2:OpenJPEG) GCC7.3.0",
    "DerivedVendorReportedEchoSpacing": 0.000560011,
    "DeviceSerialNumber": "167006",
    "DwellTime": 2.1e-06,
    "EchoTime": 0.037,
    "EchoTrainLength": 104,
    "EffectiveEchoSpacing": 0.000560011,
    "FlipAngle": 52,
    "ImageComments": "Unaliased_MB4_PE3_LB",
    "ImageOrientationPatientDICOM": [
      0.998434,
      0.012893,
      -0.0544365,
      -0.0203913,
      0.990009,
      -0.139524
    ],
    "ImageType": [
      "ORIGINAL",
      "PRIMARY",
      "M",
      "MB",
      "ND",
      "MOSAIC"
    ],
    "ImagingFrequency": 123.259,
    "InPlanePhaseEncodingDirectionDICOM": "COL",
    "InstitutionAddress": "Chemin_Queen-Mary_4565_Montreal_District_CA_H3W_1W5",
    "InstitutionName": "IUGM",
    "InstitutionalDepartmentName": "Department",
    "MRAcquisitionType": "2D",
    "MagneticFieldStrength": 3,
    "Manufacturer": "Siemens",
    "ManufacturersModelName": "Prisma_fit",
    "Modality": "MR",
    "MultibandAccelerationFactor": 4,
    "PartialFourier": 1,
    "PatientPosition": "HFS",
    "PercentPhaseFOV": 100,
    "PhaseEncodingDirection": "j-",
    "PhaseEncodingSteps": 104,
    "PhaseResolution": 1,
    "PixelBandwidth": 2290,
    "ProcedureStepDescription": "video5_generic",
    "ProtocolName": "func_task-figures4",
    "PulseSequenceDetails": "%CustomerSeq%_cmrr_mbep2d_bold",
    "ReceiveCoilActiveElements": "HC1-7;NC1,2",
    "ReceiveCoilName": "HeadNeck_64",
    "ReconMatrixPE": 104,
    "RepetitionTime": 1.49,
    "SAR": 0.0346399,
    "ScanOptions": "FS",
    "ScanningSequence": "EP",
    "SequenceName": "epfid2d1_104",
    "SequenceVariant": "SK_SS",
    "SeriesDescription": "func_task-figures4",
    "SeriesNumber": 15,
    "ShimSetting": [
      607,
      -7260,
      -8833,
      588,
      -29,
      -325,
      0,
      36
    ],
    "SliceThickness": 2,
    "SliceTiming": [
      0,
      0.7825,
      0.0975,
      0.88,
      0.195,
      0.98,
      0.2925,
      1.0775,
      0.39,
      1.175,
      0.49,
      1.2725,
      0.5875,
      1.37,
      0.685,
      0,
      0.7825,
      0.0975,
      0.88,
      0.195,
      0.98,
      0.2925,
      1.0775,
      0.39,
      1.175,
      0.49,
      1.2725,
      0.5875,
      1.37,
      0.685,
      0,
      0.7825,
      0.0975,
      0.88,
      0.195,
      0.98,
      0.2925,
      1.0775,
      0.39,
      1.175,
      0.49,
      1.2725,
      0.5875,
      1.37,
      0.685,
      0,
      0.7825,
      0.0975,
      0.88,
      0.195,
      0.98,
      0.2925,
      1.0775,
      0.39,
      1.175,
      0.49,
      1.2725,
      0.5875,
      1.37,
      0.685
    ],
    "SoftwareVersions": "syngo_MR_E11",
    "SpacingBetweenSlices": 2,
    "StationName": "MRC35049",
    "TaskName": "figures04",
    "TotalReadoutTime": 0.0576811,
    "TxRefAmp": 220.615,
    "WipMemBlock": "c2748b9d-cfe6-4c0a-a9eb-63a0ce92fa7c||Sequence: R016 ve11c/master r/e634e98; Dec 19 2017 11:00:25 by eja",
    "dataset": "<unset>",
    "dcmmeta_affine": [
      [
        -1.9968680143356323,
        -0.04078250378370285,
        -0.1041875034570694,
        106.20792388916016
      ],
      [
        -0.025785919278860092,
        1.9800175428390503,
        -0.2808302342891693,
        -83.62176513671875
      ],
      [
        -0.10887301713228226,
        0.2790471613407135,
        1.9774426221847534,
        -43.24338150024414
      ],
      [
        0.0,
        0.0,
        0.0,
        1.0
      ]
    ],
    "dcmmeta_reorient_transform": [
      [
        0.0,
        -1.0,
        0.0,
        103.0
      ],
      [
        1.0,
        0.0,
        0.0,
        0.0
      ],
      [
        0.0,
        0.0,
        1.0,
        0.0
      ],
      [
        0.0,
        0.0,
        0.0,
        1.0
      ]
    ],
    "dcmmeta_shape": [
      104,
      104,
      60,
      409
    ],
    "dcmmeta_slice_dim": 2,
    "dcmmeta_version": 0.6,
    "global": {
      "const": {
        "AcquisitionMatrix": [
          104,
          0,
          0,
          104
        ],
        "AngioFlag": "N",
        "BitsAllocated": 16,
        "BitsStored": 16,
        "BodyPartExamined": "BRAIN",
        "Columns": 832,
        "EchoNumbers": 1,
        "EchoTime": 37.0,
        "EchoTrainLength": 104,
        "FlipAngle": 52.0,
        "HighBit": 15,
        "ImageOrientationPatient": [
          0.9984339928785,
          0.01289295957674,
          -0.0544365085035,
          -0.0203912522027,
          0.9900087721085,
          -0.1395235750038
        ],
        "ImagePositionPatient": [
          -814.02244485624,
          -850.43250362528,
          126.70141530201
        ],
        "ImageType": [
          "ORIGINAL",
          "PRIMARY",
          "M",
          "MB",
          "ND",
          "MOSAIC"
        ],
        "ImagedNucleus": "1H",
        "ImagingFrequency": 123.259191,
        "InPlanePhaseEncodingDirection": "COL",
        "MRAcquisitionType": "2D",
        "MagneticFieldStrength": 3.0,
        "Manufacturer": "SIEMENS",
        "ManufacturerModelName": "Prisma_fit",
        "Modality": "MR",
        "NumberOfAverages": 1.0,
        "NumberOfPhaseEncodingSteps": 104,
        "PercentPhaseFieldOfView": 100.0,
        "PercentSampling": 100.0,
        "PerformedProcedureStepStartTime": "112713.998000",
        "PhotometricInterpretation": "MONOCHROME2",
        "PixelBandwidth": 2290.0,
        "PixelRepresentation": 0,
        "PixelSpacing": [
          2.0,
          2.0
        ],
        "ProtocolName": "func_task-figures4",
        "RepetitionTime": 1490.0,
        "Rows": 832,
        "SAR": 0.03463988169129,
        "SamplesPerPixel": 1,
        "ScanOptions": "FS",
        "ScanningSequence": "EP",
        "SequenceName": "epfid2d1_104",
        "SequenceVariant": [
          "SK",
          "SS"
        ],
        "SeriesDescription": "func_task-figures4",
        "SeriesNumber": 15,
        "SeriesTime": "123151.107000",
        "SliceLocation": -36.546663498406,
        "SliceThickness": 2.0,
        "SmallestImagePixelValue": 0,
        "SoftwareVersions": "syngo MR E11",
        "SpacingBetweenSlices": 2.0000000287592,
        "SpecificCharacterSet": "ISO_IR 100",
        "StudyID": "1",
        "StudyTime": "112713.914000",
        "TransmitCoilName": "Body",
        "VariableFlipAngleFlag": "N",
        "WindowCenterWidthExplanation": "Algo1",
        "dBdt": 0.0
      },
      "slices": {}
    },
    "modality": "bold",
    "run_id": 2,
    "session_id": "010",
    "subject_id": "04",
    "task_id": "figures04",
    "time": {
      "samples": {
        "AcquisitionNumber": [
          1,
          2,
          3,
          4,
          5,
          6,
          7,
          8,
          9,
          10,
          11,
          12,
          13,
          14,
          15,
          16,
          17,
          18,
          19,
          20,
          21,
          22,
          23,
          24,
          25,
          26,
          27,
          28,
          29,
          30,
          31,
          32,
          33,
          34,
          35,
          36,
          37,
          38,
          39,
          40,
          41,
          42,
          43,
          44,
          45,
          46,
          47,
          48,
          49,
          50,
          51,
          52,
          53,
          54,
          55,
          56,
          57,
          58,
          59,
          60,
          61,
          62,
          63,
          64,
          65,
          66,
          67,
          68,
          69,
          70,
          71,
          72,
          73,
          74,
          75,
          76,
          77,
          78,
          79,
          80,
          81,
          82,
          83,
          84,
          85,
          86,
          87,
          88,
          89,
          90,
          91,
          92,
          93,
          94,
          95,
          96,
          97,
          98,
          99,
          100,
          101,
          102,
          103,
          104,
          105,
          106,
          107,
          108,
          109,
          110,
          111,
          112,
          113,
          114,
          115,
          116,
          117,
          118,
          119,
          120,
          121,
          122,
          123,
          124,
          125,
          126,
          127,
          128,
          129,
          130,
          131,
          132,
          133,
          134,
          135,
          136,
          137,
          138,
          139,
          140,
          141,
          142,
          143,
          144,
          145,
          146,
          147,
          148,
          149,
          150,
          151,
          152,
          153,
          154,
          155,
          156,
          157,
          158,
          159,
          160,
          161,
          162,
          163,
          164,
          165,
          166,
          167,
          168,
          169,
          170,
          171,
          172,
          173,
          174,
          175,
          176,
          177,
          178,
          179,
          180,
          181,
          182,
          183,
          184,
          185,
          186,
          187,
          188,
          189,
          190,
          191,
          192,
          193,
          194,
          195,
          196,
          197,
          198,
          199,
          200,
          201,
          202,
          203,
          204,
          205,
          206,
          207,
          208,
          209,
          210,
          211,
          212,
          213,
          214,
          215,
          216,
          217,
          218,
          219,
          220,
          221,
          222,
          223,
          224,
          225,
          226,
          227,
          228,
          229,
          230,
          231,
          232,
          233,
          234,
          235,
          236,
          237,
          238,
          239,
          240,
          241,
          242,
          243,
          244,
          245,
          246,
          247,
          248,
          249,
          250,
          251,
          252,
          253,
          254,
          255,
          256,
          257,
          258,
          259,
          260,
          261,
          262,
          263,
          264,
          265,
          266,
          267,
          268,
          269,
          270,
          271,
          272,
          273,
          274,
          275,
          276,
          277,
          278,
          279,
          280,
          281,
          282,
          283,
          284,
          285,
          286,
          287,
          288,
          289,
          290,
          291,
          292,
          293,
          294,
          295,
          296,
          297,
          298,
          299,
          300,
          301,
          302,
          303,
          304,
          305,
          306,
          307,
          308,
          309,
          310,
          311,
          312,
          313,
          314,
          315,
          316,
          317,
          318,
          319,
          320,
          321,
          322,
          323,
          324,
          325,
          326,
          327,
          328,
          329,
          330,
          331,
          332,
          333,
          334,
          335,
          336,
          337,
          338,
          339,
          340,
          341,
          342,
          343,
          344,
          345,
          346,
          347,
          348,
          349,
          350,
          351,
          352,
          353,
          354,
          355,
          356,
          357,
          358,
          359,
          360,
          361,
          362,
          363,
          364,
          365,
          366,
          367,
          368,
          369,
          370,
          371,
          372,
          373,
          374,
          375,
          376,
          377,
          378,
          379,
          380,
          381,
          382,
          383,
          384,
          385,
          386,
          387,
          388,
          389,
          390,
          391,
          392,
          393,
          394,
          395,
          396,
          397,
          398,
          399,
          400,
          401,
          402,
          403,
          404,
          405,
          406,
          407,
          408,
          409
        ],
        "AcquisitionTime": [
          "123014.982500",
          "123016.472500",
          "123017.962500",
          "123019.452500",
          "123020.942500",
          "123022.432500",
          "123023.922500",
          "123025.412500",
          "123026.902500",
          "123028.392500",
          "123029.882500",
          "123031.372500",
          "123032.862500",
          "123034.352500",
          "123035.842500",
          "123037.332500",
          "123038.822500",
          "123040.312500",
          "123041.802500",
          "123043.292500",
          "123044.782500",
          "123046.272500",
          "123047.762500",
          "123049.252500",
          "123050.742500",
          "123052.232500",
          "123053.722500",
          "123055.212500",
          "123056.702500",
          "123058.192500",
          "123059.682500",
          "123101.172500",
          "123102.662500",
          "123104.152500",
          "123105.642500",
          "123107.132500",
          "123108.622500",
          "123110.112500",
          "123111.602500",
          "123113.092500",
          "123114.582500",
          "123116.072500",
          "123117.562500",
          "123119.052500",
          "123120.542500",
          "123122.032500",
          "123123.522500",
          "123125.012500",
          "123126.502500",
          "123127.992500",
          "123129.482500",
          "123130.972500",
          "123132.462500",
          "123133.952500",
          "123135.442500",
          "123136.932500",
          "123138.422500",
          "123139.912500",
          "123141.402500",
          "123142.892500",
          "123144.382500",
          "123145.872500",
          "123147.362500",
          "123148.852500",
          "123150.342500",
          "123151.832500",
          "123153.322500",
          "123154.812500",
          "123156.302500",
          "123157.792500",
          "123159.282500",
          "123200.772500",
          "123202.262500",
          "123203.752500",
          "123205.242500",
          "123206.732500",
          "123208.222500",
          "123209.712500",
          "123211.202500",
          "123212.692500",
          "123214.182500",
          "123215.672500",
          "123217.162500",
          "123218.652500",
          "123220.142500",
          "123221.632500",
          "123223.122500",
          "123224.612500",
          "123226.102500",
          "123227.592500",
          "123229.082500",
          "123230.572500",
          "123232.062500",
          "123233.552500",
          "123235.042500",
          "123236.532500",
          "123238.022500",
          "123239.512500",
          "123241.002500",
          "123242.492500",
          "123243.982500",
          "123245.472500",
          "123246.962500",
          "123248.452500",
          "123249.942500",
          "123251.432500",
          "123252.922500",
          "123254.412500",
          "123255.902500",
          "123257.392500",
          "123258.882500",
          "123300.372500",
          "123301.862500",
          "123303.352500",
          "123304.842500",
          "123306.332500",
          "123307.822500",
          "123309.312500",
          "123310.802500",
          "123312.292500",
          "123313.782500",
          "123315.272500",
          "123316.762500",
          "123318.252500",
          "123319.742500",
          "123321.232500",
          "123322.722500",
          "123324.212500",
          "123325.702500",
          "123327.192500",
          "123328.682500",
          "123330.172500",
          "123331.662500",
          "123333.152500",
          "123334.642500",
          "123336.132500",
          "123337.622500",
          "123339.112500",
          "123340.602500",
          "123342.092500",
          "123343.582500",
          "123345.072500",
          "123346.562500",
          "123348.052500",
          "123349.542500",
          "123351.032500",
          "123352.522500",
          "123354.012500",
          "123355.502500",
          "123356.992500",
          "123358.482500",
          "123359.972500",
          "123401.462500",
          "123402.952500",
          "123404.442500",
          "123405.932500",
          "123407.422500",
          "123408.912500",
          "123410.402500",
          "123411.892500",
          "123413.382500",
          "123414.872500",
          "123416.362500",
          "123417.852500",
          "123419.342500",
          "123420.832500",
          "123422.322500",
          "123423.812500",
          "123425.302500",
          "123426.792500",
          "123428.282500",
          "123429.772500",
          "123431.262500",
          "123432.752500",
          "123434.242500",
          "123435.732500",
          "123437.222500",
          "123438.712500",
          "123440.202500",
          "123441.692500",
          "123443.182500",
          "123444.672500",
          "123446.162500",
          "123447.652500",
          "123449.142500",
          "123450.632500",
          "123452.122500",
          "123453.612500",
          "123455.102500",
          "123456.592500",
          "123458.082500",
          "123459.572500",
          "123501.062500",
          "123502.552500",
          "123504.042500",
          "123505.532500",
          "123507.022500",
          "123508.512500",
          "123510.002500",
          "123511.492500",
          "123512.982500",
          "123514.472500",
          "123515.962500",
          "123517.452500",
          "123518.942500",
          "123520.432500",
          "123521.922500",
          "123523.412500",
          "123524.902500",
          "123526.392500",
          "123527.882500",
          "123529.372500",
          "123530.862500",
          "123532.352500",
          "123533.842500",
          "123535.332500",
          "123536.822500",
          "123538.312500",
          "123539.802500",
          "123541.292500",
          "123542.782500",
          "123544.272500",
          "123545.762500",
          "123547.252500",
          "123548.742500",
          "123550.232500",
          "123551.722500",
          "123553.212500",
          "123554.702500",
          "123556.192500",
          "123557.682500",
          "123559.172500",
          "123600.662500",
          "123602.152500",
          "123603.642500",
          "123605.132500",
          "123606.622500",
          "123608.112500",
          "123609.602500",
          "123611.092500",
          "123612.582500",
          "123614.072500",
          "123615.562500",
          "123617.052500",
          "123618.542500",
          "123620.032500",
          "123621.522500",
          "123623.012500",
          "123624.502500",
          "123625.992500",
          "123627.482500",
          "123628.972500",
          "123630.462500",
          "123631.952500",
          "123633.442500",
          "123634.932500",
          "123636.422500",
          "123637.912500",
          "123639.402500",
          "123640.892500",
          "123642.382500",
          "123643.872500",
          "123645.362500",
          "123646.852500",
          "123648.342500",
          "123649.832500",
          "123651.322500",
          "123652.812500",
          "123654.302500",
          "123655.792500",
          "123657.282500",
          "123658.772500",
          "123700.262500",
          "123701.752500",
          "123703.242500",
          "123704.732500",
          "123706.222500",
          "123707.712500",
          "123709.202500",
          "123710.692500",
          "123712.182500",
          "123713.672500",
          "123715.162500",
          "123716.652500",
          "123718.142500",
          "123719.632500",
          "123721.122500",
          "123722.612500",
          "123724.102500",
          "123725.592500",
          "123727.082500",
          "123728.572500",
          "123730.062500",
          "123731.552500",
          "123733.042500",
          "123734.532500",
          "123736.022500",
          "123737.512500",
          "123739.002500",
          "123740.492500",
          "123741.982500",
          "123743.472500",
          "123744.962500",
          "123746.452500",
          "123747.942500",
          "123749.432500",
          "123750.922500",
          "123752.412500",
          "123753.902500",
          "123755.392500",
          "123756.882500",
          "123758.372500",
          "123759.862500",
          "123801.352500",
          "123802.842500",
          "123804.332500",
          "123805.822500",
          "123807.312500",
          "123808.802500",
          "123810.292500",
          "123811.782500",
          "123813.272500",
          "123814.762500",
          "123816.252500",
          "123817.742500",
          "123819.232500",
          "123820.722500",
          "123822.212500",
          "123823.702500",
          "123825.192500",
          "123826.682500",
          "123828.172500",
          "123829.662500",
          "123831.152500",
          "123832.642500",
          "123834.132500",
          "123835.622500",
          "123837.112500",
          "123838.602500",
          "123840.092500",
          "123841.582500",
          "123843.072500",
          "123844.562500",
          "123846.052500",
          "123847.542500",
          "123849.032500",
          "123850.522500",
          "123852.012500",
          "123853.502500",
          "123854.992500",
          "123856.482500",
          "123857.972500",
          "123859.462500",
          "123900.952500",
          "123902.442500",
          "123903.932500",
          "123905.422500",
          "123906.912500",
          "123908.402500",
          "123909.892500",
          "123911.382500",
          "123912.872500",
          "123914.362500",
          "123915.852500",
          "123917.342500",
          "123918.832500",
          "123920.322500",
          "123921.812500",
          "123923.302500",
          "123924.792500",
          "123926.282500",
          "123927.772500",
          "123929.262500",
          "123930.752500",
          "123932.242500",
          "123933.732500",
          "123935.222500",
          "123936.712500",
          "123938.202500",
          "123939.692500",
          "123941.182500",
          "123942.672500",
          "123944.162500",
          "123945.652500",
          "123947.142500",
          "123948.632500",
          "123950.122500",
          "123951.612500",
          "123953.102500",
          "123954.592500",
          "123956.082500",
          "123957.572500",
          "123959.062500",
          "124000.552500",
          "124002.042500",
          "124003.532500",
          "124005.022500",
          "124006.512500",
          "124008.002500",
          "124009.492500",
          "124010.982500",
          "124012.472500",
          "124013.962500",
          "124015.452500",
          "124016.942500",
          "124018.432500",
          "124019.922500",
          "124021.412500",
          "124022.902500"
        ],
        "ContentTime": [
          "123151.109000",
          "123151.113000",
          "123151.116000",
          "123151.119000",
          "123151.121000",
          "123151.124000",
          "123151.127000",
          "123151.130000",
          "123151.133000",
          "123151.136000",
          "123151.145000",
          "123151.160000",
          "123151.163000",
          "123151.166000",
          "123151.169000",
          "123151.172000",
          "123151.175000",
          "123151.177000",
          "123151.180000",
          "123151.183000",
          "123151.186000",
          "123151.189000",
          "123151.196000",
          "123151.199000",
          "123151.202000",
          "123151.205000",
          "123151.208000",
          "123151.211000",
          "123151.213000",
          "123151.216000",
          "123151.219000",
          "123151.222000",
          "123151.225000",
          "123151.228000",
          "123151.231000",
          "123151.233000",
          "123151.236000",
          "123211.081000",
          "123211.084000",
          "123211.087000",
          "123211.090000",
          "123211.093000",
          "123211.095000",
          "123211.099000",
          "123211.103000",
          "123211.106000",
          "123211.109000",
          "123211.112000",
          "123211.116000",
          "123211.119000",
          "123211.122000",
          "123211.125000",
          "123211.128000",
          "123211.131000",
          "123211.133000",
          "123211.136000",
          "123211.139000",
          "123231.080000",
          "123231.083000",
          "123231.086000",
          "123231.088000",
          "123231.091000",
          "123231.094000",
          "123231.097000",
          "123231.100000",
          "123231.103000",
          "123231.105000",
          "123231.108000",
          "123231.111000",
          "123231.127000",
          "123231.129000",
          "123231.132000",
          "123231.135000",
          "123231.149000",
          "123231.152000",
          "123231.155000",
          "123231.158000",
          "123231.161000",
          "123251.080000",
          "123251.083000",
          "123251.086000",
          "123251.089000",
          "123251.091000",
          "123251.094000",
          "123251.097000",
          "123251.100000",
          "123251.103000",
          "123251.106000",
          "123251.108000",
          "123251.111000",
          "123251.114000",
          "123251.117000",
          "123251.120000",
          "123251.123000",
          "123251.126000",
          "123251.129000",
          "123251.131000",
          "123251.134000",
          "123331.081000",
          "123331.084000",
          "123331.087000",
          "123331.090000",
          "123331.093000",
          "123331.096000",
          "123331.098000",
          "123331.101000",
          "123331.104000",
          "123331.107000",
          "123331.110000",
          "123331.113000",
          "123331.115000",
          "123331.118000",
          "123331.121000",
          "123331.124000",
          "123331.127000",
          "123331.130000",
          "123331.133000",
          "123331.135000",
          "123331.138000",
          "123331.141000",
          "123331.144000",
          "123331.147000",
          "123331.150000",
          "123331.160000",
          "123331.163000",
          "123331.165000",
          "123331.168000",
          "123331.171000",
          "123331.174000",
          "123331.177000",
          "123331.180000",
          "123411.081000",
          "123411.084000",
          "123411.087000",
          "123411.089000",
          "123411.093000",
          "123411.096000",
          "123411.098000",
          "123411.101000",
          "123411.106000",
          "123411.109000",
          "123411.112000",
          "123411.115000",
          "123411.118000",
          "123411.121000",
          "123411.123000",
          "123411.126000",
          "123411.129000",
          "123411.132000",
          "123411.135000",
          "123411.138000",
          "123411.141000",
          "123411.143000",
          "123411.146000",
          "123411.149000",
          "123411.152000",
          "123411.155000",
          "123451.080000",
          "123451.083000",
          "123451.086000",
          "123451.089000",
          "123451.092000",
          "123451.095000",
          "123451.097000",
          "123451.100000",
          "123451.103000",
          "123451.106000",
          "123451.109000",
          "123451.112000",
          "123451.115000",
          "123451.117000",
          "123451.120000",
          "123451.123000",
          "123451.126000",
          "123451.129000",
          "123451.132000",
          "123451.135000",
          "123451.138000",
          "123451.140000",
          "123451.143000",
          "123451.146000",
          "123451.149000",
          "123451.152000",
          "123451.155000",
          "123531.080000",
          "123531.083000",
          "123531.086000",
          "123531.089000",
          "123531.092000",
          "123531.094000",
          "123531.097000",
          "123531.100000",
          "123531.103000",
          "123531.106000",
          "123531.109000",
          "123531.112000",
          "123531.115000",
          "123531.118000",
          "123531.120000",
          "123531.123000",
          "123531.126000",
          "123531.129000",
          "123531.132000",
          "123531.135000",
          "123531.138000",
          "123531.147000",
          "123531.149000",
          "123531.152000",
          "123531.155000",
          "123531.158000",
          "123531.161000",
