{
  "aor": 0.000273398533007335,
  "aqi": 0.005171366797066015,
  "bids_meta": {
    "AcquisitionMatrixPE": 104,
    "AcquisitionNumber": 1,
    "AcquisitionTime": "12:19:35.742500",
    "BandwidthPerPixelPhaseEncode": 17.17,
    "BaseResolution": 104,
    "BodyPartExamined": "BRAIN",
    "CogAtlasID": "trm_4c898da401420",
    "CoilString": "HC1-7;NC1_2",
    "ConsistencyInfo": "N4_VE11C_LATEST_20160120",
    "ConversionSoftware": "dcm2niix",
    "ConversionSoftwareVersion": "v1.0.20190720  (JP2:OpenJPEG) GCC7.3.0",
    "DerivedVendorReportedEchoSpacing": 0.000560011,
    "DeviceSerialNumber": "167006",
    "DwellTime": 2.1e-06,
    "EchoTime": 0.037,
    "EchoTrainLength": 104,
    "EffectiveEchoSpacing": 0.000560011,
    "FlipAngle": 52,
    "ImageComments": "Unaliased_MB4_PE3_LB",
    "ImageOrientationPatientDICOM": [
      0.998434,
      0.012893,
      -0.0544365,
      -0.0203913,
      0.990009,
      -0.139524
    ],
    "ImageType": [
      "ORIGINAL",
      "PRIMARY",
      "M",
      "MB",
      "ND",
      "MOSAIC"
    ],
    "ImagingFrequency": 123.259,
    "InPlanePhaseEncodingDirectionDICOM": "COL",
    "InstitutionAddress": "Chemin_Queen-Mary_4565_Montreal_District_CA_H3W_1W5",
    "InstitutionName": "IUGM",
    "InstitutionalDepartmentName": "Department",
    "MRAcquisitionType": "2D",
    "MagneticFieldStrength": 3,
    "Manufacturer": "Siemens",
    "ManufacturersModelName": "Prisma_fit",
    "Modality": "MR",
    "MultibandAccelerationFactor": 4,
    "PartialFourier": 1,
    "PatientPosition": "HFS",
    "PercentPhaseFOV": 100,
    "PhaseEncodingDirection": "j-",
    "PhaseEncodingSteps": 104,
    "PhaseResolution": 1,
    "PixelBandwidth": 2290,
    "ProcedureStepDescription": "video5_generic",
    "ProtocolName": "func_task-figures3",
    "PulseSequenceDetails": "%CustomerSeq%_cmrr_mbep2d_bold",
    "ReceiveCoilActiveElements": "HC1-7;NC1,2",
    "ReceiveCoilName": "HeadNeck_64",
    "ReconMatrixPE": 104,
    "RepetitionTime": 1.49,
    "SAR": 0.0346407,
    "ScanOptions": "FS",
    "ScanningSequence": "EP",
    "SequenceName": "epfid2d1_104",
    "SequenceVariant": "SK_SS",
    "SeriesDescription": "func_task-figures3",
    "SeriesNumber": 13,
    "ShimSetting": [
      607,
      -7260,
      -8833,
      588,
      -29,
      -325,
      0,
      36
    ],
    "SliceThickness": 2,
    "SliceTiming": [
      0,
      0.785,
      0.0975,
      0.8825,
      0.1975,
      0.98,
      0.295,
      1.0775,
      0.3925,
      1.1775,
      0.49,
      1.275,
      0.5875,
      1.3725,
      0.6875,
      0,
      0.785,
      0.0975,
      0.8825,
      0.1975,
      0.98,
      0.295,
      1.0775,
      0.3925,
      1.1775,
      0.49,
      1.275,
      0.5875,
      1.3725,
      0.6875,
      0,
      0.785,
      0.0975,
      0.8825,
      0.1975,
      0.98,
      0.295,
      1.0775,
      0.3925,
      1.1775,
      0.49,
      1.275,
      0.5875,
      1.3725,
      0.6875,
      0,
      0.785,
      0.0975,
      0.8825,
      0.1975,
      0.98,
      0.295,
      1.0775,
      0.3925,
      1.1775,
      0.49,
      1.275,
      0.5875,
      1.3725,
      0.6875
    ],
    "SoftwareVersions": "syngo_MR_E11",
    "SpacingBetweenSlices": 2,
    "StationName": "MRC35049",
    "TaskName": "figures03",
    "TotalReadoutTime": 0.0576811,
    "TxRefAmp": 220.615,
    "WipMemBlock": "073c3486-3956-4f44-811d-d59768a4b60d||Sequence: R016 ve11c/master r/e634e98; Dec 19 2017 11:00:25 by eja",
    "dataset": "<unset>",
    "dcmmeta_affine": [
      [
        -1.9968680143356323,
        -0.04078250378370285,
        -0.1041875034570694,
        106.20792388916016
      ],
      [
        -0.025785919278860092,
        1.9800175428390503,
        -0.2808302342891693,
        -83.62176513671875
      ],
      [
        -0.10887301713228226,
        0.2790471613407135,
        1.9774426221847534,
        -43.24338150024414
      ],
      [
        0.0,
        0.0,
        0.0,
        1.0
      ]
    ],
    "dcmmeta_reorient_transform": [
      [
        0.0,
        -1.0,
        0.0,
        103.0
      ],
      [
        1.0,
        0.0,
        0.0,
        0.0
      ],
      [
        0.0,
        0.0,
        1.0,
        0.0
      ],
      [
        0.0,
        0.0,
        0.0,
        1.0
      ]
    ],
    "dcmmeta_shape": [
      104,
      104,
      60,
      411
    ],
    "dcmmeta_slice_dim": 2,
    "dcmmeta_version": 0.6,
    "global": {
      "const": {
        "AcquisitionMatrix": [
          104,
          0,
          0,
          104
        ],
        "AngioFlag": "N",
        "BitsAllocated": 16,
        "BitsStored": 16,
        "BodyPartExamined": "BRAIN",
        "Columns": 832,
        "EchoNumbers": 1,
        "EchoTime": 37.0,
        "EchoTrainLength": 104,
        "FlipAngle": 52.0,
        "HighBit": 15,
        "ImageOrientationPatient": [
          0.9984339928785,
          0.01289295957674,
          -0.0544365085035,
          -0.0203912522027,
          0.9900087721085,
          -0.1395235750038
        ],
        "ImagePositionPatient": [
          -814.02244485624,
          -850.43250362528,
          126.70141530201
        ],
        "ImageType": [
          "ORIGINAL",
          "PRIMARY",
          "M",
          "MB",
          "ND",
          "MOSAIC"
        ],
        "ImagedNucleus": "1H",
        "ImagingFrequency": 123.259185,
        "InPlanePhaseEncodingDirection": "COL",
        "MRAcquisitionType": "2D",
        "MagneticFieldStrength": 3.0,
        "Manufacturer": "SIEMENS",
        "ManufacturerModelName": "Prisma_fit",
        "Modality": "MR",
        "NumberOfAverages": 1.0,
        "NumberOfPhaseEncodingSteps": 104,
        "PercentPhaseFieldOfView": 100.0,
        "PercentSampling": 100.0,
        "PerformedProcedureStepStartTime": "112713.998000",
        "PhotometricInterpretation": "MONOCHROME2",
        "PixelBandwidth": 2290.0,
        "PixelRepresentation": 0,
        "PixelSpacing": [
          2.0,
          2.0
        ],
        "ProtocolName": "func_task-figures3",
        "RepetitionTime": 1490.0,
        "Rows": 832,
        "SAR": 0.03464069278102,
        "SamplesPerPixel": 1,
        "ScanOptions": "FS",
        "ScanningSequence": "EP",
        "SequenceName": "epfid2d1_104",
        "SequenceVariant": [
          "SK",
          "SS"
        ],
        "SeriesDescription": "func_task-figures3",
        "SeriesNumber": 13,
        "SeriesTime": "122104.523000",
        "SliceLocation": -36.546663498406,
        "SliceThickness": 2.0,
        "SmallestImagePixelValue": 0,
        "SoftwareVersions": "syngo MR E11",
        "SpacingBetweenSlices": 2.0000000287592,
        "SpecificCharacterSet": "ISO_IR 100",
        "StudyID": "1",
        "StudyTime": "112713.914000",
        "TransmitCoilName": "Body",
        "VariableFlipAngleFlag": "N",
        "WindowCenterWidthExplanation": "Algo1",
        "dBdt": 0.0
      },
      "slices": {}
    },
    "modality": "bold",
    "run_id": 2,
    "session_id": "010",
    "subject_id": "04",
    "task_id": "figures03",
    "time": {
      "samples": {
        "AcquisitionNumber": [
          1,
          2,
          3,
          4,
          5,
          6,
          7,
          8,
          9,
          10,
          11,
          12,
          13,
          14,
          15,
          16,
          17,
          18,
          19,
          20,
          21,
          22,
          23,
          24,
          25,
          26,
          27,
          28,
          29,
          30,
          31,
          32,
          33,
          34,
          35,
          36,
          37,
          38,
          39,
          40,
          41,
          42,
          43,
          44,
          45,
          46,
          47,
          48,
          49,
          50,
          51,
          52,
          53,
          54,
          55,
          56,
          57,
          58,
          59,
          60,
          61,
          62,
          63,
          64,
          65,
          66,
          67,
          68,
          69,
          70,
          71,
          72,
          73,
          74,
          75,
          76,
          77,
          78,
          79,
          80,
          81,
          82,
          83,
          84,
          85,
          86,
          87,
          88,
          89,
          90,
          91,
          92,
          93,
          94,
          95,
          96,
          97,
          98,
          99,
          100,
          101,
          102,
          103,
          104,
          105,
          106,
          107,
          108,
          109,
          110,
          111,
          112,
          113,
          114,
          115,
          116,
          117,
          118,
          119,
          120,
          121,
          122,
          123,
          124,
          125,
          126,
          127,
          128,
          129,
          130,
          131,
          132,
          133,
          134,
          135,
          136,
          137,
          138,
          139,
          140,
          141,
          142,
          143,
          144,
          145,
          146,
          147,
          148,
          149,
          150,
          151,
          152,
          153,
          154,
          155,
          156,
          157,
          158,
          159,
          160,
          161,
          162,
          163,
          164,
          165,
          166,
          167,
          168,
          169,
          170,
          171,
          172,
          173,
          174,
          175,
          176,
          177,
          178,
          179,
          180,
          181,
          182,
          183,
          184,
          185,
          186,
          187,
          188,
          189,
          190,
          191,
          192,
          193,
          194,
          195,
          196,
          197,
          198,
          199,
          200,
          201,
          202,
          203,
          204,
          205,
          206,
          207,
          208,
          209,
          210,
          211,
          212,
          213,
          214,
          215,
          216,
          217,
          218,
          219,
          220,
          221,
          222,
          223,
          224,
          225,
          226,
          227,
          228,
          229,
          230,
          231,
          232,
          233,
          234,
          235,
          236,
          237,
          238,
          239,
          240,
          241,
          242,
          243,
          244,
          245,
          246,
          247,
          248,
          249,
          250,
          251,
          252,
          253,
          254,
          255,
          256,
          257,
          258,
          259,
          260,
          261,
          262,
          263,
          264,
          265,
          266,
          267,
          268,
          269,
          270,
          271,
          272,
          273,
          274,
          275,
          276,
          277,
          278,
          279,
          280,
          281,
          282,
          283,
          284,
          285,
          286,
          287,
          288,
          289,
          290,
          291,
          292,
          293,
          294,
          295,
          296,
          297,
          298,
          299,
          300,
          301,
          302,
          303,
          304,
          305,
          306,
          307,
          308,
          309,
          310,
          311,
          312,
          313,
          314,
          315,
          316,
          317,
          318,
          319,
          320,
          321,
          322,
          323,
          324,
          325,
          326,
          327,
          328,
          329,
          330,
          331,
          332,
          333,
          334,
          335,
          336,
          337,
          338,
          339,
          340,
          341,
          342,
          343,
          344,
          345,
          346,
          347,
          348,
          349,
          350,
          351,
          352,
          353,
          354,
          355,
          356,
          357,
          358,
          359,
          360,
          361,
          362,
          363,
          364,
          365,
          366,
          367,
          368,
          369,
          370,
          371,
          372,
          373,
          374,
          375,
          376,
          377,
          378,
          379,
          380,
          381,
          382,
          383,
          384,
          385,
          386,
          387,
          388,
          389,
          390,
          391,
          392,
          393,
          394,
          395,
          396,
          397,
          398,
          399,
          400,
          401,
          402,
          403,
          404,
          405,
          406,
          407,
          408,
          409,
          410,
          411
        ],
        "AcquisitionTime": [
          "121935.742500",
          "121937.232500",
          "121938.722500",
          "121940.212500",
          "121941.702500",
          "121943.192500",
          "121944.682500",
          "121946.172500",
          "121947.662500",
          "121949.152500",
          "121950.642500",
          "121952.132500",
          "121953.622500",
          "121955.112500",
          "121956.602500",
          "121958.092500",
          "121959.582500",
          "122001.072500",
          "122002.562500",
          "122004.052500",
          "122005.542500",
          "122007.032500",
          "122008.522500",
          "122010.012500",
          "122011.502500",
          "122012.992500",
          "122014.482500",
          "122015.972500",
          "122017.462500",
          "122018.952500",
          "122020.442500",
          "122021.932500",
          "122023.422500",
          "122024.912500",
          "122026.402500",
          "122027.892500",
          "122029.382500",
          "122030.872500",
          "122032.362500",
          "122033.852500",
          "122035.342500",
          "122036.832500",
          "122038.322500",
          "122039.812500",
          "122041.302500",
          "122042.792500",
          "122044.282500",
          "122045.772500",
          "122047.262500",
          "122048.752500",
          "122050.242500",
          "122051.732500",
          "122053.222500",
          "122054.712500",
          "122056.202500",
          "122057.692500",
          "122059.182500",
          "122100.672500",
          "122102.162500",
          "122103.652500",
          "122105.142500",
          "122106.632500",
          "122108.122500",
          "122109.612500",
          "122111.102500",
          "122112.592500",
          "122114.082500",
          "122115.572500",
          "122117.062500",
          "122118.552500",
          "122120.042500",
          "122121.532500",
          "122123.022500",
          "122124.512500",
          "122126.002500",
          "122127.492500",
          "122128.982500",
          "122130.472500",
          "122131.962500",
          "122133.452500",
          "122134.942500",
          "122136.432500",
          "122137.922500",
          "122139.412500",
          "122140.902500",
          "122142.392500",
          "122143.882500",
          "122145.372500",
          "122146.862500",
          "122148.352500",
          "122149.842500",
          "122151.332500",
          "122152.822500",
          "122154.312500",
          "122155.802500",
          "122157.292500",
          "122158.782500",
          "122200.272500",
          "122201.762500",
          "122203.252500",
          "122204.742500",
          "122206.232500",
          "122207.722500",
          "122209.212500",
          "122210.702500",
          "122212.192500",
          "122213.682500",
          "122215.172500",
          "122216.662500",
          "122218.152500",
          "122219.642500",
          "122221.132500",
          "122222.622500",
          "122224.112500",
          "122225.602500",
          "122227.092500",
          "122228.582500",
          "122230.072500",
          "122231.562500",
          "122233.052500",
          "122234.542500",
          "122236.032500",
          "122237.522500",
          "122239.012500",
          "122240.502500",
          "122241.992500",
          "122243.482500",
          "122244.972500",
          "122246.462500",
          "122247.952500",
          "122249.442500",
          "122250.932500",
          "122252.422500",
          "122253.912500",
          "122255.402500",
          "122256.892500",
          "122258.382500",
          "122259.872500",
          "122301.362500",
          "122302.852500",
          "122304.342500",
          "122305.832500",
          "122307.322500",
          "122308.812500",
          "122310.302500",
          "122311.792500",
          "122313.282500",
          "122314.772500",
          "122316.262500",
          "122317.752500",
          "122319.242500",
          "122320.732500",
          "122322.222500",
          "122323.712500",
          "122325.202500",
          "122326.692500",
          "122328.182500",
          "122329.672500",
          "122331.162500",
          "122332.652500",
          "122334.142500",
          "122335.632500",
          "122337.122500",
          "122338.612500",
          "122340.102500",
          "122341.592500",
          "122343.082500",
          "122344.572500",
          "122346.062500",
          "122347.552500",
          "122349.042500",
          "122350.532500",
          "122352.022500",
          "122353.512500",
          "122355.002500",
          "122356.492500",
          "122357.982500",
          "122359.472500",
          "122400.962500",
          "122402.452500",
          "122403.942500",
          "122405.432500",
          "122406.922500",
          "122408.412500",
          "122409.902500",
          "122411.392500",
          "122412.882500",
          "122414.372500",
          "122415.862500",
          "122417.352500",
          "122418.842500",
          "122420.332500",
          "122421.822500",
          "122423.312500",
          "122424.802500",
          "122426.292500",
          "122427.782500",
          "122429.272500",
          "122430.762500",
          "122432.252500",
          "122433.742500",
          "122435.232500",
          "122436.722500",
          "122438.212500",
          "122439.702500",
          "122441.192500",
          "122442.682500",
          "122444.172500",
          "122445.662500",
          "122447.152500",
          "122448.642500",
          "122450.132500",
          "122451.622500",
          "122453.112500",
          "122454.602500",
          "122456.092500",
          "122457.582500",
          "122459.072500",
          "122500.562500",
          "122502.052500",
          "122503.542500",
          "122505.032500",
          "122506.522500",
          "122508.012500",
          "122509.502500",
          "122510.992500",
          "122512.482500",
          "122513.972500",
          "122515.462500",
          "122516.952500",
          "122518.442500",
          "122519.932500",
          "122521.422500",
          "122522.912500",
          "122524.402500",
          "122525.892500",
          "122527.382500",
          "122528.872500",
          "122530.362500",
          "122531.852500",
          "122533.342500",
          "122534.832500",
          "122536.322500",
          "122537.812500",
          "122539.302500",
          "122540.792500",
          "122542.282500",
          "122543.772500",
          "122545.262500",
          "122546.752500",
          "122548.242500",
          "122549.732500",
          "122551.222500",
          "122552.712500",
          "122554.202500",
          "122555.692500",
          "122557.182500",
          "122558.672500",
          "122600.162500",
          "122601.652500",
          "122603.142500",
          "122604.632500",
          "122606.122500",
          "122607.612500",
          "122609.102500",
          "122610.592500",
          "122612.082500",
          "122613.572500",
          "122615.062500",
          "122616.552500",
          "122618.042500",
          "122619.532500",
          "122621.022500",
          "122622.512500",
          "122624.002500",
          "122625.492500",
          "122626.982500",
          "122628.472500",
          "122629.962500",
          "122631.452500",
          "122632.942500",
          "122634.432500",
          "122635.922500",
          "122637.412500",
          "122638.902500",
          "122640.392500",
          "122641.882500",
          "122643.372500",
          "122644.862500",
          "122646.352500",
          "122647.842500",
          "122649.332500",
          "122650.822500",
          "122652.312500",
          "122653.802500",
          "122655.292500",
          "122656.782500",
          "122658.272500",
          "122659.762500",
          "122701.252500",
          "122702.742500",
          "122704.232500",
          "122705.722500",
          "122707.212500",
          "122708.702500",
          "122710.192500",
          "122711.682500",
          "122713.172500",
          "122714.662500",
          "122716.152500",
          "122717.642500",
          "122719.132500",
          "122720.622500",
          "122722.112500",
          "122723.602500",
          "122725.092500",
          "122726.582500",
          "122728.072500",
          "122729.562500",
          "122731.052500",
          "122732.542500",
          "122734.032500",
          "122735.522500",
          "122737.012500",
          "122738.502500",
          "122739.992500",
          "122741.482500",
          "122742.972500",
          "122744.462500",
          "122745.952500",
          "122747.442500",
          "122748.932500",
          "122750.422500",
          "122751.912500",
          "122753.402500",
          "122754.892500",
          "122756.382500",
          "122757.872500",
          "122759.362500",
          "122800.852500",
          "122802.342500",
          "122803.832500",
          "122805.322500",
          "122806.812500",
          "122808.302500",
          "122809.792500",
          "122811.282500",
          "122812.772500",
          "122814.262500",
          "122815.752500",
          "122817.242500",
          "122818.732500",
          "122820.222500",
          "122821.712500",
          "122823.202500",
          "122824.692500",
          "122826.182500",
          "122827.672500",
          "122829.162500",
          "122830.652500",
          "122832.142500",
          "122833.632500",
          "122835.122500",
          "122836.612500",
          "122838.102500",
          "122839.592500",
          "122841.082500",
          "122842.572500",
          "122844.062500",
          "122845.552500",
          "122847.042500",
          "122848.532500",
          "122850.022500",
          "122851.512500",
          "122853.002500",
          "122854.492500",
          "122855.982500",
          "122857.472500",
          "122858.962500",
          "122900.452500",
          "122901.942500",
          "122903.432500",
          "122904.922500",
          "122906.412500",
          "122907.902500",
          "122909.392500",
          "122910.882500",
          "122912.372500",
          "122913.862500",
          "122915.352500",
          "122916.842500",
          "122918.332500",
          "122919.822500",
          "122921.312500",
          "122922.802500",
          "122924.292500",
          "122925.782500",
          "122927.272500",
          "122928.762500",
          "122930.252500",
          "122931.742500",
          "122933.232500",
          "122934.722500",
          "122936.212500",
          "122937.702500",
          "122939.192500",
          "122940.682500",
          "122942.172500",
          "122943.662500",
          "122945.152500",
          "122946.642500"
        ],
        "ContentTime": [
          "122104.526000",
          "122104.529000",
          "122104.539000",
          "122104.542000",
          "122104.545000",
          "122104.548000",
          "122104.551000",
          "122104.553000",
          "122104.556000",
          "122104.559000",
          "122104.562000",
          "122104.565000",
          "122104.568000",
          "122104.570000",
          "122104.573000",
          "122104.576000",
          "122104.579000",
          "122104.582000",
          "122104.585000",
          "122104.588000",
          "122104.591000",
          "122104.594000",
          "122104.596000",
          "122104.599000",
          "122104.602000",
          "122104.605000",
          "122104.608000",
          "122104.611000",
          "122104.614000",
          "122104.616000",
          "122104.619000",
          "122104.622000",
          "122104.625000",
          "122104.628000",
          "122104.630000",
          "122104.633000",
          "122124.501000",
          "122124.504000",
          "122124.507000",
          "122124.510000",
          "122124.512000",
          "122124.515000",
          "122124.518000",
          "122124.521000",
          "122124.524000",
          "122124.527000",
          "122124.529000",
          "122124.532000",
          "122124.535000",
          "122124.538000",
          "122124.541000",
          "122124.544000",
          "122124.547000",
          "122124.549000",
          "122124.552000",
          "122124.555000",
          "122144.501000",
          "122144.504000",
          "122144.507000",
          "122144.509000",
          "122144.512000",
          "122144.515000",
          "122144.518000",
          "122144.521000",
          "122144.539000",
          "122144.542000",
          "122144.544000",
          "122144.547000",
          "122144.550000",
          "122144.553000",
          "122144.556000",
          "122144.558000",
          "122144.561000",
          "122144.564000",
          "122144.567000",
          "122144.570000",
          "122144.572000",
          "122204.501000",
          "122204.504000",
          "122204.507000",
          "122204.509000",
          "122204.512000",
          "122204.515000",
          "122204.518000",
          "122204.521000",
          "122204.524000",
          "122204.527000",
          "122204.529000",
          "122204.532000",
          "122204.535000",
          "122204.538000",
          "122204.541000",
          "122204.544000",
          "122204.546000",
          "122204.549000",
          "122204.552000",
          "122204.555000",
          "122244.501000",
          "122244.504000",
          "122244.507000",
          "122244.509000",
          "122244.512000",
          "122244.515000",
          "122244.518000",
          "122244.521000",
          "122244.524000",
          "122244.527000",
          "122244.530000",
          "122244.533000",
          "122244.535000",
          "122244.538000",
          "122244.541000",
          "122244.544000",
          "122244.547000",
          "122244.550000",
          "122244.553000",
          "122244.556000",
          "122244.558000",
          "122244.561000",
          "122244.564000",
          "122244.567000",
          "122244.570000",
          "122244.572000",
          "122244.576000",
          "122244.578000",
          "122244.581000",
          "122324.501000",
          "122324.504000",
          "122324.507000",
          "122324.510000",
          "122324.513000",
          "122324.515000",
          "122324.518000",
          "122324.521000",
          "122324.524000",
          "122324.527000",
          "122324.530000",
          "122324.533000",
          "122324.535000",
          "122324.538000",
          "122324.541000",
          "122324.544000",
          "122324.547000",
          "122324.550000",
          "122324.552000",
          "122324.556000",
          "122324.558000",
          "122324.561000",
          "122324.564000",
          "122324.567000",
          "122324.570000",
          "122324.572000",
          "122324.575000",
          "122404.501000",
          "122404.504000",
          "122404.507000",
          "122404.510000",
          "122404.513000",
          "122404.515000",
          "122404.518000",
          "122404.521000",
          "122404.524000",
          "122404.527000",
          "122404.530000",
          "122404.532000",
          "122404.535000",
          "122404.538000",
          "122404.541000",
          "122404.544000",
          "122404.547000",
          "122404.550000",
          "122404.553000",
          "122404.556000",
          "122404.559000",
          "122404.561000",
          "122404.564000",
          "122404.567000",
          "122404.570000",
          "122404.573000",
          "122444.500000",
          "122444.503000",
          "122444.506000",
          "122444.508000",
          "122444.512000",
          "122444.514000",
          "122444.517000",
          "122444.520000",
          "122444.523000",
          "122444.526000",
          "122444.529000",
          "122444.531000",
          "122444.534000",
          "122444.537000",
          "122444.540000",
          "122444.543000",
          "122444.546000",
          "122444.548000",
          "122444.551000",
          "122444.554000",
          "122444.557000",
          "122444.560000",
          "122444.563000",
          "122444.565000",
          "122444.568000",
          "122444.571000",
          "122444.574000",
          "122524.501000",
