{
  "aor": 0.0004040250000000001,
  "aqi": 0.00770563675,
  "bids_meta": {
    "AcquisitionMatrixPE": 104,
    "AcquisitionNumber": 1,
    "AcquisitionTime": "11:58:24.377500",
    "BandwidthPerPixelPhaseEncode": 17.17,
    "BaseResolution": 104,
    "BodyPartExamined": "BRAIN",
    "CogAtlasID": "trm_4c898da401420",
    "CoilString": "HC1-7;NC1_2",
    "ConsistencyInfo": "N4_VE11C_LATEST_20160120",
    "ConversionSoftware": "dcm2niix",
    "ConversionSoftwareVersion": "v1.0.20190720  (JP2:OpenJPEG) GCC7.3.0",
    "DerivedVendorReportedEchoSpacing": 0.000560011,
    "DeviceSerialNumber": "167006",
    "DwellTime": 2.1e-06,
    "EchoTime": 0.037,
    "EchoTrainLength": 104,
    "EffectiveEchoSpacing": 0.000560011,
    "FlipAngle": 52,
    "ImageComments": "Unaliased_MB4_PE3_LB",
    "ImageOrientationPatientDICOM": [
      0.998434,
      0.012893,
      -0.0544365,
      -0.0203913,
      0.990009,
      -0.139524
    ],
    "ImageType": [
      "ORIGINAL",
      "PRIMARY",
      "M",
      "MB",
      "ND",
      "MOSAIC"
    ],
    "ImagingFrequency": 123.259,
    "InPlanePhaseEncodingDirectionDICOM": "COL",
    "InstitutionAddress": "Chemin_Queen-Mary_4565_Montreal_District_CA_H3W_1W5",
    "InstitutionName": "IUGM",
    "InstitutionalDepartmentName": "Department",
    "MRAcquisitionType": "2D",
    "MagneticFieldStrength": 3,
    "Manufacturer": "Siemens",
    "ManufacturersModelName": "Prisma_fit",
    "Modality": "MR",
    "MultibandAccelerationFactor": 4,
    "PartialFourier": 1,
    "PatientPosition": "HFS",
    "PercentPhaseFOV": 100,
    "PhaseEncodingDirection": "j-",
    "PhaseEncodingSteps": 104,
    "PhaseResolution": 1,
    "PixelBandwidth": 2290,
    "ProcedureStepDescription": "video5_generic",
    "ProtocolName": "func_task-figures1",
    "PulseSequenceDetails": "%CustomerSeq%_cmrr_mbep2d_bold",
    "ReceiveCoilActiveElements": "HC1-7;NC1,2",
    "ReceiveCoilName": "HeadNeck_64",
    "ReconMatrixPE": 104,
    "RepetitionTime": 1.49,
    "SAR": 0.034637,
    "ScanOptions": "FS",
    "ScanningSequence": "EP",
    "SequenceName": "epfid2d1_104",
    "SequenceVariant": "SK_SS",
    "SeriesDescription": "func_task-figures1",
    "SeriesNumber": 9,
    "ShimSetting": [
      607,
      -7260,
      -8833,
      588,
      -29,
      -325,
      0,
      36
    ],
    "SliceThickness": 2,
    "SliceTiming": [
      0,
      0.7825,
      0.0975,
      0.88,
      0.195,
      0.98,
      0.2925,
      1.0775,
      0.3925,
      1.175,
      0.49,
      1.2725,
      0.5875,
      1.37,
      0.685,
      0,
      0.7825,
      0.0975,
      0.88,
      0.195,
      0.98,
      0.2925,
      1.0775,
      0.3925,
      1.175,
      0.49,
      1.2725,
      0.5875,
      1.37,
      0.685,
      0,
      0.7825,
      0.0975,
      0.88,
      0.195,
      0.98,
      0.2925,
      1.0775,
      0.3925,
      1.175,
      0.49,
      1.2725,
      0.5875,
      1.37,
      0.685,
      0,
      0.7825,
      0.0975,
      0.88,
      0.195,
      0.98,
      0.2925,
      1.0775,
      0.3925,
      1.175,
      0.49,
      1.2725,
      0.5875,
      1.37,
      0.685
    ],
    "SoftwareVersions": "syngo_MR_E11",
    "SpacingBetweenSlices": 2,
    "StationName": "MRC35049",
    "TaskName": "figures01",
    "TotalReadoutTime": 0.0576811,
    "TxRefAmp": 220.615,
    "WipMemBlock": "bc60f897-b541-48cb-9588-49e815581b61||Sequence: R016 ve11c/master r/e634e98; Dec 19 2017 11:00:25 by eja",
    "dataset": "<unset>",
    "dcmmeta_affine": [
      [
        -1.9968680143356323,
        -0.04078250378370285,
        -0.1041875034570694,
        106.20792388916016
      ],
      [
        -0.025785919278860092,
        1.9800175428390503,
        -0.2808302342891693,
        -83.62176513671875
      ],
      [
        -0.10887301713228226,
        0.2790471613407135,
        1.9774426221847534,
        -43.24338150024414
      ],
      [
        0.0,
        0.0,
        0.0,
        1.0
      ]
    ],
    "dcmmeta_reorient_transform": [
      [
        0.0,
        -1.0,
        0.0,
        103.0
      ],
      [
        1.0,
        0.0,
        0.0,
        0.0
      ],
      [
        0.0,
        0.0,
        1.0,
        0.0
      ],
      [
        0.0,
        0.0,
        0.0,
        1.0
      ]
    ],
    "dcmmeta_shape": [
      104,
      104,
      60,
      402
    ],
    "dcmmeta_slice_dim": 2,
    "dcmmeta_version": 0.6,
    "global": {
      "const": {
        "AcquisitionMatrix": [
          104,
          0,
          0,
          104
        ],
        "AngioFlag": "N",
        "BitsAllocated": 16,
        "BitsStored": 16,
        "BodyPartExamined": "BRAIN",
        "Columns": 832,
        "EchoNumbers": 1,
        "EchoTime": 37.0,
        "EchoTrainLength": 104,
        "FlipAngle": 52.0,
        "HighBit": 15,
        "ImageOrientationPatient": [
          0.9984339928785,
          0.01289295957674,
          -0.0544365085035,
          -0.0203912522027,
          0.9900087721085,
          -0.1395235750038
        ],
        "ImagePositionPatient": [
          -814.02244485624,
          -850.43250362528,
          126.70141530201
        ],
        "ImageType": [
          "ORIGINAL",
          "PRIMARY",
          "M",
          "MB",
          "ND",
          "MOSAIC"
        ],
        "ImagedNucleus": "1H",
        "ImagingFrequency": 123.259171,
        "InPlanePhaseEncodingDirection": "COL",
        "MRAcquisitionType": "2D",
        "MagneticFieldStrength": 3.0,
        "Manufacturer": "SIEMENS",
        "ManufacturerModelName": "Prisma_fit",
        "Modality": "MR",
        "NumberOfAverages": 1.0,
        "NumberOfPhaseEncodingSteps": 104,
        "PercentPhaseFieldOfView": 100.0,
        "PercentSampling": 100.0,
        "PerformedProcedureStepStartTime": "112713.998000",
        "PhotometricInterpretation": "MONOCHROME2",
        "PixelBandwidth": 2290.0,
        "PixelRepresentation": 0,
        "PixelSpacing": [
          2.0,
          2.0
        ],
        "ProtocolName": "func_task-figures1",
        "RepetitionTime": 1490.0,
        "Rows": 832,
        "SAR": 0.03463697820572,
        "SamplesPerPixel": 1,
        "ScanOptions": "FS",
        "ScanningSequence": "EP",
        "SequenceName": "epfid2d1_104",
        "SequenceVariant": [
          "SK",
          "SS"
        ],
        "SeriesDescription": "func_task-figures1",
        "SeriesNumber": 9,
        "SeriesTime": "115951.121000",
        "SliceLocation": -36.546663498406,
        "SliceThickness": 2.0,
        "SmallestImagePixelValue": 0,
        "SoftwareVersions": "syngo MR E11",
        "SpacingBetweenSlices": 2.0000000287592,
        "SpecificCharacterSet": "ISO_IR 100",
        "StudyID": "1",
        "StudyTime": "112713.914000",
        "TransmitCoilName": "Body",
        "VariableFlipAngleFlag": "N",
        "WindowCenterWidthExplanation": "Algo1",
        "dBdt": 0.0
      },
      "slices": {}
    },
    "modality": "bold",
    "run_id": 2,
    "session_id": "010",
    "subject_id": "04",
    "task_id": "figures01",
    "time": {
      "samples": {
        "AcquisitionNumber": [
          1,
          2,
          3,
          4,
          5,
          6,
          7,
          8,
          9,
          10,
          11,
          12,
          13,
          14,
          15,
          16,
          17,
          18,
          19,
          20,
          21,
          22,
          23,
          24,
          25,
          26,
          27,
          28,
          29,
          30,
          31,
          32,
          33,
          34,
          35,
          36,
          37,
          38,
          39,
          40,
          41,
          42,
          43,
          44,
          45,
          46,
          47,
          48,
          49,
          50,
          51,
          52,
          53,
          54,
          55,
          56,
          57,
          58,
          59,
          60,
          61,
          62,
          63,
          64,
          65,
          66,
          67,
          68,
          69,
          70,
          71,
          72,
          73,
          74,
          75,
          76,
          77,
          78,
          79,
          80,
          81,
          82,
          83,
          84,
          85,
          86,
          87,
          88,
          89,
          90,
          91,
          92,
          93,
          94,
          95,
          96,
          97,
          98,
          99,
          100,
          101,
          102,
          103,
          104,
          105,
          106,
          107,
          108,
          109,
          110,
          111,
          112,
          113,
          114,
          115,
          116,
          117,
          118,
          119,
          120,
          121,
          122,
          123,
          124,
          125,
          126,
          127,
          128,
          129,
          130,
          131,
          132,
          133,
          134,
          135,
          136,
          137,
          138,
          139,
          140,
          141,
          142,
          143,
          144,
          145,
          146,
          147,
          148,
          149,
          150,
          151,
          152,
          153,
          154,
          155,
          156,
          157,
          158,
          159,
          160,
          161,
          162,
          163,
          164,
          165,
          166,
          167,
          168,
          169,
          170,
          171,
          172,
          173,
          174,
          175,
          176,
          177,
          178,
          179,
          180,
          181,
          182,
          183,
          184,
          185,
          186,
          187,
          188,
          189,
          190,
          191,
          192,
          193,
          194,
          195,
          196,
          197,
          198,
          199,
          200,
          201,
          202,
          203,
          204,
          205,
          206,
          207,
          208,
          209,
          210,
          211,
          212,
          213,
          214,
          215,
          216,
          217,
          218,
          219,
          220,
          221,
          222,
          223,
          224,
          225,
          226,
          227,
          228,
          229,
          230,
          231,
          232,
          233,
          234,
          235,
          236,
          237,
          238,
          239,
          240,
          241,
          242,
          243,
          244,
          245,
          246,
          247,
          248,
          249,
          250,
          251,
          252,
          253,
          254,
          255,
          256,
          257,
          258,
          259,
          260,
          261,
          262,
          263,
          264,
          265,
          266,
          267,
          268,
          269,
          270,
          271,
          272,
          273,
          274,
          275,
          276,
          277,
          278,
          279,
          280,
          281,
          282,
          283,
          284,
          285,
          286,
          287,
          288,
          289,
          290,
          291,
          292,
          293,
          294,
          295,
          296,
          297,
          298,
          299,
          300,
          301,
          302,
          303,
          304,
          305,
          306,
          307,
          308,
          309,
          310,
          311,
          312,
          313,
          314,
          315,
          316,
          317,
          318,
          319,
          320,
          321,
          322,
          323,
          324,
          325,
          326,
          327,
          328,
          329,
          330,
          331,
          332,
          333,
          334,
          335,
          336,
          337,
          338,
          339,
          340,
          341,
          342,
          343,
          344,
          345,
          346,
          347,
          348,
          349,
          350,
          351,
          352,
          353,
          354,
          355,
          356,
          357,
          358,
          359,
          360,
          361,
          362,
          363,
          364,
          365,
          366,
          367,
          368,
          369,
          370,
          371,
          372,
          373,
          374,
          375,
          376,
          377,
          378,
          379,
          380,
          381,
          382,
          383,
          384,
          385,
          386,
          387,
          388,
          389,
          390,
          391,
          392,
          393,
          394,
          395,
          396,
          397,
          398,
          399,
          400,
          401,
          402
        ],
        "AcquisitionTime": [
          "115824.377500",
          "115825.867500",
          "115827.357500",
          "115828.847500",
          "115830.337500",
          "115831.827500",
          "115833.317500",
          "115834.807500",
          "115836.297500",
          "115837.787500",
          "115839.277500",
          "115840.767500",
          "115842.257500",
          "115843.747500",
          "115845.237500",
          "115846.727500",
          "115848.217500",
          "115849.707500",
          "115851.197500",
          "115852.687500",
          "115854.177500",
          "115855.667500",
          "115857.157500",
          "115858.647500",
          "115900.137500",
          "115901.627500",
          "115903.117500",
          "115904.607500",
          "115906.097500",
          "115907.587500",
          "115909.077500",
          "115910.567500",
          "115912.057500",
          "115913.547500",
          "115915.037500",
          "115916.527500",
          "115918.017500",
          "115919.507500",
          "115920.997500",
          "115922.487500",
          "115923.977500",
          "115925.467500",
          "115926.957500",
          "115928.447500",
          "115929.937500",
          "115931.427500",
          "115932.917500",
          "115934.407500",
          "115935.897500",
          "115937.387500",
          "115938.877500",
          "115940.367500",
          "115941.857500",
          "115943.347500",
          "115944.837500",
          "115946.327500",
          "115947.817500",
          "115949.307500",
          "115950.797500",
          "115952.287500",
          "115953.777500",
          "115955.267500",
          "115956.757500",
          "115958.247500",
          "115959.737500",
          "120001.227500",
          "120002.717500",
          "120004.207500",
          "120005.697500",
          "120007.187500",
          "120008.677500",
          "120010.167500",
          "120011.657500",
          "120013.147500",
          "120014.637500",
          "120016.127500",
          "120017.617500",
          "120019.107500",
          "120020.597500",
          "120022.087500",
          "120023.577500",
          "120025.067500",
          "120026.557500",
          "120028.047500",
          "120029.537500",
          "120031.027500",
          "120032.517500",
          "120034.007500",
          "120035.497500",
          "120036.987500",
          "120038.477500",
          "120039.967500",
          "120041.457500",
          "120042.947500",
          "120044.437500",
          "120045.927500",
          "120047.417500",
          "120048.907500",
          "120050.397500",
          "120051.887500",
          "120053.377500",
          "120054.867500",
          "120056.357500",
          "120057.847500",
          "120059.337500",
          "120100.827500",
          "120102.317500",
          "120103.807500",
          "120105.297500",
          "120106.787500",
          "120108.277500",
          "120109.767500",
          "120111.257500",
          "120112.747500",
          "120114.237500",
          "120115.727500",
          "120117.217500",
          "120118.707500",
          "120120.197500",
          "120121.687500",
          "120123.177500",
          "120124.667500",
          "120126.157500",
          "120127.647500",
          "120129.137500",
          "120130.627500",
          "120132.117500",
          "120133.607500",
          "120135.097500",
          "120136.587500",
          "120138.077500",
          "120139.567500",
          "120141.057500",
          "120142.547500",
          "120144.037500",
          "120145.527500",
          "120147.017500",
          "120148.507500",
          "120149.997500",
          "120151.487500",
          "120152.977500",
          "120154.467500",
          "120155.957500",
          "120157.447500",
          "120158.937500",
          "120200.427500",
          "120201.917500",
          "120203.407500",
          "120204.897500",
          "120206.387500",
          "120207.877500",
          "120209.367500",
          "120210.857500",
          "120212.347500",
          "120213.837500",
          "120215.327500",
          "120216.817500",
          "120218.307500",
          "120219.797500",
          "120221.287500",
          "120222.777500",
          "120224.267500",
          "120225.757500",
          "120227.247500",
          "120228.737500",
          "120230.227500",
          "120231.717500",
          "120233.207500",
          "120234.697500",
          "120236.187500",
          "120237.677500",
          "120239.167500",
          "120240.657500",
          "120242.147500",
          "120243.637500",
          "120245.127500",
          "120246.617500",
          "120248.107500",
          "120249.597500",
          "120251.087500",
          "120252.577500",
          "120254.067500",
          "120255.557500",
          "120257.047500",
          "120258.537500",
          "120300.027500",
          "120301.517500",
          "120303.007500",
          "120304.497500",
          "120305.987500",
          "120307.477500",
          "120308.967500",
          "120310.457500",
          "120311.947500",
          "120313.437500",
          "120314.927500",
          "120316.417500",
          "120317.907500",
          "120319.397500",
          "120320.887500",
          "120322.377500",
          "120323.867500",
          "120325.357500",
          "120326.847500",
          "120328.337500",
          "120329.827500",
          "120331.317500",
          "120332.807500",
          "120334.297500",
          "120335.787500",
          "120337.277500",
          "120338.767500",
          "120340.257500",
          "120341.747500",
          "120343.237500",
          "120344.727500",
          "120346.217500",
          "120347.707500",
          "120349.197500",
          "120350.687500",
          "120352.177500",
          "120353.667500",
          "120355.157500",
          "120356.647500",
          "120358.137500",
          "120359.627500",
          "120401.117500",
          "120402.607500",
          "120404.097500",
          "120405.587500",
          "120407.077500",
          "120408.567500",
          "120410.057500",
          "120411.547500",
          "120413.037500",
          "120414.527500",
          "120416.017500",
          "120417.507500",
          "120418.997500",
          "120420.487500",
          "120421.977500",
          "120423.467500",
          "120424.957500",
          "120426.447500",
          "120427.937500",
          "120429.427500",
          "120430.917500",
          "120432.407500",
          "120433.897500",
          "120435.387500",
          "120436.877500",
          "120438.367500",
          "120439.857500",
          "120441.347500",
          "120442.837500",
          "120444.327500",
          "120445.817500",
          "120447.307500",
          "120448.797500",
          "120450.287500",
          "120451.777500",
          "120453.267500",
          "120454.757500",
          "120456.247500",
          "120457.737500",
          "120459.227500",
          "120500.717500",
          "120502.207500",
          "120503.697500",
          "120505.187500",
          "120506.677500",
          "120508.167500",
          "120509.657500",
          "120511.147500",
          "120512.637500",
          "120514.127500",
          "120515.617500",
          "120517.107500",
          "120518.597500",
          "120520.087500",
          "120521.577500",
          "120523.067500",
          "120524.557500",
          "120526.047500",
          "120527.537500",
          "120529.027500",
          "120530.517500",
          "120532.007500",
          "120533.497500",
          "120534.987500",
          "120536.477500",
          "120537.967500",
          "120539.457500",
          "120540.947500",
          "120542.437500",
          "120543.927500",
          "120545.417500",
          "120546.907500",
          "120548.397500",
          "120549.887500",
          "120551.377500",
          "120552.867500",
          "120554.357500",
          "120555.847500",
          "120557.337500",
          "120558.827500",
          "120600.317500",
          "120601.807500",
          "120603.297500",
          "120604.787500",
          "120606.277500",
          "120607.767500",
          "120609.257500",
          "120610.747500",
          "120612.237500",
          "120613.727500",
          "120615.217500",
          "120616.707500",
          "120618.197500",
          "120619.687500",
          "120621.177500",
          "120622.667500",
          "120624.157500",
          "120625.647500",
          "120627.137500",
          "120628.627500",
          "120630.117500",
          "120631.607500",
          "120633.097500",
          "120634.587500",
          "120636.077500",
          "120637.567500",
          "120639.057500",
          "120640.547500",
          "120642.037500",
          "120643.527500",
          "120645.017500",
          "120646.507500",
          "120647.997500",
          "120649.487500",
          "120650.977500",
          "120652.467500",
          "120653.957500",
          "120655.447500",
          "120656.937500",
          "120658.427500",
          "120659.917500",
          "120701.407500",
          "120702.897500",
          "120704.387500",
          "120705.877500",
          "120707.367500",
          "120708.857500",
          "120710.347500",
          "120711.837500",
          "120713.327500",
          "120714.817500",
          "120716.307500",
          "120717.797500",
          "120719.287500",
          "120720.777500",
          "120722.267500",
          "120723.757500",
          "120725.247500",
          "120726.737500",
          "120728.227500",
          "120729.717500",
          "120731.207500",
          "120732.697500",
          "120734.187500",
          "120735.677500",
          "120737.167500",
          "120738.657500",
          "120740.147500",
          "120741.637500",
          "120743.127500",
          "120744.617500",
          "120746.107500",
          "120747.597500",
          "120749.087500",
          "120750.577500",
          "120752.067500",
          "120753.557500",
          "120755.047500",
          "120756.537500",
          "120758.027500",
          "120759.517500",
          "120801.007500",
          "120802.497500",
          "120803.987500",
          "120805.477500",
          "120806.967500",
          "120808.457500",
          "120809.947500",
          "120811.437500",
          "120812.927500",
          "120814.417500",
          "120815.907500",
          "120817.397500",
          "120818.887500",
          "120820.377500",
          "120821.867500"
        ],
        "ContentTime": [
          "115951.125000",
          "115951.128000",
          "115951.131000",
          "115951.135000",
          "115951.138000",
          "115951.141000",
          "115951.145000",
          "115951.148000",
          "115951.152000",
          "115951.155000",
          "115951.159000",
          "115951.162000",
          "115951.165000",
          "115951.169000",
          "115951.172000",
          "115951.176000",
          "115951.179000",
          "115951.182000",
          "115951.186000",
          "115951.190000",
          "115951.198000",
          "115951.201000",
          "115951.205000",
          "115951.208000",
          "115951.211000",
          "115951.215000",
          "115951.218000",
          "115951.221000",
          "115951.225000",
          "115951.228000",
          "115951.231000",
          "115951.235000",
          "115951.238000",
          "120011.080000",
          "120011.084000",
          "120011.087000",
          "120011.090000",
          "120011.092000",
          "120011.095000",
          "120011.098000",
          "120011.101000",
          "120011.104000",
          "120011.107000",
          "120011.110000",
          "120011.112000",
          "120011.115000",
          "120011.118000",
          "120011.121000",
          "120011.124000",
          "120011.127000",
          "120011.130000",
          "120011.132000",
          "120011.135000",
          "120031.080000",
          "120031.083000",
          "120031.086000",
          "120031.089000",
          "120031.091000",
          "120031.094000",
          "120031.097000",
          "120031.100000",
          "120031.103000",
          "120031.106000",
          "120031.109000",
          "120031.112000",
          "120031.115000",
          "120031.118000",
          "120031.120000",
          "120031.123000",
          "120031.126000",
          "120031.129000",
          "120031.131000",
          "120031.134000",
          "120051.080000",
          "120051.083000",
          "120051.090000",
          "120051.093000",
          "120051.096000",
          "120051.099000",
          "120051.102000",
          "120051.104000",
          "120051.107000",
          "120051.110000",
          "120051.113000",
          "120051.116000",
          "120051.118000",
          "120051.121000",
          "120051.124000",
          "120051.127000",
          "120051.130000",
          "120051.133000",
          "120051.136000",
          "120051.138000",
          "120131.081000",
          "120131.084000",
          "120131.087000",
          "120131.090000",
          "120131.092000",
          "120131.095000",
          "120131.098000",
          "120131.101000",
          "120131.104000",
          "120131.106000",
          "120131.109000",
          "120131.112000",
          "120131.115000",
          "120131.118000",
          "120131.121000",
          "120131.124000",
          "120131.126000",
          "120131.129000",
          "120131.132000",
          "120131.135000",
          "120131.138000",
          "120131.141000",
          "120131.144000",
          "120131.146000",
          "120131.149000",
          "120131.152000",
          "120131.155000",
          "120131.158000",
          "120131.161000",
          "120131.164000",
          "120131.167000",
          "120131.169000",
          "120211.081000",
          "120211.084000",
          "120211.087000",
          "120211.090000",
          "120211.093000",
          "120211.095000",
          "120211.098000",
          "120211.101000",
          "120211.104000",
          "120211.107000",
          "120211.110000",
          "120211.113000",
          "120211.116000",
          "120211.118000",
          "120211.121000",
          "120211.124000",
          "120211.127000",
          "120211.142000",
          "120211.145000",
          "120211.148000",
          "120211.151000",
          "120211.153000",
          "120211.156000",
          "120211.159000",
          "120211.162000",
          "120211.165000",
          "120211.168000",
          "120251.080000",
          "120251.083000",
          "120251.086000",
          "120251.089000",
          "120251.092000",
          "120251.094000",
          "120251.097000",
          "120251.100000",
          "120251.107000",
          "120251.110000",
          "120251.113000",
          "120251.116000",
          "120251.118000",
          "120251.121000",
          "120251.124000",
          "120251.127000",
          "120251.130000",
          "120251.133000",
          "120251.135000",
          "120251.138000",
          "120251.141000",
          "120251.144000",
          "120251.146000",
          "120251.149000",
          "120251.152000",
          "120251.155000",
          "120331.081000",
          "120331.084000",
          "120331.087000",
          "120331.090000",
          "120331.092000",
          "120331.095000",
          "120331.098000",
          "120331.101000",
          "120331.104000",
          "120331.106000",
          "120331.109000",
          "120331.112000",
          "120331.115000",
          "120331.118000",
          "120331.121000",
          "120331.123000",
          "120331.126000",
          "120331.129000",
          "120331.132000",
          "120331.135000",
          "120331.138000",
          "120331.140000",
          "120331.143000",
          "120331.146000",
          "120331.149000",
          "120331.152000",
          "120331.154000",
          "120411.081000",
          "120411.084000",
          "120411.087000",
          "120411.090000",
          "120411.093000",
          "120411.095000",
          "120411.098000",
          "120411.101000",
          "120411.104000",
          "120411.107000",
          "120411.110000",
          "120411.112000",
          "120411.115000",
          "120411.118000",
          "120411.121000",
          "120411.123000",
          "120411.126000",
