{
  "aor": 0.0005210731707317074,
  "aqi": 0.006111383707317074,
  "bids_meta": {
    "AcquisitionMatrixPE": 104,
    "AcquisitionNumber": 1,
    "AcquisitionTime": "15:22:28.260000",
    "BandwidthPerPixelPhaseEncode": 17.17,
    "BaseResolution": 104,
    "BodyPartExamined": "BRAIN",
    "CogAtlasID": "trm_4c898da401420",
    "CoilString": "HC1-7;NC1_2",
    "ConsistencyInfo": "N4_VE11C_LATEST_20160120",
    "ConversionSoftware": "dcm2niix",
    "ConversionSoftwareVersion": "v1.0.20190720  (JP2:OpenJPEG) GCC7.3.0",
    "DerivedVendorReportedEchoSpacing": 0.000560011,
    "DeviceSerialNumber": "167006",
    "DwellTime": 2.1e-06,
    "EchoTime": 0.037,
    "EchoTrainLength": 104,
    "EffectiveEchoSpacing": 0.000560011,
    "FlipAngle": 52,
    "ImageComments": "Unaliased_MB4_PE3_LB",
    "ImageOrientationPatientDICOM": [
      0.999139,
      0.0414933,
      7.93106e-05,
      -0.0403042,
      0.970957,
      -0.235835
    ],
    "ImageType": [
      "ORIGINAL",
      "PRIMARY",
      "M",
      "MB",
      "ND",
      "MOSAIC"
    ],
    "ImagingFrequency": 123.259,
    "InPlanePhaseEncodingDirectionDICOM": "COL",
    "InstitutionAddress": "Chemin_Queen-Mary_4565_Montreal_District_CA_H3W_1W5",
    "InstitutionName": "IUGM",
    "InstitutionalDepartmentName": "Department",
    "MRAcquisitionType": "2D",
    "MagneticFieldStrength": 3,
    "Manufacturer": "Siemens",
    "ManufacturersModelName": "Prisma_fit",
    "Modality": "MR",
    "MultibandAccelerationFactor": 4,
    "PartialFourier": 1,
    "PatientPosition": "HFS",
    "PercentPhaseFOV": 100,
    "PhaseEncodingDirection": "j-",
    "PhaseEncodingSteps": 104,
    "PhaseResolution": 1,
    "PixelBandwidth": 2290,
    "ProcedureStepDescription": "video5_generic",
    "ProtocolName": "func_task-figures2",
    "PulseSequenceDetails": "%CustomerSeq%_cmrr_mbep2d_bold",
    "ReceiveCoilActiveElements": "HC1-7;NC1,2",
    "ReceiveCoilName": "HeadNeck_64",
    "ReconMatrixPE": 104,
    "RepetitionTime": 1.49,
    "SAR": 0.0298577,
    "ScanOptions": "FS",
    "ScanningSequence": "EP",
    "SequenceName": "epfid2d1_104",
    "SequenceVariant": "SK_SS",
    "SeriesDescription": "func_task-figures2",
    "SeriesNumber": 11,
    "ShimSetting": [
      638,
      -7221,
      -8808,
      706,
      83,
      -59,
      26,
      4
    ],
    "SliceThickness": 2,
    "SliceTiming": [
      0,
      0.785,
      0.0975,
      0.8825,
      0.1975,
      0.98,
      0.295,
      1.0775,
      0.3925,
      1.175,
      0.49,
      1.275,
      0.5875,
      1.3725,
      0.685,
      0,
      0.785,
      0.0975,
      0.8825,
      0.1975,
      0.98,
      0.295,
      1.0775,
      0.3925,
      1.175,
      0.49,
      1.275,
      0.5875,
      1.3725,
      0.685,
      0,
      0.785,
      0.0975,
      0.8825,
      0.1975,
      0.98,
      0.295,
      1.0775,
      0.3925,
      1.175,
      0.49,
      1.275,
      0.5875,
      1.3725,
      0.685,
      0,
      0.785,
      0.0975,
      0.8825,
      0.1975,
      0.98,
      0.295,
      1.0775,
      0.3925,
      1.175,
      0.49,
      1.275,
      0.5875,
      1.3725,
      0.685
    ],
    "SoftwareVersions": "syngo_MR_E11",
    "SpacingBetweenSlices": 2,
    "StationName": "MRC35049",
    "TaskName": "figures08",
    "TotalReadoutTime": 0.0576811,
    "TxRefAmp": 209.038,
    "WipMemBlock": "3641f502-4d68-4a36-943c-b3d8d50e35c0||Sequence: R016 ve11c/master r/e634e98; Dec 19 2017 11:00:25 by eja",
    "dataset": "<unset>",
    "dcmmeta_affine": [
      [
        -1.9982775449752808,
        -0.08060846477746964,
        0.01972513645887375,
        110.44623565673828
      ],
      [
        -0.08298663049936295,
        1.9419140815734863,
        -0.47125670313835144,
        -78.23013305664062
      ],
      [
        0.00015862123109400272,
        0.4716692864894867,
        1.9435864686965942,
        -62.42426681518555
      ],
      [
        0.0,
        0.0,
        0.0,
        1.0
      ]
    ],
    "dcmmeta_reorient_transform": [
      [
        0.0,
        -1.0,
        0.0,
        103.0
      ],
      [
        1.0,
        0.0,
        0.0,
        0.0
      ],
      [
        0.0,
        0.0,
        1.0,
        0.0
      ],
      [
        0.0,
        0.0,
        0.0,
        1.0
      ]
    ],
    "dcmmeta_shape": [
      104,
      104,
      60,
      410
    ],
    "dcmmeta_slice_dim": 2,
    "dcmmeta_version": 0.6,
    "global": {
      "const": {
        "AcquisitionMatrix": [
          104,
          0,
          0,
          104
        ],
        "AngioFlag": "N",
        "BitsAllocated": 16,
        "BitsStored": 16,
        "BodyPartExamined": "BRAIN",
        "Columns": 832,
        "EchoNumbers": 1,
        "EchoTime": 37.0,
        "EchoTrainLength": 104,
        "FlipAngle": 52.0,
        "HighBit": 15,
        "ImageOrientationPatient": [
          0.99913877839276,
          0.04149331538524,
          7.931061435e-05,
          -0.0403042337306,
          0.97095704862293,
          -0.2358346422238
        ],
        "ImagePositionPatient": [
          -800.1751138983,
          -858.85088081806,
          157.78755027896
        ],
        "ImageType": [
          "ORIGINAL",
          "PRIMARY",
          "M",
          "MB",
          "ND",
          "MOSAIC"
        ],
        "ImagedNucleus": "1H",
        "ImagingFrequency": 123.25917,
        "InPlanePhaseEncodingDirection": "COL",
        "MRAcquisitionType": "2D",
        "MagneticFieldStrength": 3.0,
        "Manufacturer": "SIEMENS",
        "ManufacturerModelName": "Prisma_fit",
        "Modality": "MR",
        "NumberOfAverages": 1.0,
        "NumberOfPhaseEncodingSteps": 104,
        "PercentPhaseFieldOfView": 100.0,
        "PercentSampling": 100.0,
        "PerformedProcedureStepStartTime": "145035.744000",
        "PhotometricInterpretation": "MONOCHROME2",
        "PixelBandwidth": 2290.0,
        "PixelRepresentation": 0,
        "PixelSpacing": [
          2.0,
          2.0
        ],
        "ProtocolName": "func_task-figures2",
        "RepetitionTime": 1490.0,
        "Rows": 832,
        "SAR": 0.02985774004122,
        "SamplesPerPixel": 1,
        "ScanOptions": "FS",
        "ScanningSequence": "EP",
        "SequenceName": "epfid2d1_104",
        "SequenceVariant": [
          "SK",
          "SS"
        ],
        "SeriesDescription": "func_task-figures2",
        "SeriesNumber": 11,
        "SeriesTime": "152344.083000",
        "SliceLocation": -41.140957653092,
        "SliceThickness": 2.0,
        "SmallestImagePixelValue": 0,
        "SoftwareVersions": "syngo MR E11",
        "SpacingBetweenSlices": 2.0000000527773,
        "SpecificCharacterSet": "ISO_IR 100",
        "StudyID": "1",
        "StudyTime": "145035.631000",
        "TransmitCoilName": "Body",
        "VariableFlipAngleFlag": "N",
        "WindowCenterWidthExplanation": "Algo1",
        "dBdt": 0.0
      },
      "slices": {}
    },
    "modality": "bold",
    "run_id": 2,
    "session_id": "013",
    "subject_id": "03",
    "task_id": "figures08",
    "time": {
      "samples": {
        "AcquisitionNumber": [
          1,
          2,
          3,
          4,
          5,
          6,
          7,
          8,
          9,
          10,
          11,
          12,
          13,
          14,
          15,
          16,
          17,
          18,
          19,
          20,
          21,
          22,
          23,
          24,
          25,
          26,
          27,
          28,
          29,
          30,
          31,
          32,
          33,
          34,
          35,
          36,
          37,
          38,
          39,
          40,
          41,
          42,
          43,
          44,
          45,
          46,
          47,
          48,
          49,
          50,
          51,
          52,
          53,
          54,
          55,
          56,
          57,
          58,
          59,
          60,
          61,
          62,
          63,
          64,
          65,
          66,
          67,
          68,
          69,
          70,
          71,
          72,
          73,
          74,
          75,
          76,
          77,
          78,
          79,
          80,
          81,
          82,
          83,
          84,
          85,
          86,
          87,
          88,
          89,
          90,
          91,
          92,
          93,
          94,
          95,
          96,
          97,
          98,
          99,
          100,
          101,
          102,
          103,
          104,
          105,
          106,
          107,
          108,
          109,
          110,
          111,
          112,
          113,
          114,
          115,
          116,
          117,
          118,
          119,
          120,
          121,
          122,
          123,
          124,
          125,
          126,
          127,
          128,
          129,
          130,
          131,
          132,
          133,
          134,
          135,
          136,
          137,
          138,
          139,
          140,
          141,
          142,
          143,
          144,
          145,
          146,
          147,
          148,
          149,
          150,
          151,
          152,
          153,
          154,
          155,
          156,
          157,
          158,
          159,
          160,
          161,
          162,
          163,
          164,
          165,
          166,
          167,
          168,
          169,
          170,
          171,
          172,
          173,
          174,
          175,
          176,
          177,
          178,
          179,
          180,
          181,
          182,
          183,
          184,
          185,
          186,
          187,
          188,
          189,
          190,
          191,
          192,
          193,
          194,
          195,
          196,
          197,
          198,
          199,
          200,
          201,
          202,
          203,
          204,
          205,
          206,
          207,
          208,
          209,
          210,
          211,
          212,
          213,
          214,
          215,
          216,
          217,
          218,
          219,
          220,
          221,
          222,
          223,
          224,
          225,
          226,
          227,
          228,
          229,
          230,
          231,
          232,
          233,
          234,
          235,
          236,
          237,
          238,
          239,
          240,
          241,
          242,
          243,
          244,
          245,
          246,
          247,
          248,
          249,
          250,
          251,
          252,
          253,
          254,
          255,
          256,
          257,
          258,
          259,
          260,
          261,
          262,
          263,
          264,
          265,
          266,
          267,
          268,
          269,
          270,
          271,
          272,
          273,
          274,
          275,
          276,
          277,
          278,
          279,
          280,
          281,
          282,
          283,
          284,
          285,
          286,
          287,
          288,
          289,
          290,
          291,
          292,
          293,
          294,
          295,
          296,
          297,
          298,
          299,
          300,
          301,
          302,
          303,
          304,
          305,
          306,
          307,
          308,
          309,
          310,
          311,
          312,
          313,
          314,
          315,
          316,
          317,
          318,
          319,
          320,
          321,
          322,
          323,
          324,
          325,
          326,
          327,
          328,
          329,
          330,
          331,
          332,
          333,
          334,
          335,
          336,
          337,
          338,
          339,
          340,
          341,
          342,
          343,
          344,
          345,
          346,
          347,
          348,
          349,
          350,
          351,
          352,
          353,
          354,
          355,
          356,
          357,
          358,
          359,
          360,
          361,
          362,
          363,
          364,
          365,
          366,
          367,
          368,
          369,
          370,
          371,
          372,
          373,
          374,
          375,
          376,
          377,
          378,
          379,
          380,
          381,
          382,
          383,
          384,
          385,
          386,
          387,
          388,
          389,
          390,
          391,
          392,
          393,
          394,
          395,
          396,
          397,
          398,
          399,
          400,
          401,
          402,
          403,
          404,
          405,
          406,
          407,
          408,
          409,
          410
        ],
        "AcquisitionTime": [
          "152228.260000",
          "152229.750000",
          "152231.240000",
          "152232.730000",
          "152234.220000",
          "152235.710000",
          "152237.200000",
          "152238.690000",
          "152240.180000",
          "152241.670000",
          "152243.160000",
          "152244.650000",
          "152246.140000",
          "152247.630000",
          "152249.120000",
          "152250.610000",
          "152252.100000",
          "152253.590000",
          "152255.080000",
          "152256.570000",
          "152258.060000",
          "152259.550000",
          "152301.040000",
          "152302.530000",
          "152304.020000",
          "152305.510000",
          "152307.000000",
          "152308.490000",
          "152309.980000",
          "152311.470000",
          "152312.960000",
          "152314.450000",
          "152315.940000",
          "152317.430000",
          "152318.920000",
          "152320.410000",
          "152321.900000",
          "152323.390000",
          "152324.880000",
          "152326.370000",
          "152327.860000",
          "152329.350000",
          "152330.840000",
          "152332.330000",
          "152333.820000",
          "152335.310000",
          "152336.800000",
          "152338.290000",
          "152339.780000",
          "152341.270000",
          "152342.760000",
          "152344.250000",
          "152345.740000",
          "152347.230000",
          "152348.720000",
          "152350.210000",
          "152351.700000",
          "152353.190000",
          "152354.680000",
          "152356.170000",
          "152357.660000",
          "152359.150000",
          "152400.640000",
          "152402.130000",
          "152403.620000",
          "152405.110000",
          "152406.600000",
          "152408.090000",
          "152409.580000",
          "152411.070000",
          "152412.560000",
          "152414.050000",
          "152415.540000",
          "152417.030000",
          "152418.520000",
          "152420.010000",
          "152421.500000",
          "152422.990000",
          "152424.480000",
          "152425.970000",
          "152427.460000",
          "152428.950000",
          "152430.440000",
          "152431.930000",
          "152433.420000",
          "152434.910000",
          "152436.400000",
          "152437.890000",
          "152439.380000",
          "152440.870000",
          "152442.360000",
          "152443.850000",
          "152445.340000",
          "152446.830000",
          "152448.320000",
          "152449.810000",
          "152451.300000",
          "152452.790000",
          "152454.280000",
          "152455.770000",
          "152457.260000",
          "152458.750000",
          "152500.240000",
          "152501.730000",
          "152503.220000",
          "152504.710000",
          "152506.200000",
          "152507.690000",
          "152509.180000",
          "152510.670000",
          "152512.160000",
          "152513.650000",
          "152515.140000",
          "152516.630000",
          "152518.120000",
          "152519.610000",
          "152521.100000",
          "152522.590000",
          "152524.080000",
          "152525.570000",
          "152527.060000",
          "152528.550000",
          "152530.040000",
          "152531.530000",
          "152533.020000",
          "152534.510000",
          "152536.000000",
          "152537.490000",
          "152538.980000",
          "152540.470000",
          "152541.960000",
          "152543.450000",
          "152544.940000",
          "152546.430000",
          "152547.920000",
          "152549.410000",
          "152550.900000",
          "152552.390000",
          "152553.880000",
          "152555.370000",
          "152556.860000",
          "152558.350000",
          "152559.840000",
          "152601.330000",
          "152602.820000",
          "152604.310000",
          "152605.800000",
          "152607.290000",
          "152608.780000",
          "152610.270000",
          "152611.760000",
          "152613.250000",
          "152614.740000",
          "152616.230000",
          "152617.720000",
          "152619.210000",
          "152620.700000",
          "152622.190000",
          "152623.680000",
          "152625.170000",
          "152626.660000",
          "152628.150000",
          "152629.640000",
          "152631.130000",
          "152632.620000",
          "152634.110000",
          "152635.600000",
          "152637.090000",
          "152638.580000",
          "152640.070000",
          "152641.560000",
          "152643.050000",
          "152644.540000",
          "152646.030000",
          "152647.520000",
          "152649.010000",
          "152650.500000",
          "152651.990000",
          "152653.480000",
          "152654.970000",
          "152656.460000",
          "152657.950000",
          "152659.440000",
          "152700.930000",
          "152702.420000",
          "152703.910000",
          "152705.400000",
          "152706.890000",
          "152708.380000",
          "152709.870000",
          "152711.360000",
          "152712.850000",
          "152714.340000",
          "152715.830000",
          "152717.320000",
          "152718.810000",
          "152720.300000",
          "152721.790000",
          "152723.280000",
          "152724.770000",
          "152726.260000",
          "152727.750000",
          "152729.240000",
          "152730.730000",
          "152732.220000",
          "152733.710000",
          "152735.200000",
          "152736.690000",
          "152738.180000",
          "152739.670000",
          "152741.160000",
          "152742.650000",
          "152744.140000",
          "152745.630000",
          "152747.120000",
          "152748.610000",
          "152750.100000",
          "152751.590000",
          "152753.080000",
          "152754.570000",
          "152756.060000",
          "152757.550000",
          "152759.040000",
          "152800.530000",
          "152802.020000",
          "152803.510000",
          "152805.000000",
          "152806.490000",
          "152807.980000",
          "152809.470000",
          "152810.960000",
          "152812.450000",
          "152813.940000",
          "152815.430000",
          "152816.920000",
          "152818.410000",
          "152819.900000",
          "152821.390000",
          "152822.880000",
          "152824.370000",
          "152825.860000",
          "152827.350000",
          "152828.840000",
          "152830.330000",
          "152831.820000",
          "152833.310000",
          "152834.800000",
          "152836.290000",
          "152837.780000",
          "152839.270000",
          "152840.760000",
          "152842.250000",
          "152843.740000",
          "152845.230000",
          "152846.720000",
          "152848.210000",
          "152849.700000",
          "152851.190000",
          "152852.680000",
          "152854.170000",
          "152855.660000",
          "152857.150000",
          "152858.640000",
          "152900.130000",
          "152901.620000",
          "152903.110000",
          "152904.600000",
          "152906.090000",
          "152907.580000",
          "152909.070000",
          "152910.560000",
          "152912.050000",
          "152913.540000",
          "152915.030000",
          "152916.520000",
          "152918.010000",
          "152919.500000",
          "152920.990000",
          "152922.480000",
          "152923.970000",
          "152925.460000",
          "152926.950000",
          "152928.440000",
          "152929.930000",
          "152931.420000",
          "152932.910000",
          "152934.400000",
          "152935.890000",
          "152937.380000",
          "152938.870000",
          "152940.360000",
          "152941.850000",
          "152943.340000",
          "152944.830000",
          "152946.320000",
          "152947.810000",
          "152949.300000",
          "152950.790000",
          "152952.280000",
          "152953.770000",
          "152955.260000",
          "152956.750000",
          "152958.240000",
          "152959.730000",
          "153001.220000",
          "153002.710000",
          "153004.200000",
          "153005.690000",
          "153007.180000",
          "153008.670000",
          "153010.160000",
          "153011.650000",
          "153013.140000",
          "153014.630000",
          "153016.120000",
          "153017.610000",
          "153019.100000",
          "153020.590000",
          "153022.080000",
          "153023.570000",
          "153025.060000",
          "153026.550000",
          "153028.040000",
          "153029.530000",
          "153031.020000",
          "153032.510000",
          "153034.000000",
          "153035.490000",
          "153036.980000",
          "153038.470000",
          "153039.960000",
          "153041.450000",
          "153042.940000",
          "153044.430000",
          "153045.920000",
          "153047.410000",
          "153048.900000",
          "153050.390000",
          "153051.880000",
          "153053.370000",
          "153054.860000",
          "153056.350000",
          "153057.840000",
          "153059.330000",
          "153100.820000",
          "153102.310000",
          "153103.800000",
          "153105.290000",
          "153106.780000",
          "153108.270000",
          "153109.760000",
          "153111.250000",
          "153112.740000",
          "153114.230000",
          "153115.720000",
          "153117.210000",
          "153118.700000",
          "153120.190000",
          "153121.680000",
          "153123.170000",
          "153124.660000",
          "153126.150000",
          "153127.640000",
          "153129.130000",
          "153130.620000",
          "153132.110000",
          "153133.600000",
          "153135.090000",
          "153136.580000",
          "153138.070000",
          "153139.560000",
          "153141.050000",
          "153142.540000",
          "153144.030000",
          "153145.520000",
          "153147.010000",
          "153148.500000",
          "153149.990000",
          "153151.480000",
          "153152.970000",
          "153154.460000",
          "153155.950000",
          "153157.440000",
          "153158.930000",
          "153200.420000",
          "153201.910000",
          "153203.400000",
          "153204.890000",
          "153206.380000",
          "153207.870000",
          "153209.360000",
          "153210.850000",
          "153212.340000",
          "153213.830000",
          "153215.320000",
          "153216.810000",
          "153218.300000",
          "153219.790000",
          "153221.280000",
          "153222.770000",
          "153224.260000",
          "153225.750000",
          "153227.240000",
          "153228.730000",
          "153230.220000",
          "153231.710000",
          "153233.200000",
          "153234.690000",
          "153236.180000",
          "153237.670000"
        ],
        "ContentTime": [
          "152344.086000",
          "152344.090000",
          "152344.093000",
          "152344.096000",
          "152344.099000",
          "152344.102000",
          "152344.105000",
          "152344.107000",
          "152344.110000",
          "152344.113000",
          "152344.116000",
          "152344.119000",
          "152344.122000",
          "152344.124000",
          "152344.127000",
          "152344.135000",
          "152344.138000",
          "152344.141000",
          "152344.150000",
          "152344.153000",
          "152344.155000",
          "152344.158000",
          "152404.034000",
          "152404.037000",
          "152404.040000",
          "152404.043000",
          "152404.045000",
          "152404.048000",
          "152404.051000",
          "152404.054000",
          "152404.057000",
          "152404.060000",
          "152404.063000",
          "152404.066000",
          "152404.068000",
          "152404.071000",
          "152404.074000",
          "152404.077000",
          "152404.083000",
          "152404.086000",
          "152404.089000",
          "152404.092000",
          "152424.034000",
          "152424.037000",
          "152424.040000",
          "152424.042000",
          "152424.045000",
          "152424.048000",
          "152424.051000",
          "152424.054000",
          "152424.057000",
          "152424.059000",
          "152424.062000",
          "152424.065000",
          "152424.068000",
          "152424.071000",
          "152424.074000",
          "152424.078000",
          "152424.081000",
          "152424.094000",
          "152424.097000",
          "152424.100000",
          "152444.034000",
          "152444.037000",
          "152444.040000",
          "152444.043000",
          "152444.045000",
          "152444.048000",
          "152444.051000",
          "152444.054000",
          "152444.057000",
          "152444.059000",
          "152444.062000",
          "152444.065000",
          "152444.068000",
          "152444.071000",
          "152444.074000",
          "152444.076000",
          "152444.087000",
          "152444.090000",
          "152444.093000",
          "152444.096000",
          "152444.098000",
          "152504.034000",
          "152504.037000",
          "152504.040000",
          "152504.042000",
          "152504.045000",
          "152504.048000",
          "152504.051000",
          "152504.054000",
          "152504.057000",
          "152504.059000",
          "152504.062000",
          "152504.065000",
          "152504.068000",
          "152504.071000",
          "152504.074000",
          "152504.076000",
          "152504.079000",
          "152504.082000",
          "152504.085000",
          "152504.088000",
          "152544.033000",
          "152544.036000",
          "152544.039000",
          "152544.042000",
          "152544.044000",
          "152544.047000",
          "152544.050000",
          "152544.053000",
          "152544.056000",
          "152544.058000",
          "152544.061000",
          "152544.064000",
          "152544.067000",
          "152544.070000",
          "152544.072000",
          "152544.075000",
          "152544.095000",
          "152544.098000",
          "152544.101000",
          "152544.104000",
          "152544.106000",
          "152544.109000",
          "152544.112000",
          "152544.128000",
          "152544.131000",
          "152544.134000",
          "152544.137000",
          "152624.034000",
          "152624.037000",
          "152624.040000",
          "152624.043000",
          "152624.045000",
          "152624.048000",
          "152624.051000",
          "152624.054000",
          "152624.057000",
          "152624.060000",
          "152624.062000",
          "152624.065000",
          "152624.068000",
          "152624.071000",
          "152624.074000",
          "152624.077000",
          "152624.079000",
          "152624.082000",
          "152624.085000",
          "152624.088000",
          "152624.091000",
          "152624.094000",
          "152624.096000",
          "152624.099000",
          "152624.102000",
          "152624.105000",
          "152624.108000",
          "152704.034000",
          "152704.037000",
          "152704.040000",
          "152704.043000",
          "152704.046000",
          "152704.048000",
          "152704.051000",
          "152704.054000",
          "152704.057000",
          "152704.060000",
          "152704.062000",
          "152704.065000",
          "152704.068000",
          "152704.071000",
          "152704.074000",
          "152704.077000",
          "152704.080000",
          "152704.082000",
          "152704.085000",
          "152704.088000",
          "152704.091000",
          "152704.094000",
          "152704.097000",
          "152704.099000",
          "152704.102000",
          "152704.105000",
          "152704.108000",
          "152744.033000",
          "152744.036000",
          "152744.039000",
          "152744.042000",
          "152744.045000",
          "152744.047000",
          "152744.050000",
          "152744.053000",
          "152744.056000",
          "152744.059000",
          "152744.062000",
          "152744.064000",
          "152744.067000",
          "152744.070000",
          "152744.073000",
          "152744.076000",
          "152744.079000",
          "152744.082000",
          "152744.084000",
          "152744.087000",
          "152744.090000",
          "152744.093000",
          "152744.096000",
          "152744.099000",
          "152744.101000",
