{
  "aor": 0.000247002457002457,
  "aqi": 0.004450125307125307,
  "bids_meta": {
    "AcquisitionMatrixPE": 104,
    "AcquisitionNumber": 1,
    "AcquisitionTime": "09:27:13.287500",
    "BandwidthPerPixelPhaseEncode": 17.17,
    "BaseResolution": 104,
    "BodyPartExamined": "BRAIN",
    "CogAtlasID": "trm_4c898da401420",
    "CoilString": "HC1-7;NC1_2",
    "ConsistencyInfo": "N4_VE11C_LATEST_20160120",
    "ConversionSoftware": "dcm2niix",
    "ConversionSoftwareVersion": "v1.0.20190720  (JP2:OpenJPEG) GCC7.3.0",
    "DerivedVendorReportedEchoSpacing": 0.000560011,
    "DeviceSerialNumber": "167006",
    "DwellTime": 2.1e-06,
    "EchoTime": 0.037,
    "EchoTrainLength": 104,
    "EffectiveEchoSpacing": 0.000560011,
    "FlipAngle": 52,
    "ImageComments": "Unaliased_MB4_PE3_LB",
    "ImageOrientationPatientDICOM": [
      0.997568,
      0.0180358,
      -0.067323,
      -0.0280388,
      0.988176,
      -0.150738
    ],
    "ImageType": [
      "ORIGINAL",
      "PRIMARY",
      "M",
      "MB",
      "ND",
      "MOSAIC"
    ],
    "ImagingFrequency": 123.259,
    "InPlanePhaseEncodingDirectionDICOM": "COL",
    "InstitutionAddress": "Chemin_Queen-Mary_4565_Montreal_District_CA_H3W_1W5",
    "InstitutionName": "IUGM",
    "InstitutionalDepartmentName": "Department",
    "MRAcquisitionType": "2D",
    "MagneticFieldStrength": 3,
    "Manufacturer": "Siemens",
    "ManufacturersModelName": "Prisma_fit",
    "Modality": "MR",
    "MultibandAccelerationFactor": 4,
    "PartialFourier": 1,
    "PatientPosition": "HFS",
    "PercentPhaseFOV": 100,
    "PhaseEncodingDirection": "j",
    "PhaseEncodingSteps": 104,
    "PhaseResolution": 1,
    "PixelBandwidth": 2290,
    "ProcedureStepDescription": "video5_generic",
    "ProtocolName": "func_task-figures11",
    "PulseSequenceDetails": "%CustomerSeq%_cmrr_mbep2d_bold",
    "ReceiveCoilActiveElements": "HC1-7;NC1,2",
    "ReceiveCoilName": "HeadNeck_64",
    "ReconMatrixPE": 104,
    "RepetitionTime": 1.49,
    "SAR": 0.0322932,
    "ScanOptions": "FS",
    "ScanningSequence": "EP",
    "SequenceName": "epfid2d1_104",
    "SequenceVariant": "SK_SS",
    "SeriesDescription": "func_task-figures11",
    "SeriesNumber": 9,
    "ShimSetting": [
      596,
      -7252,
      -8837,
      570,
      -51,
      -289,
      31,
      45
    ],
    "SliceThickness": 2,
    "SliceTiming": [
      0,
      0.7825,
      0.0975,
      0.88,
      0.195,
      0.98,
      0.2925,
      1.0775,
      0.39,
      1.175,
      0.49,
      1.2725,
      0.5875,
      1.37,
      0.685,
      0,
      0.7825,
      0.0975,
      0.88,
      0.195,
      0.98,
      0.2925,
      1.0775,
      0.39,
      1.175,
      0.49,
      1.2725,
      0.5875,
      1.37,
      0.685,
      0,
      0.7825,
      0.0975,
      0.88,
      0.195,
      0.98,
      0.2925,
      1.0775,
      0.39,
      1.175,
      0.49,
      1.2725,
      0.5875,
      1.37,
      0.685,
      0,
      0.7825,
      0.0975,
      0.88,
      0.195,
      0.98,
      0.2925,
      1.0775,
      0.39,
      1.175,
      0.49,
      1.2725,
      0.5875,
      1.37,
      0.685
    ],
    "SoftwareVersions": "syngo_MR_E11",
    "SpacingBetweenSlices": 2,
    "StationName": "MRC35049",
    "TaskName": "figures11",
    "TotalReadoutTime": 0.0576811,
    "TxRefAmp": 217.416,
    "WipMemBlock": "2e02b681-6da2-4af9-8bf8-8e33496efa6d||Sequence: R016 ve11c/master r/e634e98; Dec 19 2017 11:00:25 by eja",
    "dataset": "<unset>",
    "dcmmeta_affine": [
      [
        -1.9951363801956177,
        -0.05607768893241882,
        -0.12761656939983368,
        108.1863784790039
      ],
      [
        -0.03607157617807388,
        1.9763520956039429,
        -0.30451804399490356,
        -83.59396362304688
      ],
      [
        -0.1346459686756134,
        0.30147585272789,
        1.9725574254989624,
        -43.99356460571289
      ],
      [
        0.0,
        0.0,
        0.0,
        1.0
      ]
    ],
    "dcmmeta_reorient_transform": [
      [
        0.0,
        -1.0,
        0.0,
        103.0
      ],
      [
        1.0,
        0.0,
        0.0,
        0.0
      ],
      [
        0.0,
        0.0,
        1.0,
        0.0
      ],
      [
        0.0,
        0.0,
        0.0,
        1.0
      ]
    ],
    "dcmmeta_shape": [
      104,
      104,
      60,
      409
    ],
    "dcmmeta_slice_dim": 2,
    "dcmmeta_version": 0.6,
    "global": {
      "const": {
        "AcquisitionMatrix": [
          104,
          0,
          0,
          104
        ],
        "AngioFlag": "N",
        "BitsAllocated": 16,
        "BitsStored": 16,
        "BodyPartExamined": "BRAIN",
        "Columns": 832,
        "EchoNumbers": 1,
        "EchoTime": 37.0,
        "EchoTrainLength": 104,
        "FlipAngle": 52.0,
        "HighBit": 15,
        "ImageOrientationPatient": [
          0.99756820625147,
          0.01803578789832,
          -0.0673229844192,
          -0.0280388449024,
          0.98817604850481,
          -0.1507379193766
        ],
        "ImagePositionPatient": [
          -808.22775384159,
          -852.49252290419,
          145.80678365243
        ],
        "ImageType": [
          "ORIGINAL",
          "PRIMARY",
          "M",
          "MB",
          "ND",
          "MOSAIC"
        ],
        "ImagedNucleus": "1H",
        "ImagingFrequency": 123.25915,
        "InPlanePhaseEncodingDirection": "COL",
        "MRAcquisitionType": "2D",
        "MagneticFieldStrength": 3.0,
        "Manufacturer": "SIEMENS",
        "ManufacturerModelName": "Prisma_fit",
        "Modality": "MR",
        "NumberOfAverages": 1.0,
        "NumberOfPhaseEncodingSteps": 104,
        "PercentPhaseFieldOfView": 100.0,
        "PercentSampling": 100.0,
        "PerformedProcedureStepStartTime": "090610.580000",
        "PhotometricInterpretation": "MONOCHROME2",
        "PixelBandwidth": 2290.0,
        "PixelRepresentation": 0,
        "PixelSpacing": [
          2.0,
          2.0
        ],
        "ProtocolName": "func_task-figures11",
        "RepetitionTime": 1490.0,
        "Rows": 832,
        "SAR": 0.03229319530478,
        "SamplesPerPixel": 1,
        "ScanOptions": "FS",
        "ScanningSequence": "EP",
        "SequenceName": "epfid2d1_104",
        "SequenceVariant": [
          "SK",
          "SS"
        ],
        "SeriesDescription": "func_task-figures11",
        "SeriesNumber": 9,
        "SeriesTime": "092847.808000",
        "SliceLocation": -37.56517056106,
        "SliceThickness": 2.0,
        "SmallestImagePixelValue": 0,
        "SoftwareVersions": "syngo MR E11",
        "SpacingBetweenSlices": 2.0000000317922,
        "SpecificCharacterSet": "ISO_IR 100",
        "StudyID": "1",
        "StudyTime": "090610.474000",
        "TransmitCoilName": "Body",
        "VariableFlipAngleFlag": "N",
        "WindowCenterWidthExplanation": "Algo1",
        "dBdt": 0.0
      },
      "slices": {}
    },
    "modality": "bold",
    "run_id": 2,
    "session_id": "012",
    "subject_id": "04",
    "task_id": "figures11",
    "time": {
      "samples": {
        "AcquisitionNumber": [
          1,
          2,
          3,
          4,
          5,
          6,
          7,
          8,
          9,
          10,
          11,
          12,
          13,
          14,
          15,
          16,
          17,
          18,
          19,
          20,
          21,
          22,
          23,
          24,
          25,
          26,
          27,
          28,
          29,
          30,
          31,
          32,
          33,
          34,
          35,
          36,
          37,
          38,
          39,
          40,
          41,
          42,
          43,
          44,
          45,
          46,
          47,
          48,
          49,
          50,
          51,
          52,
          53,
          54,
          55,
          56,
          57,
          58,
          59,
          60,
          61,
          62,
          63,
          64,
          65,
          66,
          67,
          68,
          69,
          70,
          71,
          72,
          73,
          74,
          75,
          76,
          77,
          78,
          79,
          80,
          81,
          82,
          83,
          84,
          85,
          86,
          87,
          88,
          89,
          90,
          91,
          92,
          93,
          94,
          95,
          96,
          97,
          98,
          99,
          100,
          101,
          102,
          103,
          104,
          105,
          106,
          107,
          108,
          109,
          110,
          111,
          112,
          113,
          114,
          115,
          116,
          117,
          118,
          119,
          120,
          121,
          122,
          123,
          124,
          125,
          126,
          127,
          128,
          129,
          130,
          131,
          132,
          133,
          134,
          135,
          136,
          137,
          138,
          139,
          140,
          141,
          142,
          143,
          144,
          145,
          146,
          147,
          148,
          149,
          150,
          151,
          152,
          153,
          154,
          155,
          156,
          157,
          158,
          159,
          160,
          161,
          162,
          163,
          164,
          165,
          166,
          167,
          168,
          169,
          170,
          171,
          172,
          173,
          174,
          175,
          176,
          177,
          178,
          179,
          180,
          181,
          182,
          183,
          184,
          185,
          186,
          187,
          188,
          189,
          190,
          191,
          192,
          193,
          194,
          195,
          196,
          197,
          198,
          199,
          200,
          201,
          202,
          203,
          204,
          205,
          206,
          207,
          208,
          209,
          210,
          211,
          212,
          213,
          214,
          215,
          216,
          217,
          218,
          219,
          220,
          221,
          222,
          223,
          224,
          225,
          226,
          227,
          228,
          229,
          230,
          231,
          232,
          233,
          234,
          235,
          236,
          237,
          238,
          239,
          240,
          241,
          242,
          243,
          244,
          245,
          246,
          247,
          248,
          249,
          250,
          251,
          252,
          253,
          254,
          255,
          256,
          257,
          258,
          259,
          260,
          261,
          262,
          263,
          264,
          265,
          266,
          267,
          268,
          269,
          270,
          271,
          272,
          273,
          274,
          275,
          276,
          277,
          278,
          279,
          280,
          281,
          282,
          283,
          284,
          285,
          286,
          287,
          288,
          289,
          290,
          291,
          292,
          293,
          294,
          295,
          296,
          297,
          298,
          299,
          300,
          301,
          302,
          303,
          304,
          305,
          306,
          307,
          308,
          309,
          310,
          311,
          312,
          313,
          314,
          315,
          316,
          317,
          318,
          319,
          320,
          321,
          322,
          323,
          324,
          325,
          326,
          327,
          328,
          329,
          330,
          331,
          332,
          333,
          334,
          335,
          336,
          337,
          338,
          339,
          340,
          341,
          342,
          343,
          344,
          345,
          346,
          347,
          348,
          349,
          350,
          351,
          352,
          353,
          354,
          355,
          356,
          357,
          358,
          359,
          360,
          361,
          362,
          363,
          364,
          365,
          366,
          367,
          368,
          369,
          370,
          371,
          372,
          373,
          374,
          375,
          376,
          377,
          378,
          379,
          380,
          381,
          382,
          383,
          384,
          385,
          386,
          387,
          388,
          389,
          390,
          391,
          392,
          393,
          394,
          395,
          396,
          397,
          398,
          399,
          400,
          401,
          402,
          403,
          404,
          405,
          406,
          407,
          408,
          409
        ],
        "AcquisitionTime": [
          "092713.287500",
          "092714.777500",
          "092716.267500",
          "092717.757500",
          "092719.247500",
          "092720.737500",
          "092722.227500",
          "092723.717500",
          "092725.207500",
          "092726.697500",
          "092728.187500",
          "092729.677500",
          "092731.167500",
          "092732.657500",
          "092734.147500",
          "092735.637500",
          "092737.127500",
          "092738.617500",
          "092740.107500",
          "092741.597500",
          "092743.087500",
          "092744.577500",
          "092746.067500",
          "092747.557500",
          "092749.047500",
          "092750.537500",
          "092752.027500",
          "092753.517500",
          "092755.007500",
          "092756.497500",
          "092757.987500",
          "092759.477500",
          "092800.967500",
          "092802.457500",
          "092803.947500",
          "092805.437500",
          "092806.927500",
          "092808.417500",
          "092809.907500",
          "092811.397500",
          "092812.887500",
          "092814.377500",
          "092815.867500",
          "092817.357500",
          "092818.847500",
          "092820.337500",
          "092821.827500",
          "092823.317500",
          "092824.807500",
          "092826.297500",
          "092827.787500",
          "092829.277500",
          "092830.767500",
          "092832.257500",
          "092833.747500",
          "092835.237500",
          "092836.727500",
          "092838.217500",
          "092839.707500",
          "092841.197500",
          "092842.687500",
          "092844.177500",
          "092845.667500",
          "092847.157500",
          "092848.647500",
          "092850.137500",
          "092851.627500",
          "092853.117500",
          "092854.607500",
          "092856.097500",
          "092857.587500",
          "092859.077500",
          "092900.567500",
          "092902.057500",
          "092903.547500",
          "092905.037500",
          "092906.527500",
          "092908.017500",
          "092909.507500",
          "092910.997500",
          "092912.487500",
          "092913.977500",
          "092915.467500",
          "092916.957500",
          "092918.447500",
          "092919.937500",
          "092921.427500",
          "092922.917500",
          "092924.407500",
          "092925.897500",
          "092927.387500",
          "092928.877500",
          "092930.367500",
          "092931.857500",
          "092933.347500",
          "092934.837500",
          "092936.327500",
          "092937.817500",
          "092939.307500",
          "092940.797500",
          "092942.287500",
          "092943.777500",
          "092945.267500",
          "092946.757500",
          "092948.247500",
          "092949.737500",
          "092951.227500",
          "092952.717500",
          "092954.207500",
          "092955.697500",
          "092957.187500",
          "092958.677500",
          "093000.167500",
          "093001.657500",
          "093003.147500",
          "093004.637500",
          "093006.127500",
          "093007.617500",
          "093009.107500",
          "093010.597500",
          "093012.087500",
          "093013.577500",
          "093015.067500",
          "093016.557500",
          "093018.047500",
          "093019.537500",
          "093021.027500",
          "093022.517500",
          "093024.007500",
          "093025.497500",
          "093026.987500",
          "093028.477500",
          "093029.967500",
          "093031.457500",
          "093032.947500",
          "093034.437500",
          "093035.927500",
          "093037.417500",
          "093038.907500",
          "093040.397500",
          "093041.887500",
          "093043.377500",
          "093044.867500",
          "093046.357500",
          "093047.847500",
          "093049.337500",
          "093050.827500",
          "093052.317500",
          "093053.807500",
          "093055.297500",
          "093056.787500",
          "093058.277500",
          "093059.767500",
          "093101.257500",
          "093102.747500",
          "093104.237500",
          "093105.727500",
          "093107.217500",
          "093108.707500",
          "093110.197500",
          "093111.687500",
          "093113.177500",
          "093114.667500",
          "093116.157500",
          "093117.647500",
          "093119.137500",
          "093120.627500",
          "093122.117500",
          "093123.607500",
          "093125.097500",
          "093126.587500",
          "093128.077500",
          "093129.567500",
          "093131.057500",
          "093132.547500",
          "093134.037500",
          "093135.527500",
          "093137.017500",
          "093138.507500",
          "093139.997500",
          "093141.487500",
          "093142.977500",
          "093144.467500",
          "093145.957500",
          "093147.447500",
          "093148.937500",
          "093150.427500",
          "093151.917500",
          "093153.407500",
          "093154.897500",
          "093156.387500",
          "093157.877500",
          "093159.367500",
          "093200.857500",
          "093202.347500",
          "093203.837500",
          "093205.327500",
          "093206.817500",
          "093208.307500",
          "093209.797500",
          "093211.287500",
          "093212.777500",
          "093214.267500",
          "093215.757500",
          "093217.247500",
          "093218.737500",
          "093220.227500",
          "093221.717500",
          "093223.207500",
          "093224.697500",
          "093226.187500",
          "093227.677500",
          "093229.167500",
          "093230.657500",
          "093232.147500",
          "093233.637500",
          "093235.127500",
          "093236.617500",
          "093238.107500",
          "093239.597500",
          "093241.087500",
          "093242.577500",
          "093244.067500",
          "093245.557500",
          "093247.047500",
          "093248.537500",
          "093250.027500",
          "093251.517500",
          "093253.007500",
          "093254.497500",
          "093255.987500",
          "093257.477500",
          "093258.967500",
          "093300.457500",
          "093301.947500",
          "093303.437500",
          "093304.927500",
          "093306.417500",
          "093307.907500",
          "093309.397500",
          "093310.887500",
          "093312.377500",
          "093313.867500",
          "093315.357500",
          "093316.847500",
          "093318.337500",
          "093319.827500",
          "093321.317500",
          "093322.807500",
          "093324.297500",
          "093325.787500",
          "093327.277500",
          "093328.767500",
          "093330.257500",
          "093331.747500",
          "093333.237500",
          "093334.727500",
          "093336.217500",
          "093337.707500",
          "093339.197500",
          "093340.687500",
          "093342.177500",
          "093343.667500",
          "093345.157500",
          "093346.647500",
          "093348.137500",
          "093349.627500",
          "093351.117500",
          "093352.607500",
          "093354.097500",
          "093355.587500",
          "093357.077500",
          "093358.567500",
          "093400.057500",
          "093401.547500",
          "093403.037500",
          "093404.527500",
          "093406.017500",
          "093407.507500",
          "093408.997500",
          "093410.487500",
          "093411.977500",
          "093413.467500",
          "093414.957500",
          "093416.447500",
          "093417.937500",
          "093419.427500",
          "093420.917500",
          "093422.407500",
          "093423.897500",
          "093425.387500",
          "093426.877500",
          "093428.367500",
          "093429.857500",
          "093431.347500",
          "093432.837500",
          "093434.327500",
          "093435.817500",
          "093437.307500",
          "093438.797500",
          "093440.287500",
          "093441.777500",
          "093443.267500",
          "093444.757500",
          "093446.247500",
          "093447.737500",
          "093449.227500",
          "093450.717500",
          "093452.207500",
          "093453.697500",
          "093455.187500",
          "093456.677500",
          "093458.167500",
          "093459.657500",
          "093501.147500",
          "093502.637500",
          "093504.127500",
          "093505.617500",
          "093507.107500",
          "093508.597500",
          "093510.087500",
          "093511.577500",
          "093513.067500",
          "093514.557500",
          "093516.047500",
          "093517.537500",
          "093519.027500",
          "093520.517500",
          "093522.007500",
          "093523.497500",
          "093524.987500",
          "093526.477500",
          "093527.967500",
          "093529.457500",
          "093530.947500",
          "093532.437500",
          "093533.927500",
          "093535.417500",
          "093536.907500",
          "093538.397500",
          "093539.887500",
          "093541.377500",
          "093542.867500",
          "093544.357500",
          "093545.847500",
          "093547.337500",
          "093548.827500",
          "093550.317500",
          "093551.807500",
          "093553.297500",
          "093554.787500",
          "093556.277500",
          "093557.767500",
          "093559.257500",
          "093600.747500",
          "093602.237500",
          "093603.727500",
          "093605.217500",
          "093606.707500",
          "093608.197500",
          "093609.687500",
          "093611.177500",
          "093612.667500",
          "093614.157500",
          "093615.647500",
          "093617.137500",
          "093618.627500",
          "093620.117500",
          "093621.607500",
          "093623.097500",
          "093624.587500",
          "093626.077500",
          "093627.567500",
          "093629.057500",
          "093630.547500",
          "093632.037500",
          "093633.527500",
          "093635.017500",
          "093636.507500",
          "093637.997500",
          "093639.487500",
          "093640.977500",
          "093642.467500",
          "093643.957500",
          "093645.447500",
          "093646.937500",
          "093648.427500",
          "093649.917500",
          "093651.407500",
          "093652.897500",
          "093654.387500",
          "093655.877500",
          "093657.367500",
          "093658.857500",
          "093700.347500",
          "093701.837500",
          "093703.327500",
          "093704.817500",
          "093706.307500",
          "093707.797500",
          "093709.287500",
          "093710.777500",
          "093712.267500",
          "093713.757500",
          "093715.247500",
          "093716.737500",
          "093718.227500",
          "093719.717500",
          "093721.207500"
        ],
        "ContentTime": [
          "092847.811000",
          "092847.814000",
          "092847.817000",
          "092847.820000",
          "092847.823000",
          "092847.826000",
          "092847.829000",
          "092847.832000",
          "092847.835000",
          "092847.837000",
          "092847.840000",
          "092847.843000",
          "092847.846000",
          "092847.849000",
          "092847.852000",
          "092847.854000",
          "092847.857000",
          "092847.860000",
          "092847.863000",
          "092847.866000",
          "092847.869000",
          "092847.871000",
          "092847.874000",
          "092847.877000",
          "092847.880000",
          "092847.883000",
          "092847.886000",
          "092847.889000",
          "092847.892000",
          "092847.894000",
          "092847.897000",
          "092847.900000",
          "092847.908000",
          "092847.911000",
          "092847.914000",
          "092847.917000",
          "092847.920000",
          "092847.923000",
          "092847.925000",
          "092907.782000",
          "092907.785000",
          "092907.788000",
          "092907.791000",
          "092907.794000",
          "092907.797000",
          "092907.800000",
          "092907.803000",
          "092907.805000",
          "092907.808000",
          "092907.811000",
          "092907.814000",
          "092907.817000",
          "092907.820000",
          "092907.823000",
          "092907.826000",
          "092907.828000",
          "092907.831000",
          "092907.834000",
          "092907.837000",
          "092927.782000",
          "092927.785000",
          "092927.788000",
          "092927.791000",
          "092927.793000",
          "092927.796000",
          "092927.799000",
          "092927.802000",
          "092927.805000",
          "092927.807000",
          "092927.810000",
          "092927.813000",
          "092927.816000",
          "092927.819000",
          "092927.821000",
          "092927.824000",
          "092927.827000",
          "092927.830000",
          "092927.833000",
          "092927.836000",
          "092947.783000",
          "092947.797000",
          "092947.800000",
          "092947.802000",
          "092947.805000",
          "092947.808000",
          "092947.811000",
          "092947.814000",
          "092947.816000",
          "092947.819000",
          "092947.822000",
          "092947.840000",
          "092947.843000",
          "092947.845000",
          "092947.848000",
          "092947.851000",
          "092947.854000",
          "092947.857000",
          "092947.859000",
          "092947.862000",
          "093027.783000",
          "093027.786000",
          "093027.789000",
          "093027.792000",
          "093027.795000",
          "093027.797000",
          "093027.800000",
          "093027.803000",
          "093027.806000",
          "093027.809000",
          "093027.812000",
          "093027.814000",
          "093027.817000",
          "093027.820000",
          "093027.823000",
          "093027.825000",
          "093027.828000",
          "093027.831000",
          "093027.834000",
          "093027.837000",
          "093027.840000",
          "093027.843000",
          "093027.845000",
          "093027.848000",
          "093027.851000",
          "093027.854000",
          "093027.857000",
          "093027.860000",
          "093027.862000",
          "093027.865000",
          "093107.783000",
          "093107.786000",
          "093107.789000",
          "093107.792000",
          "093107.794000",
          "093107.797000",
          "093107.800000",
          "093107.803000",
          "093107.806000",
          "093107.809000",
          "093107.812000",
          "093107.815000",
          "093107.818000",
          "093107.820000",
          "093107.823000",
          "093107.826000",
          "093107.829000",
          "093107.832000",
          "093107.835000",
          "093107.838000",
          "093107.841000",
          "093107.844000",
          "093107.846000",
          "093107.849000",
          "093107.852000",
          "093107.855000",
          "093107.858000",
          "093147.782000",
          "093147.785000",
          "093147.788000",
          "093147.791000",
          "093147.793000",
          "093147.796000",
          "093147.800000",
          "093147.803000",
          "093147.806000",
          "093147.809000",
          "093147.811000",
          "093147.814000",
          "093147.817000",
          "093147.820000",
          "093147.823000",
          "093147.826000",
          "093147.829000",
          "093147.832000",
          "093147.835000",
          "093147.838000",
          "093147.841000",
          "093147.844000",
          "093147.847000",
          "093147.849000",
          "093147.852000",
          "093147.855000",
          "093147.858000",
          "093227.783000",
          "093227.786000",
          "093227.789000",
          "093227.792000",
          "093227.795000",
          "093227.799000",
          "093227.802000",
          "093227.805000",
          "093227.807000",
          "093227.810000",
          "093227.813000",
          "093227.816000",
          "093227.819000",
          "093227.822000",
          "093227.825000",
          "093227.828000",
          "093227.830000",
          "093227.833000",
          "093227.836000",
          "093227.839000",
          "093227.842000",
          "093227.845000",
          "093227.847000",
          "093227.850000",
          "093227.853000",
          "093227.856000",
          "093227.859000",
          "093307.783000",
