{
  "aor": 0.0011792345679012344,
  "aqi": 0.006682874419753086,
  "bids_meta": {
    "AcquisitionMatrixPE": 104,
    "AcquisitionNumber": 1,
    "AcquisitionTime": "18:44:9.557500",
    "BandwidthPerPixelPhaseEncode": 17.17,
    "BaseResolution": 104,
    "BodyPartExamined": "BRAIN",
    "CogAtlasID": "trm_4c898da401420",
    "ConsistencyInfo": "N4_VE11C_LATEST_20160120",
    "ConversionSoftware": "dcm2niix",
    "ConversionSoftwareVersion": "v1.0.20171215 (OpenJPEG build) GCC7.3.0",
    "DerivedVendorReportedEchoSpacing": 0.000560011,
    "DeviceSerialNumber": "167006",
    "DwellTime": 2.1e-06,
    "EchoTime": 0.037,
    "EchoTrainLength": 104,
    "EffectiveEchoSpacing": 0.000560011,
    "FlipAngle": 52,
    "ImageComments": "Unaliased_MB4_PE3_LB",
    "ImageOrientationPatientDICOM": [
      0.999516,
      0.00634427,
      -0.030469,
      -0.0160506,
      0.943844,
      -0.330002
    ],
    "ImageType": [
      "ORIGINAL",
      "PRIMARY",
      "M",
      "MB",
      "ND",
      "MOSAIC"
    ],
    "InPlanePhaseEncodingDirectionDICOM": "COL",
    "InstitutionAddress": "Chemin_Queen-Mary_4565_Montreal_District_CA_H3W_1W5",
    "InstitutionName": "IUGM",
    "InstitutionalDepartmentName": "Department",
    "MRAcquisitionType": "2D",
    "MagneticFieldStrength": 3,
    "Manufacturer": "Siemens",
    "ManufacturersModelName": "Prisma_fit",
    "Modality": "MR",
    "MultibandAccelerationFactor": 4,
    "PartialFourier": 1,
    "PatientPosition": "HFS",
    "PercentPhaseFOV": 100,
    "PhaseEncodingDirection": "j-",
    "PhaseEncodingSteps": 104,
    "PhaseResolution": 1,
    "PixelBandwidth": 2290,
    "ProcedureStepDescription": "video5_generic",
    "ProtocolName": "func_task-wolf8",
    "PulseSequenceDetails": "%CustomerSeq%_cmrr_mbep2d_bold",
    "ReceiveCoilActiveElements": "HC1-7;NC1,2",
    "ReceiveCoilName": "HeadNeck_64",
    "ReconMatrixPE": 104,
    "RepetitionTime": 1.49,
    "SAR": 0.0336836,
    "ScanOptions": "FS",
    "ScanningSequence": "EP",
    "SequenceName": "epfid2d1_104",
    "SequenceVariant": "SK_SS",
    "SeriesDescription": "func_task-wolf8",
    "SeriesNumber": 15,
    "ShimSetting": [
      611,
      -7242,
      -8875,
      377,
      27,
      -353,
      22,
      8
    ],
    "SliceThickness": 2,
    "SliceTiming": [
      0,
      0.785,
      0.0975,
      0.8825,
      0.1975,
      0.98,
      0.295,
      1.0775,
      0.3925,
      1.1775,
      0.49,
      1.275,
      0.5875,
      1.3725,
      0.6875,
      0,
      0.785,
      0.0975,
      0.8825,
      0.1975,
      0.98,
      0.295,
      1.0775,
      0.3925,
      1.1775,
      0.49,
      1.275,
      0.5875,
      1.3725,
      0.6875,
      0,
      0.785,
      0.0975,
      0.8825,
      0.1975,
      0.98,
      0.295,
      1.0775,
      0.3925,
      1.1775,
      0.49,
      1.275,
      0.5875,
      1.3725,
      0.6875,
      0,
      0.785,
      0.0975,
      0.8825,
      0.1975,
      0.98,
      0.295,
      1.0775,
      0.3925,
      1.1775,
      0.49,
      1.275,
      0.5875,
      1.3725,
      0.6875
    ],
    "SoftwareVersions": "syngo_MR_E11",
    "SpacingBetweenSlices": 2,
    "StationName": "MRC35049",
    "TaskName": "wolf08",
    "TotalReadoutTime": 0.0576811,
    "TxRefAmp": 234.504,
    "dataset": "<unset>",
    "dcmmeta_affine": [
      [
        -1.9990311861038208,
        -0.032101187855005264,
        -0.053328655660152435,
        105.56680297851562
      ],
      [
        -0.012688538059592247,
        1.8876875638961792,
        -0.6606622934341431,
        -62.13612747192383
      ],
      [
        -0.060937944799661636,
        0.6600039005279541,
        1.8869768381118774,
        -72.28527069091797
      ],
      [
        0.0,
        0.0,
        0.0,
        1.0
      ]
    ],
    "dcmmeta_reorient_transform": [
      [
        0.0,
        -1.0,
        0.0,
        103.0
      ],
      [
        1.0,
        0.0,
        0.0,
        0.0
      ],
      [
        0.0,
        0.0,
        1.0,
        0.0
      ],
      [
        0.0,
        0.0,
        0.0,
        1.0
      ]
    ],
    "dcmmeta_shape": [
      104,
      104,
      60,
      406
    ],
    "dcmmeta_slice_dim": 2,
    "dcmmeta_version": 0.6,
    "global": {
      "const": {
        "AcquisitionMatrix": [
          104,
          0,
          0,
          104
        ],
        "AngioFlag": "N",
        "BitsAllocated": 16,
        "BitsStored": 16,
        "BodyPartExamined": "BRAIN",
        "Columns": 832,
        "EchoNumbers": 1,
        "EchoTime": 37.0,
        "EchoTrainLength": 104,
        "FlipAngle": 52.0,
        "HighBit": 15,
        "ImageOrientationPatient": [
          0.99951557867178,
          0.00634426904368,
          -0.0304689718028,
          -0.0160505943564,
          0.94384378442554,
          -0.330001953058
        ],
        "ImagePositionPatient": [
          -818.22288651977,
          -824.0325957403,
          258.11796716848
        ],
        "ImageType": [
          "ORIGINAL",
          "PRIMARY",
          "M",
          "MB",
          "ND",
          "MOSAIC"
        ],
        "ImagedNucleus": "1H",
        "ImagingFrequency": 123.259235,
        "InPlanePhaseEncodingDirection": "COL",
        "MRAcquisitionType": "2D",
        "MagneticFieldStrength": 3.0,
        "Manufacturer": "SIEMENS",
        "ManufacturerModelName": "Prisma_fit",
        "Modality": "MR",
        "NumberOfAverages": 1.0,
        "NumberOfPhaseEncodingSteps": 104,
        "PercentPhaseFieldOfView": 100.0,
        "PercentSampling": 100.0,
        "PerformedProcedureStepStartTime": "174610.934000",
        "PhotometricInterpretation": "MONOCHROME2",
        "PixelBandwidth": 2290.0,
        "PixelRepresentation": 0,
        "PixelSpacing": [
          2.0,
          2.0
        ],
        "ProtocolName": "func_task-wolf8",
        "RepetitionTime": 1490.0,
        "Rows": 832,
        "SAR": 0.03368357782121,
        "SamplesPerPixel": 1,
        "ScanOptions": "FS",
        "ScanningSequence": "EP",
        "SequenceName": "epfid2d1_104",
        "SequenceVariant": [
          "SK",
          "SS"
        ],
        "SeriesDescription": "func_task-wolf8",
        "SeriesNumber": 15,
        "SeriesTime": "184517.693000",
        "SliceLocation": -50.489682330204,
        "SliceThickness": 2.0,
        "SmallestImagePixelValue": 0,
        "SoftwareVersions": "syngo MR E11",
        "SpacingBetweenSlices": 1.9999999950406,
        "SpecificCharacterSet": "ISO_IR 100",
        "StudyID": "1",
        "StudyTime": "174610.804000",
        "TransmitCoilName": "Body",
        "VariableFlipAngleFlag": "N",
        "WindowCenterWidthExplanation": "Algo1",
        "dBdt": 0.0
      },
      "slices": {}
    },
    "modality": "bold",
    "session_id": "005",
    "subject_id": "05",
    "task_id": "wolf08",
    "time": {
      "samples": {
        "AcquisitionNumber": [
          1,
          2,
          3,
          4,
          5,
          6,
          7,
          8,
          9,
          10,
          11,
          12,
          13,
          14,
          15,
          16,
          17,
          18,
          19,
          20,
          21,
          22,
          23,
          24,
          25,
          26,
          27,
          28,
          29,
          30,
          31,
          32,
          33,
          34,
          35,
          36,
          37,
          38,
          39,
          40,
          41,
          42,
          43,
          44,
          45,
          46,
          47,
          48,
          49,
          50,
          51,
          52,
          53,
          54,
          55,
          56,
          57,
          58,
          59,
          60,
          61,
          62,
          63,
          64,
          65,
          66,
          67,
          68,
          69,
          70,
          71,
          72,
          73,
          74,
          75,
          76,
          77,
          78,
          79,
          80,
          81,
          82,
          83,
          84,
          85,
          86,
          87,
          88,
          89,
          90,
          91,
          92,
          93,
          94,
          95,
          96,
          97,
          98,
          99,
          100,
          101,
          102,
          103,
          104,
          105,
          106,
          107,
          108,
          109,
          110,
          111,
          112,
          113,
          114,
          115,
          116,
          117,
          118,
          119,
          120,
          121,
          122,
          123,
          124,
          125,
          126,
          127,
          128,
          129,
          130,
          131,
          132,
          133,
          134,
          135,
          136,
          137,
          138,
          139,
          140,
          141,
          142,
          143,
          144,
          145,
          146,
          147,
          148,
          149,
          150,
          151,
          152,
          153,
          154,
          155,
          156,
          157,
          158,
          159,
          160,
          161,
          162,
          163,
          164,
          165,
          166,
          167,
          168,
          169,
          170,
          171,
          172,
          173,
          174,
          175,
          176,
          177,
          178,
          179,
          180,
          181,
          182,
          183,
          184,
          185,
          186,
          187,
          188,
          189,
          190,
          191,
          192,
          193,
          194,
          195,
          196,
          197,
          198,
          199,
          200,
          201,
          202,
          203,
          204,
          205,
          206,
          207,
          208,
          209,
          210,
          211,
          212,
          213,
          214,
          215,
          216,
          217,
          218,
          219,
          220,
          221,
          222,
          223,
          224,
          225,
          226,
          227,
          228,
          229,
          230,
          231,
          232,
          233,
          234,
          235,
          236,
          237,
          238,
          239,
          240,
          241,
          242,
          243,
          244,
          245,
          246,
          247,
          248,
          249,
          250,
          251,
          252,
          253,
          254,
          255,
          256,
          257,
          258,
          259,
          260,
          261,
          262,
          263,
          264,
          265,
          266,
          267,
          268,
          269,
          270,
          271,
          272,
          273,
          274,
          275,
          276,
          277,
          278,
          279,
          280,
          281,
          282,
          283,
          284,
          285,
          286,
          287,
          288,
          289,
          290,
          291,
          292,
          293,
          294,
          295,
          296,
          297,
          298,
          299,
          300,
          301,
          302,
          303,
          304,
          305,
          306,
          307,
          308,
          309,
          310,
          311,
          312,
          313,
          314,
          315,
          316,
          317,
          318,
          319,
          320,
          321,
          322,
          323,
          324,
          325,
          326,
          327,
          328,
          329,
          330,
          331,
          332,
          333,
          334,
          335,
          336,
          337,
          338,
          339,
          340,
          341,
          342,
          343,
          344,
          345,
          346,
          347,
          348,
          349,
          350,
          351,
          352,
          353,
          354,
          355,
          356,
          357,
          358,
          359,
          360,
          361,
          362,
          363,
          364,
          365,
          366,
          367,
          368,
          369,
          370,
          371,
          372,
          373,
          374,
          375,
          376,
          377,
          378,
          379,
          380,
          381,
          382,
          383,
          384,
          385,
          386,
          387,
          388,
          389,
          390,
          391,
          392,
          393,
          394,
          395,
          396,
          397,
          398,
          399,
          400,
          401,
          402,
          403,
          404,
          405,
          406
        ],
        "AcquisitionTime": [
          "184409.557500",
          "184411.047500",
          "184412.537500",
          "184414.027500",
          "184415.517500",
          "184417.007500",
          "184418.497500",
          "184419.987500",
          "184421.477500",
          "184422.967500",
          "184424.457500",
          "184425.947500",
          "184427.437500",
          "184428.927500",
          "184430.417500",
          "184431.907500",
          "184433.397500",
          "184434.887500",
          "184436.377500",
          "184437.867500",
          "184439.357500",
          "184440.847500",
          "184442.337500",
          "184443.827500",
          "184445.317500",
          "184446.807500",
          "184448.297500",
          "184449.787500",
          "184451.277500",
          "184452.767500",
          "184454.257500",
          "184455.747500",
          "184457.237500",
          "184458.727500",
          "184500.217500",
          "184501.707500",
          "184503.197500",
          "184504.687500",
          "184506.177500",
          "184507.667500",
          "184509.157500",
          "184510.647500",
          "184512.137500",
          "184513.627500",
          "184515.117500",
          "184516.607500",
          "184518.097500",
          "184519.587500",
          "184521.077500",
          "184522.567500",
          "184524.057500",
          "184525.547500",
          "184527.037500",
          "184528.527500",
          "184530.017500",
          "184531.507500",
          "184532.997500",
          "184534.487500",
          "184535.977500",
          "184537.467500",
          "184538.957500",
          "184540.447500",
          "184541.937500",
          "184543.427500",
          "184544.917500",
          "184546.407500",
          "184547.897500",
          "184549.387500",
          "184550.877500",
          "184552.367500",
          "184553.857500",
          "184555.347500",
          "184556.837500",
          "184558.327500",
          "184559.817500",
          "184601.307500",
          "184602.797500",
          "184604.287500",
          "184605.777500",
          "184607.267500",
          "184608.757500",
          "184610.247500",
          "184611.737500",
          "184613.227500",
          "184614.717500",
          "184616.207500",
          "184617.697500",
          "184619.187500",
          "184620.677500",
          "184622.167500",
          "184623.657500",
          "184625.147500",
          "184626.637500",
          "184628.127500",
          "184629.617500",
          "184631.107500",
          "184632.597500",
          "184634.087500",
          "184635.577500",
          "184637.067500",
          "184638.557500",
          "184640.047500",
          "184641.537500",
          "184643.027500",
          "184644.517500",
          "184646.007500",
          "184647.497500",
          "184648.987500",
          "184650.477500",
          "184651.967500",
          "184653.457500",
          "184654.947500",
          "184656.437500",
          "184657.927500",
          "184659.417500",
          "184700.907500",
          "184702.397500",
          "184703.887500",
          "184705.377500",
          "184706.867500",
          "184708.357500",
          "184709.847500",
          "184711.337500",
          "184712.827500",
          "184714.317500",
          "184715.807500",
          "184717.297500",
          "184718.787500",
          "184720.277500",
          "184721.767500",
          "184723.257500",
          "184724.747500",
          "184726.237500",
          "184727.727500",
          "184729.217500",
          "184730.707500",
          "184732.197500",
          "184733.687500",
          "184735.177500",
          "184736.667500",
          "184738.157500",
          "184739.647500",
          "184741.137500",
          "184742.627500",
          "184744.117500",
          "184745.607500",
          "184747.097500",
          "184748.587500",
          "184750.077500",
          "184751.567500",
          "184753.057500",
          "184754.547500",
          "184756.037500",
          "184757.527500",
          "184759.017500",
          "184800.507500",
          "184801.997500",
          "184803.487500",
          "184804.977500",
          "184806.467500",
          "184807.957500",
          "184809.447500",
          "184810.937500",
          "184812.427500",
          "184813.917500",
          "184815.407500",
          "184816.897500",
          "184818.387500",
          "184819.877500",
          "184821.367500",
          "184822.857500",
          "184824.347500",
          "184825.837500",
          "184827.327500",
          "184828.817500",
          "184830.307500",
          "184831.797500",
          "184833.287500",
          "184834.777500",
          "184836.267500",
          "184837.757500",
          "184839.247500",
          "184840.737500",
          "184842.227500",
          "184843.717500",
          "184845.207500",
          "184846.697500",
          "184848.187500",
          "184849.677500",
          "184851.167500",
          "184852.657500",
          "184854.147500",
          "184855.637500",
          "184857.127500",
          "184858.617500",
          "184900.107500",
          "184901.597500",
          "184903.087500",
          "184904.577500",
          "184906.067500",
          "184907.557500",
          "184909.047500",
          "184910.537500",
          "184912.027500",
          "184913.517500",
          "184915.007500",
          "184916.497500",
          "184917.987500",
          "184919.477500",
          "184920.967500",
          "184922.457500",
          "184923.947500",
          "184925.437500",
          "184926.927500",
          "184928.417500",
          "184929.907500",
          "184931.397500",
          "184932.887500",
          "184934.377500",
          "184935.867500",
          "184937.357500",
          "184938.847500",
          "184940.337500",
          "184941.827500",
          "184943.317500",
          "184944.807500",
          "184946.297500",
          "184947.787500",
          "184949.277500",
          "184950.767500",
          "184952.257500",
          "184953.747500",
          "184955.237500",
          "184956.727500",
          "184958.217500",
          "184959.707500",
          "185001.197500",
          "185002.687500",
          "185004.177500",
          "185005.667500",
          "185007.157500",
          "185008.647500",
          "185010.137500",
          "185011.627500",
          "185013.117500",
          "185014.607500",
          "185016.097500",
          "185017.587500",
          "185019.077500",
          "185020.567500",
          "185022.057500",
          "185023.547500",
          "185025.037500",
          "185026.527500",
          "185028.017500",
          "185029.507500",
          "185030.997500",
          "185032.487500",
          "185033.977500",
          "185035.467500",
          "185036.957500",
          "185038.447500",
          "185039.937500",
          "185041.427500",
          "185042.917500",
          "185044.407500",
          "185045.897500",
          "185047.387500",
          "185048.877500",
          "185050.367500",
          "185051.857500",
          "185053.347500",
          "185054.837500",
          "185056.327500",
          "185057.817500",
          "185059.307500",
          "185100.797500",
          "185102.287500",
          "185103.777500",
          "185105.267500",
          "185106.757500",
          "185108.247500",
          "185109.737500",
          "185111.227500",
          "185112.717500",
          "185114.207500",
          "185115.697500",
          "185117.187500",
          "185118.677500",
          "185120.167500",
          "185121.657500",
          "185123.147500",
          "185124.637500",
          "185126.127500",
          "185127.617500",
          "185129.107500",
          "185130.597500",
          "185132.087500",
          "185133.577500",
          "185135.067500",
          "185136.557500",
          "185138.047500",
          "185139.537500",
          "185141.027500",
          "185142.517500",
          "185144.007500",
          "185145.497500",
          "185146.987500",
          "185148.477500",
          "185149.967500",
          "185151.457500",
          "185152.947500",
          "185154.437500",
          "185155.927500",
          "185157.417500",
          "185158.907500",
          "185200.397500",
          "185201.887500",
          "185203.377500",
          "185204.867500",
          "185206.357500",
          "185207.847500",
          "185209.337500",
          "185210.827500",
          "185212.317500",
          "185213.807500",
          "185215.297500",
          "185216.787500",
          "185218.277500",
          "185219.767500",
          "185221.257500",
          "185222.747500",
          "185224.237500",
          "185225.727500",
          "185227.217500",
          "185228.707500",
          "185230.197500",
          "185231.687500",
          "185233.177500",
          "185234.667500",
          "185236.157500",
          "185237.647500",
          "185239.137500",
          "185240.627500",
          "185242.117500",
          "185243.607500",
          "185245.097500",
          "185246.587500",
          "185248.077500",
          "185249.567500",
          "185251.057500",
          "185252.547500",
          "185254.037500",
          "185255.527500",
          "185257.017500",
          "185258.507500",
          "185259.997500",
          "185301.487500",
          "185302.977500",
          "185304.467500",
          "185305.957500",
          "185307.447500",
          "185308.937500",
          "185310.427500",
          "185311.917500",
          "185313.407500",
          "185314.897500",
          "185316.387500",
          "185317.877500",
          "185319.367500",
          "185320.857500",
          "185322.347500",
          "185323.837500",
          "185325.327500",
          "185326.817500",
          "185328.307500",
          "185329.797500",
          "185331.287500",
          "185332.777500",
          "185334.267500",
          "185335.757500",
          "185337.247500",
          "185338.737500",
          "185340.227500",
          "185341.717500",
          "185343.207500",
          "185344.697500",
          "185346.187500",
          "185347.677500",
          "185349.167500",
          "185350.657500",
          "185352.147500",
          "185353.637500",
          "185355.127500",
          "185356.617500",
          "185358.107500",
          "185359.597500",
          "185401.087500",
          "185402.577500",
          "185404.067500",
          "185405.557500",
          "185407.047500",
          "185408.537500",
          "185410.027500",
          "185411.517500",
          "185413.007500"
        ],
        "ContentTime": [
          "184517.697000",
          "184517.700000",
          "184517.703000",
          "184517.706000",
          "184517.709000",
          "184517.711000",
          "184517.714000",
          "184517.717000",
          "184517.720000",
          "184517.723000",
          "184517.726000",
          "184517.729000",
          "184517.738000",
          "184517.741000",
          "184537.661000",
          "184537.664000",
          "184537.667000",
          "184537.670000",
          "184537.672000",
          "184537.675000",
          "184537.678000",
          "184537.681000",
          "184537.684000",
          "184537.686000",
          "184537.689000",
          "184537.702000",
          "184537.705000",
          "184537.708000",
          "184537.710000",
          "184537.713000",
          "184537.716000",
          "184537.719000",
          "184537.722000",
          "184537.725000",
          "184557.660000",
          "184557.671000",
          "184557.674000",
          "184557.677000",
          "184557.679000",
          "184557.682000",
          "184557.685000",
          "184557.688000",
          "184557.691000",
          "184557.694000",
          "184557.696000",
          "184557.699000",
          "184557.702000",
          "184557.705000",
          "184557.708000",
          "184557.711000",
          "184557.713000",
          "184557.716000",
          "184557.719000",
          "184557.722000",
          "184557.725000",
          "184617.660000",
          "184617.663000",
          "184617.666000",
          "184617.668000",
          "184617.671000",
          "184617.674000",
          "184617.677000",
          "184617.680000",
          "184617.683000",
          "184617.685000",
          "184617.688000",
          "184617.691000",
          "184617.694000",
          "184617.697000",
          "184617.700000",
          "184617.702000",
          "184617.705000",
          "184617.708000",
          "184617.711000",
          "184617.714000",
          "184637.660000",
          "184637.663000",
          "184637.666000",
          "184637.668000",
          "184637.672000",
          "184637.674000",
          "184637.677000",
          "184637.680000",
          "184637.683000",
          "184637.686000",
          "184637.688000",
          "184637.691000",
          "184637.694000",
          "184637.697000",
          "184637.700000",
          "184637.702000",
          "184637.705000",
          "184637.708000",
          "184637.711000",
          "184637.714000",
          "184717.660000",
          "184717.663000",
          "184717.666000",
          "184717.669000",
          "184717.672000",
          "184717.674000",
          "184717.677000",
          "184717.680000",
          "184717.683000",
          "184717.686000",
          "184717.689000",
          "184717.707000",
          "184717.710000",
          "184717.713000",
          "184717.716000",
          "184717.719000",
          "184717.721000",
          "184717.724000",
          "184717.727000",
          "184717.730000",
          "184717.733000",
          "184717.735000",
          "184717.738000",
          "184717.741000",
          "184717.744000",
          "184717.747000",
          "184717.750000",
          "184717.753000",
          "184717.756000",
          "184717.758000",
          "184717.761000",
          "184757.661000",
          "184757.664000",
          "184757.667000",
          "184757.670000",
          "184757.673000",
          "184757.676000",
          "184757.678000",
          "184757.682000",
          "184757.684000",
          "184757.687000",
          "184757.690000",
          "184757.694000",
          "184757.697000",
          "184757.700000",
          "184757.703000",
          "184757.706000",
          "184757.709000",
          "184757.712000",
          "184757.715000",
          "184757.718000",
          "184757.721000",
          "184757.724000",
          "184757.727000",
          "184757.730000",
          "184757.733000",
          "184757.736000",
          "184837.660000",
          "184837.663000",
          "184837.666000",
          "184837.669000",
          "184837.671000",
          "184837.674000",
          "184837.686000",
          "184837.688000",
          "184837.691000",
          "184837.694000",
          "184837.697000",
          "184837.700000",
          "184837.703000",
          "184837.705000",
          "184837.708000",
          "184837.711000",
          "184837.714000",
          "184837.717000",
          "184837.719000",
          "184837.722000",
          "184837.725000",
          "184837.728000",
          "184837.731000",
          "184837.734000",
          "184837.736000",
          "184837.739000",
          "184837.742000",
          "184917.660000",
          "184917.664000",
          "184917.666000",
          "184917.669000",
          "184917.672000",
          "184917.675000",
          "184917.678000",
          "184917.680000",
          "184917.683000",
          "184917.686000",
          "184917.689000",
          "184917.692000",
          "184917.695000",
          "184917.698000",
          "184917.700000",
          "184917.703000",
          "184917.706000",
          "184917.709000",
          "184917.712000",
          "184917.715000",
          "184917.717000",
          "184917.720000",
          "184917.723000",
          "184917.726000",
          "184917.729000",
          "184917.732000",
          "184917.734000",
          "184957.660000",
          "184957.663000",
          "184957.666000",
          "184957.669000",
          "184957.672000",
          "184957.674000",
          "184957.677000",
          "184957.680000",
          "184957.683000",
          "184957.686000",
          "184957.688000",
          "184957.691000",
          "184957.694000",
          "184957.697000",
          "184957.700000",
          "184957.703000",
          "184957.705000",
