{
  "aor": 0.0004512406947890819,
  "aqi": 0.008571704590570718,
  "bids_meta": {
    "AcquisitionMatrixPE": 104,
    "AcquisitionNumber": 1,
    "AcquisitionTime": "19:08:15.977500",
    "BandwidthPerPixelPhaseEncode": 17.17,
    "BaseResolution": 104,
    "BodyPartExamined": "BRAIN",
    "CogAtlasID": "trm_4c898da401420",
    "ConsistencyInfo": "N4_VE11C_LATEST_20160120",
    "ConversionSoftware": "dcm2niix",
    "ConversionSoftwareVersion": "v1.0.20171215 (OpenJPEG build) GCC7.3.0",
    "DerivedVendorReportedEchoSpacing": 0.000560011,
    "DeviceSerialNumber": "167006",
    "DwellTime": 2.1e-06,
    "EchoTime": 0.037,
    "EchoTrainLength": 104,
    "EffectiveEchoSpacing": 0.000560011,
    "FlipAngle": 52,
    "ImageComments": "Unaliased_MB4_PE3_LB",
    "ImageOrientationPatientDICOM": [
      0.999516,
      0.00634427,
      -0.030469,
      -0.0160506,
      0.943844,
      -0.330002
    ],
    "ImageType": [
      "ORIGINAL",
      "PRIMARY",
      "M",
      "MB",
      "ND",
      "MOSAIC"
    ],
    "InPlanePhaseEncodingDirectionDICOM": "COL",
    "InstitutionAddress": "Chemin_Queen-Mary_4565_Montreal_District_CA_H3W_1W5",
    "InstitutionName": "IUGM",
    "InstitutionalDepartmentName": "Department",
    "MRAcquisitionType": "2D",
    "MagneticFieldStrength": 3,
    "Manufacturer": "Siemens",
    "ManufacturersModelName": "Prisma_fit",
    "Modality": "MR",
    "MultibandAccelerationFactor": 4,
    "PartialFourier": 1,
    "PatientPosition": "HFS",
    "PercentPhaseFOV": 100,
    "PhaseEncodingDirection": "j-",
    "PhaseEncodingSteps": 104,
    "PhaseResolution": 1,
    "PixelBandwidth": 2290,
    "ProcedureStepDescription": "video5_generic",
    "ProtocolName": "func_task-wolf10",
    "PulseSequenceDetails": "%CustomerSeq%_cmrr_mbep2d_bold",
    "ReceiveCoilActiveElements": "HC1-7;NC1,2",
    "ReceiveCoilName": "HeadNeck_64",
    "ReconMatrixPE": 104,
    "RepetitionTime": 1.49,
    "SAR": 0.0336836,
    "ScanOptions": "FS",
    "ScanningSequence": "EP",
    "SequenceName": "epfid2d1_104",
    "SequenceVariant": "SK_SS",
    "SeriesDescription": "func_task-wolf10",
    "SeriesNumber": 21,
    "ShimSetting": [
      611,
      -7242,
      -8875,
      377,
      27,
      -353,
      22,
      8
    ],
    "SliceThickness": 2,
    "SliceTiming": [
      0,
      0.785,
      0.0975,
      0.8825,
      0.1975,
      0.98,
      0.295,
      1.0775,
      0.3925,
      1.1775,
      0.49,
      1.275,
      0.5875,
      1.3725,
      0.6875,
      0,
      0.785,
      0.0975,
      0.8825,
      0.1975,
      0.98,
      0.295,
      1.0775,
      0.3925,
      1.1775,
      0.49,
      1.275,
      0.5875,
      1.3725,
      0.6875,
      0,
      0.785,
      0.0975,
      0.8825,
      0.1975,
      0.98,
      0.295,
      1.0775,
      0.3925,
      1.1775,
      0.49,
      1.275,
      0.5875,
      1.3725,
      0.6875,
      0,
      0.785,
      0.0975,
      0.8825,
      0.1975,
      0.98,
      0.295,
      1.0775,
      0.3925,
      1.1775,
      0.49,
      1.275,
      0.5875,
      1.3725,
      0.6875
    ],
    "SoftwareVersions": "syngo_MR_E11",
    "SpacingBetweenSlices": 2,
    "StationName": "MRC35049",
    "TaskName": "wolf10",
    "TotalReadoutTime": 0.0576811,
    "TxRefAmp": 234.504,
    "dataset": "<unset>",
    "dcmmeta_affine": [
      [
        -1.9990311861038208,
        -0.032101187855005264,
        -0.053328655660152435,
        105.56680297851562
      ],
      [
        -0.012688538059592247,
        1.8876875638961792,
        -0.6606622934341431,
        -62.13612747192383
      ],
      [
        -0.060937944799661636,
        0.6600039005279541,
        1.8869768381118774,
        -72.28527069091797
      ],
      [
        0.0,
        0.0,
        0.0,
        1.0
      ]
    ],
    "dcmmeta_reorient_transform": [
      [
        0.0,
        -1.0,
        0.0,
        103.0
      ],
      [
        1.0,
        0.0,
        0.0,
        0.0
      ],
      [
        0.0,
        0.0,
        1.0,
        0.0
      ],
      [
        0.0,
        0.0,
        0.0,
        1.0
      ]
    ],
    "dcmmeta_shape": [
      104,
      104,
      60,
      406
    ],
    "dcmmeta_slice_dim": 2,
    "dcmmeta_version": 0.6,
    "global": {
      "const": {
        "AcquisitionMatrix": [
          104,
          0,
          0,
          104
        ],
        "AngioFlag": "N",
        "BitsAllocated": 16,
        "BitsStored": 16,
        "BodyPartExamined": "BRAIN",
        "Columns": 832,
        "EchoNumbers": 1,
        "EchoTime": 37.0,
        "EchoTrainLength": 104,
        "FlipAngle": 52.0,
        "HighBit": 15,
        "ImageOrientationPatient": [
          0.99951557867178,
          0.00634426904368,
          -0.0304689718028,
          -0.0160505943564,
          0.94384378442554,
          -0.330001953058
        ],
        "ImagePositionPatient": [
          -818.22288651977,
          -824.0325957403,
          258.11796716848
        ],
        "ImageType": [
          "ORIGINAL",
          "PRIMARY",
          "M",
          "MB",
          "ND",
          "MOSAIC"
        ],
        "ImagedNucleus": "1H",
        "ImagingFrequency": 123.259234,
        "InPlanePhaseEncodingDirection": "COL",
        "MRAcquisitionType": "2D",
        "MagneticFieldStrength": 3.0,
        "Manufacturer": "SIEMENS",
        "ManufacturerModelName": "Prisma_fit",
        "Modality": "MR",
        "NumberOfAverages": 1.0,
        "NumberOfPhaseEncodingSteps": 104,
        "PercentPhaseFieldOfView": 100.0,
        "PercentSampling": 100.0,
        "PerformedProcedureStepStartTime": "174610.934000",
        "PhotometricInterpretation": "MONOCHROME2",
        "PixelBandwidth": 2290.0,
        "PixelRepresentation": 0,
        "PixelSpacing": [
          2.0,
          2.0
        ],
        "ProtocolName": "func_task-wolf10",
        "RepetitionTime": 1490.0,
        "Rows": 832,
        "SAR": 0.03368357782121,
        "SamplesPerPixel": 1,
        "ScanOptions": "FS",
        "ScanningSequence": "EP",
        "SequenceName": "epfid2d1_104",
        "SequenceVariant": [
          "SK",
          "SS"
        ],
        "SeriesDescription": "func_task-wolf10",
        "SeriesNumber": 21,
        "SeriesTime": "190937.690000",
        "SliceLocation": -50.489682330204,
        "SliceThickness": 2.0,
        "SmallestImagePixelValue": 0,
        "SoftwareVersions": "syngo MR E11",
        "SpacingBetweenSlices": 1.9999999950406,
        "SpecificCharacterSet": "ISO_IR 100",
        "StudyID": "1",
        "StudyTime": "174610.804000",
        "TransmitCoilName": "Body",
        "VariableFlipAngleFlag": "N",
        "WindowCenterWidthExplanation": "Algo1",
        "dBdt": 0.0
      },
      "slices": {}
    },
    "modality": "bold",
    "session_id": "005",
    "subject_id": "05",
    "task_id": "wolf10",
    "time": {
      "samples": {
        "AcquisitionNumber": [
          1,
          2,
          3,
          4,
          5,
          6,
          7,
          8,
          9,
          10,
          11,
          12,
          13,
          14,
          15,
          16,
          17,
          18,
          19,
          20,
          21,
          22,
          23,
          24,
          25,
          26,
          27,
          28,
          29,
          30,
          31,
          32,
          33,
          34,
          35,
          36,
          37,
          38,
          39,
          40,
          41,
          42,
          43,
          44,
          45,
          46,
          47,
          48,
          49,
          50,
          51,
          52,
          53,
          54,
          55,
          56,
          57,
          58,
          59,
          60,
          61,
          62,
          63,
          64,
          65,
          66,
          67,
          68,
          69,
          70,
          71,
          72,
          73,
          74,
          75,
          76,
          77,
          78,
          79,
          80,
          81,
          82,
          83,
          84,
          85,
          86,
          87,
          88,
          89,
          90,
          91,
          92,
          93,
          94,
          95,
          96,
          97,
          98,
          99,
          100,
          101,
          102,
          103,
          104,
          105,
          106,
          107,
          108,
          109,
          110,
          111,
          112,
          113,
          114,
          115,
          116,
          117,
          118,
          119,
          120,
          121,
          122,
          123,
          124,
          125,
          126,
          127,
          128,
          129,
          130,
          131,
          132,
          133,
          134,
          135,
          136,
          137,
          138,
          139,
          140,
          141,
          142,
          143,
          144,
          145,
          146,
          147,
          148,
          149,
          150,
          151,
          152,
          153,
          154,
          155,
          156,
          157,
          158,
          159,
          160,
          161,
          162,
          163,
          164,
          165,
          166,
          167,
          168,
          169,
          170,
          171,
          172,
          173,
          174,
          175,
          176,
          177,
          178,
          179,
          180,
          181,
          182,
          183,
          184,
          185,
          186,
          187,
          188,
          189,
          190,
          191,
          192,
          193,
          194,
          195,
          196,
          197,
          198,
          199,
          200,
          201,
          202,
          203,
          204,
          205,
          206,
          207,
          208,
          209,
          210,
          211,
          212,
          213,
          214,
          215,
          216,
          217,
          218,
          219,
          220,
          221,
          222,
          223,
          224,
          225,
          226,
          227,
          228,
          229,
          230,
          231,
          232,
          233,
          234,
          235,
          236,
          237,
          238,
          239,
          240,
          241,
          242,
          243,
          244,
          245,
          246,
          247,
          248,
          249,
          250,
          251,
          252,
          253,
          254,
          255,
          256,
          257,
          258,
          259,
          260,
          261,
          262,
          263,
          264,
          265,
          266,
          267,
          268,
          269,
          270,
          271,
          272,
          273,
          274,
          275,
          276,
          277,
          278,
          279,
          280,
          281,
          282,
          283,
          284,
          285,
          286,
          287,
          288,
          289,
          290,
          291,
          292,
          293,
          294,
          295,
          296,
          297,
          298,
          299,
          300,
          301,
          302,
          303,
          304,
          305,
          306,
          307,
          308,
          309,
          310,
          311,
          312,
          313,
          314,
          315,
          316,
          317,
          318,
          319,
          320,
          321,
          322,
          323,
          324,
          325,
          326,
          327,
          328,
          329,
          330,
          331,
          332,
          333,
          334,
          335,
          336,
          337,
          338,
          339,
          340,
          341,
          342,
          343,
          344,
          345,
          346,
          347,
          348,
          349,
          350,
          351,
          352,
          353,
          354,
          355,
          356,
          357,
          358,
          359,
          360,
          361,
          362,
          363,
          364,
          365,
          366,
          367,
          368,
          369,
          370,
          371,
          372,
          373,
          374,
          375,
          376,
          377,
          378,
          379,
          380,
          381,
          382,
          383,
          384,
          385,
          386,
          387,
          388,
          389,
          390,
          391,
          392,
          393,
          394,
          395,
          396,
          397,
          398,
          399,
          400,
          401,
          402,
          403,
          404,
          405,
          406
        ],
        "AcquisitionTime": [
          "190815.977500",
          "190817.467500",
          "190818.957500",
          "190820.447500",
          "190821.937500",
          "190823.427500",
          "190824.917500",
          "190826.407500",
          "190827.897500",
          "190829.387500",
          "190830.877500",
          "190832.367500",
          "190833.857500",
          "190835.347500",
          "190836.837500",
          "190838.327500",
          "190839.817500",
          "190841.307500",
          "190842.797500",
          "190844.287500",
          "190845.777500",
          "190847.267500",
          "190848.757500",
          "190850.247500",
          "190851.737500",
          "190853.227500",
          "190854.717500",
          "190856.207500",
          "190857.697500",
          "190859.187500",
          "190900.677500",
          "190902.167500",
          "190903.657500",
          "190905.147500",
          "190906.637500",
          "190908.127500",
          "190909.617500",
          "190911.107500",
          "190912.597500",
          "190914.087500",
          "190915.577500",
          "190917.067500",
          "190918.557500",
          "190920.047500",
          "190921.537500",
          "190923.027500",
          "190924.517500",
          "190926.007500",
          "190927.497500",
          "190928.987500",
          "190930.477500",
          "190931.967500",
          "190933.457500",
          "190934.947500",
          "190936.437500",
          "190937.927500",
          "190939.417500",
          "190940.907500",
          "190942.397500",
          "190943.887500",
          "190945.377500",
          "190946.867500",
          "190948.357500",
          "190949.847500",
          "190951.337500",
          "190952.827500",
          "190954.317500",
          "190955.807500",
          "190957.297500",
          "190958.787500",
          "191000.277500",
          "191001.767500",
          "191003.257500",
          "191004.747500",
          "191006.237500",
          "191007.727500",
          "191009.217500",
          "191010.707500",
          "191012.197500",
          "191013.687500",
          "191015.177500",
          "191016.667500",
          "191018.157500",
          "191019.647500",
          "191021.137500",
          "191022.627500",
          "191024.117500",
          "191025.607500",
          "191027.097500",
          "191028.587500",
          "191030.077500",
          "191031.567500",
          "191033.057500",
          "191034.547500",
          "191036.037500",
          "191037.527500",
          "191039.017500",
          "191040.507500",
          "191041.997500",
          "191043.487500",
          "191044.977500",
          "191046.467500",
          "191047.957500",
          "191049.447500",
          "191050.937500",
          "191052.427500",
          "191053.917500",
          "191055.407500",
          "191056.897500",
          "191058.387500",
          "191059.877500",
          "191101.367500",
          "191102.857500",
          "191104.347500",
          "191105.837500",
          "191107.327500",
          "191108.817500",
          "191110.307500",
          "191111.797500",
          "191113.287500",
          "191114.777500",
          "191116.267500",
          "191117.757500",
          "191119.247500",
          "191120.737500",
          "191122.227500",
          "191123.717500",
          "191125.207500",
          "191126.697500",
          "191128.187500",
          "191129.677500",
          "191131.167500",
          "191132.657500",
          "191134.147500",
          "191135.637500",
          "191137.127500",
          "191138.617500",
          "191140.107500",
          "191141.597500",
          "191143.087500",
          "191144.577500",
          "191146.067500",
          "191147.557500",
          "191149.047500",
          "191150.537500",
          "191152.027500",
          "191153.517500",
          "191155.007500",
          "191156.497500",
          "191157.987500",
          "191159.477500",
          "191200.967500",
          "191202.457500",
          "191203.947500",
          "191205.437500",
          "191206.927500",
          "191208.417500",
          "191209.907500",
          "191211.397500",
          "191212.887500",
          "191214.377500",
          "191215.867500",
          "191217.357500",
          "191218.847500",
          "191220.337500",
          "191221.827500",
          "191223.317500",
          "191224.807500",
          "191226.297500",
          "191227.787500",
          "191229.277500",
          "191230.767500",
          "191232.257500",
          "191233.747500",
          "191235.237500",
          "191236.727500",
          "191238.217500",
          "191239.707500",
          "191241.197500",
          "191242.687500",
          "191244.177500",
          "191245.667500",
          "191247.157500",
          "191248.647500",
          "191250.137500",
          "191251.627500",
          "191253.117500",
          "191254.607500",
          "191256.097500",
          "191257.587500",
          "191259.077500",
          "191300.567500",
          "191302.057500",
          "191303.547500",
          "191305.037500",
          "191306.527500",
          "191308.017500",
          "191309.507500",
          "191310.997500",
          "191312.487500",
          "191313.977500",
          "191315.467500",
          "191316.957500",
          "191318.447500",
          "191319.937500",
          "191321.427500",
          "191322.917500",
          "191324.407500",
          "191325.897500",
          "191327.387500",
          "191328.877500",
          "191330.367500",
          "191331.857500",
          "191333.347500",
          "191334.837500",
          "191336.327500",
          "191337.817500",
          "191339.307500",
          "191340.797500",
          "191342.287500",
          "191343.777500",
          "191345.267500",
          "191346.757500",
          "191348.247500",
          "191349.737500",
          "191351.227500",
          "191352.717500",
          "191354.207500",
          "191355.697500",
          "191357.187500",
          "191358.677500",
          "191400.167500",
          "191401.657500",
          "191403.147500",
          "191404.637500",
          "191406.127500",
          "191407.617500",
          "191409.107500",
          "191410.597500",
          "191412.087500",
          "191413.577500",
          "191415.067500",
          "191416.557500",
          "191418.047500",
          "191419.537500",
          "191421.027500",
          "191422.517500",
          "191424.007500",
          "191425.497500",
          "191426.987500",
          "191428.477500",
          "191429.967500",
          "191431.457500",
          "191432.947500",
          "191434.437500",
          "191435.927500",
          "191437.417500",
          "191438.907500",
          "191440.397500",
          "191441.887500",
          "191443.377500",
          "191444.867500",
          "191446.357500",
          "191447.847500",
          "191449.337500",
          "191450.827500",
          "191452.317500",
          "191453.807500",
          "191455.297500",
          "191456.787500",
          "191458.277500",
          "191459.767500",
          "191501.257500",
          "191502.747500",
          "191504.237500",
          "191505.727500",
          "191507.217500",
          "191508.707500",
          "191510.197500",
          "191511.687500",
          "191513.177500",
          "191514.667500",
          "191516.157500",
          "191517.647500",
          "191519.137500",
          "191520.627500",
          "191522.117500",
          "191523.607500",
          "191525.097500",
          "191526.587500",
          "191528.077500",
          "191529.567500",
          "191531.057500",
          "191532.547500",
          "191534.037500",
          "191535.527500",
          "191537.017500",
          "191538.507500",
          "191539.997500",
          "191541.487500",
          "191542.977500",
          "191544.467500",
          "191545.957500",
          "191547.447500",
          "191548.937500",
          "191550.427500",
          "191551.917500",
          "191553.407500",
          "191554.897500",
          "191556.387500",
          "191557.877500",
          "191559.367500",
          "191600.857500",
          "191602.347500",
          "191603.837500",
          "191605.327500",
          "191606.817500",
          "191608.307500",
          "191609.797500",
          "191611.287500",
          "191612.777500",
          "191614.267500",
          "191615.757500",
          "191617.247500",
          "191618.737500",
          "191620.227500",
          "191621.717500",
          "191623.207500",
          "191624.697500",
          "191626.187500",
          "191627.677500",
          "191629.167500",
          "191630.657500",
          "191632.147500",
          "191633.637500",
          "191635.127500",
          "191636.617500",
          "191638.107500",
          "191639.597500",
          "191641.087500",
          "191642.577500",
          "191644.067500",
          "191645.557500",
          "191647.047500",
          "191648.537500",
          "191650.027500",
          "191651.517500",
          "191653.007500",
          "191654.497500",
          "191655.987500",
          "191657.477500",
          "191658.967500",
          "191700.457500",
          "191701.947500",
          "191703.437500",
          "191704.927500",
          "191706.417500",
          "191707.907500",
          "191709.397500",
          "191710.887500",
          "191712.377500",
          "191713.867500",
          "191715.357500",
          "191716.847500",
          "191718.337500",
          "191719.827500",
          "191721.317500",
          "191722.807500",
          "191724.297500",
          "191725.787500",
          "191727.277500",
          "191728.767500",
          "191730.257500",
          "191731.747500",
          "191733.237500",
          "191734.727500",
          "191736.217500",
          "191737.707500",
          "191739.197500",
          "191740.687500",
          "191742.177500",
          "191743.667500",
          "191745.157500",
          "191746.647500",
          "191748.137500",
          "191749.627500",
          "191751.117500",
          "191752.607500",
          "191754.097500",
          "191755.587500",
          "191757.077500",
          "191758.567500",
          "191800.057500",
          "191801.547500",
          "191803.037500",
          "191804.527500",
          "191806.017500",
          "191807.507500",
          "191808.997500",
          "191810.487500",
          "191811.977500",
          "191813.467500",
          "191814.957500",
          "191816.447500",
          "191817.937500",
          "191819.427500"
        ],
        "ContentTime": [
          "190937.693000",
          "190937.696000",
          "190937.699000",
          "190937.702000",
          "190937.705000",
          "190937.707000",
          "190937.714000",
          "190937.717000",
          "190937.720000",
          "190937.729000",
          "190937.732000",
          "190937.751000",
          "190937.754000",
          "190937.757000",
          "190937.760000",
          "190937.769000",
          "190937.772000",
          "190937.774000",
          "190937.777000",
          "190937.780000",
          "190937.783000",
          "190937.786000",
          "190937.789000",
          "190937.792000",
          "190937.794000",
          "190957.660000",
          "190957.663000",
          "190957.666000",
          "190957.669000",
          "190957.671000",
          "190957.674000",
          "190957.677000",
          "190957.680000",
          "190957.683000",
          "190957.686000",
          "190957.689000",
          "190957.691000",
          "190957.694000",
          "190957.697000",
          "190957.700000",
          "190957.703000",
          "190957.706000",
          "190957.708000",
          "190957.711000",
          "190957.718000",
          "191017.660000",
          "191017.663000",
          "191017.666000",
          "191017.669000",
          "191017.672000",
          "191017.675000",
          "191017.679000",
          "191017.682000",
          "191017.713000",
          "191017.716000",
          "191017.719000",
          "191017.722000",
          "191017.724000",
          "191017.727000",
          "191017.730000",
          "191017.733000",
          "191017.736000",
          "191017.738000",
          "191017.741000",
          "191017.744000",
          "191037.660000",
          "191037.663000",
          "191037.666000",
          "191037.669000",
          "191037.671000",
          "191037.674000",
          "191037.677000",
          "191037.680000",
          "191037.683000",
          "191037.686000",
          "191037.690000",
          "191037.693000",
          "191037.696000",
          "191037.698000",
          "191037.701000",
          "191037.704000",
          "191037.707000",
          "191037.715000",
          "191037.717000",
          "191037.720000",
          "191037.723000",
          "191057.660000",
          "191057.663000",
          "191057.666000",
          "191057.669000",
          "191057.672000",
          "191057.675000",
          "191057.678000",
          "191057.681000",
          "191057.684000",
          "191057.687000",
          "191057.690000",
          "191057.692000",
          "191057.695000",
          "191057.698000",
          "191057.701000",
          "191057.704000",
          "191057.707000",
          "191057.710000",
          "191057.713000",
          "191057.715000",
          "191137.660000",
          "191137.663000",
          "191137.666000",
          "191137.669000",
          "191137.672000",
          "191137.674000",
          "191137.677000",
          "191137.680000",
          "191137.683000",
          "191137.686000",
          "191137.689000",
          "191137.692000",
          "191137.695000",
          "191137.697000",
          "191137.700000",
          "191137.703000",
          "191137.706000",
          "191137.709000",
          "191137.712000",
          "191137.714000",
          "191137.717000",
          "191137.720000",
          "191137.723000",
          "191137.726000",
          "191137.729000",
          "191137.732000",
          "191137.735000",
          "191137.737000",
          "191137.740000",
          "191217.660000",
          "191217.663000",
          "191217.666000",
          "191217.669000",
          "191217.672000",
          "191217.675000",
          "191217.678000",
          "191217.681000",
          "191217.684000",
          "191217.686000",
          "191217.689000",
          "191217.692000",
          "191217.695000",
          "191217.698000",
          "191217.701000",
          "191217.704000",
          "191217.706000",
          "191217.709000",
          "191217.712000",
          "191217.715000",
          "191217.718000",
          "191217.721000",
          "191217.724000",
          "191217.727000",
          "191217.729000",
          "191217.732000",
          "191257.660000",
          "191257.663000",
          "191257.666000",
          "191257.669000",
          "191257.672000",
          "191257.675000",
          "191257.677000",
          "191257.680000",
          "191257.683000",
          "191257.686000",
          "191257.689000",
          "191257.692000",
          "191257.695000",
          "191257.698000",
          "191257.700000",
          "191257.703000",
          "191257.706000",
          "191257.709000",
          "191257.712000",
          "191257.715000",
          "191257.717000",
          "191257.721000",
          "191257.723000",
          "191257.726000",
          "191257.729000",
          "191257.732000",
          "191257.735000",
          "191337.661000",
          "191337.664000",
          "191337.667000",
          "191337.670000",
          "191337.673000",
          "191337.676000",
          "191337.678000",
          "191337.681000",
          "191337.684000",
          "191337.687000",
          "191337.690000",
          "191337.693000",
          "191337.696000",
          "191337.699000",
          "191337.701000",
          "191337.704000",
          "191337.707000",
          "191337.710000",
          "191337.713000",
          "191337.716000",
          "191337.719000",
          "191337.722000",
          "191337.724000",
          "191337.727000",
          "191337.730000",
          "191337.733000",
          "191337.736000",
          "191417.660000",
          "191417.663000",
          "191417.666000",
          "191417.669000",
          "191417.672000",
          "191417.674000",
          "191417.677000",
          "191417.680000",
