{
  "aor": 0.0005634567901234567,
  "aqi": 0.007857738543209878,
  "bids_meta": {
    "AcquisitionMatrixPE": 104,
    "AcquisitionNumber": 1,
    "AcquisitionTime": "18:12:18.805000",
    "BandwidthPerPixelPhaseEncode": 17.17,
    "BaseResolution": 104,
    "BodyPartExamined": "BRAIN",
    "CogAtlasID": "trm_4c898da401420",
    "ConsistencyInfo": "N4_VE11C_LATEST_20160120",
    "ConversionSoftware": "dcm2niix",
    "ConversionSoftwareVersion": "v1.0.20171215 (OpenJPEG build) GCC7.3.0",
    "DerivedVendorReportedEchoSpacing": 0.000560011,
    "DeviceSerialNumber": "167006",
    "DwellTime": 2.1e-06,
    "EchoTime": 0.037,
    "EchoTrainLength": 104,
    "EffectiveEchoSpacing": 0.000560011,
    "FlipAngle": 52,
    "ImageComments": "Unaliased_MB4_PE3_LB",
    "ImageOrientationPatientDICOM": [
      0.999516,
      0.00634427,
      -0.030469,
      -0.0160506,
      0.943844,
      -0.330002
    ],
    "ImageType": [
      "ORIGINAL",
      "PRIMARY",
      "M",
      "MB",
      "ND",
      "MOSAIC"
    ],
    "InPlanePhaseEncodingDirectionDICOM": "COL",
    "InstitutionAddress": "Chemin_Queen-Mary_4565_Montreal_District_CA_H3W_1W5",
    "InstitutionName": "IUGM",
    "InstitutionalDepartmentName": "Department",
    "MRAcquisitionType": "2D",
    "MagneticFieldStrength": 3,
    "Manufacturer": "Siemens",
    "ManufacturersModelName": "Prisma_fit",
    "Modality": "MR",
    "MultibandAccelerationFactor": 4,
    "PartialFourier": 1,
    "PatientPosition": "HFS",
    "PercentPhaseFOV": 100,
    "PhaseEncodingDirection": "j-",
    "PhaseEncodingSteps": 104,
    "PhaseResolution": 1,
    "PixelBandwidth": 2290,
    "ProcedureStepDescription": "video5_generic",
    "ProtocolName": "func_task-wolf5",
    "PulseSequenceDetails": "%CustomerSeq%_cmrr_mbep2d_bold",
    "ReceiveCoilActiveElements": "HC1-7;NC1,2",
    "ReceiveCoilName": "HeadNeck_64",
    "ReconMatrixPE": 104,
    "RepetitionTime": 1.49,
    "SAR": 0.0336836,
    "ScanOptions": "FS",
    "ScanningSequence": "EP",
    "SequenceName": "epfid2d1_104",
    "SequenceVariant": "SK_SS",
    "SeriesDescription": "func_task-wolf5",
    "SeriesNumber": 9,
    "ShimSetting": [
      611,
      -7242,
      -8875,
      377,
      27,
      -353,
      22,
      8
    ],
    "SliceThickness": 2,
    "SliceTiming": [
      0,
      0.785,
      0.1,
      0.8825,
      0.1975,
      0.98,
      0.295,
      1.08,
      0.3925,
      1.1775,
      0.49,
      1.275,
      0.59,
      1.3725,
      0.6875,
      0,
      0.785,
      0.1,
      0.8825,
      0.1975,
      0.98,
      0.295,
      1.08,
      0.3925,
      1.1775,
      0.49,
      1.275,
      0.59,
      1.3725,
      0.6875,
      0,
      0.785,
      0.1,
      0.8825,
      0.1975,
      0.98,
      0.295,
      1.08,
      0.3925,
      1.1775,
      0.49,
      1.275,
      0.59,
      1.3725,
      0.6875,
      0,
      0.785,
      0.1,
      0.8825,
      0.1975,
      0.98,
      0.295,
      1.08,
      0.3925,
      1.1775,
      0.49,
      1.275,
      0.59,
      1.3725,
      0.6875
    ],
    "SoftwareVersions": "syngo_MR_E11",
    "SpacingBetweenSlices": 2,
    "StationName": "MRC35049",
    "TaskName": "wolf05",
    "TotalReadoutTime": 0.0576811,
    "TxRefAmp": 234.504,
    "dataset": "<unset>",
    "dcmmeta_affine": [
      [
        -1.9990311861038208,
        -0.032101187855005264,
        -0.053328655660152435,
        105.56680297851562
      ],
      [
        -0.012688538059592247,
        1.8876875638961792,
        -0.6606622934341431,
        -62.13612747192383
      ],
      [
        -0.060937944799661636,
        0.6600039005279541,
        1.8869768381118774,
        -72.28527069091797
      ],
      [
        0.0,
        0.0,
        0.0,
        1.0
      ]
    ],
    "dcmmeta_reorient_transform": [
      [
        0.0,
        -1.0,
        0.0,
        103.0
      ],
      [
        1.0,
        0.0,
        0.0,
        0.0
      ],
      [
        0.0,
        0.0,
        1.0,
        0.0
      ],
      [
        0.0,
        0.0,
        0.0,
        1.0
      ]
    ],
    "dcmmeta_shape": [
      104,
      104,
      60,
      406
    ],
    "dcmmeta_slice_dim": 2,
    "dcmmeta_version": 0.6,
    "global": {
      "const": {
        "AcquisitionMatrix": [
          104,
          0,
          0,
          104
        ],
        "AngioFlag": "N",
        "BitsAllocated": 16,
        "BitsStored": 16,
        "BodyPartExamined": "BRAIN",
        "Columns": 832,
        "EchoNumbers": 1,
        "EchoTime": 37.0,
        "EchoTrainLength": 104,
        "FlipAngle": 52.0,
        "HighBit": 15,
        "ImageOrientationPatient": [
          0.99951557867178,
          0.00634426904368,
          -0.0304689718028,
          -0.0160505943564,
          0.94384378442554,
          -0.330001953058
        ],
        "ImagePositionPatient": [
          -818.22288651977,
          -824.0325957403,
          258.11796716848
        ],
        "ImageType": [
          "ORIGINAL",
          "PRIMARY",
          "M",
          "MB",
          "ND",
          "MOSAIC"
        ],
        "ImagedNucleus": "1H",
        "ImagingFrequency": 123.259218,
        "InPlanePhaseEncodingDirection": "COL",
        "MRAcquisitionType": "2D",
        "MagneticFieldStrength": 3.0,
        "Manufacturer": "SIEMENS",
        "ManufacturerModelName": "Prisma_fit",
        "Modality": "MR",
        "NumberOfAverages": 1.0,
        "NumberOfPhaseEncodingSteps": 104,
        "PercentPhaseFieldOfView": 100.0,
        "PercentSampling": 100.0,
        "PerformedProcedureStepStartTime": "174610.934000",
        "PhotometricInterpretation": "MONOCHROME2",
        "PixelBandwidth": 2290.0,
        "PixelRepresentation": 0,
        "PixelSpacing": [
          2.0,
          2.0
        ],
        "ProtocolName": "func_task-wolf5",
        "RepetitionTime": 1490.0,
        "Rows": 832,
        "SAR": 0.03368357782121,
        "SamplesPerPixel": 1,
        "ScanOptions": "FS",
        "ScanningSequence": "EP",
        "SequenceName": "epfid2d1_104",
        "SequenceVariant": [
          "SK",
          "SS"
        ],
        "SeriesDescription": "func_task-wolf5",
        "SeriesNumber": 9,
        "SeriesTime": "181337.698000",
        "SliceLocation": -50.489682330204,
        "SliceThickness": 2.0,
        "SmallestImagePixelValue": 0,
        "SoftwareVersions": "syngo MR E11",
        "SpacingBetweenSlices": 1.9999999950406,
        "SpecificCharacterSet": "ISO_IR 100",
        "StudyID": "1",
        "StudyTime": "174610.804000",
        "TransmitCoilName": "Body",
        "VariableFlipAngleFlag": "N",
        "WindowCenterWidthExplanation": "Algo1",
        "dBdt": 0.0
      },
      "slices": {}
    },
    "modality": "bold",
    "session_id": "005",
    "subject_id": "05",
    "task_id": "wolf05",
    "time": {
      "samples": {
        "AcquisitionNumber": [
          1,
          2,
          3,
          4,
          5,
          6,
          7,
          8,
          9,
          10,
          11,
          12,
          13,
          14,
          15,
          16,
          17,
          18,
          19,
          20,
          21,
          22,
          23,
          24,
          25,
          26,
          27,
          28,
          29,
          30,
          31,
          32,
          33,
          34,
          35,
          36,
          37,
          38,
          39,
          40,
          41,
          42,
          43,
          44,
          45,
          46,
          47,
          48,
          49,
          50,
          51,
          52,
          53,
          54,
          55,
          56,
          57,
          58,
          59,
          60,
          61,
          62,
          63,
          64,
          65,
          66,
          67,
          68,
          69,
          70,
          71,
          72,
          73,
          74,
          75,
          76,
          77,
          78,
          79,
          80,
          81,
          82,
          83,
          84,
          85,
          86,
          87,
          88,
          89,
          90,
          91,
          92,
          93,
          94,
          95,
          96,
          97,
          98,
          99,
          100,
          101,
          102,
          103,
          104,
          105,
          106,
          107,
          108,
          109,
          110,
          111,
          112,
          113,
          114,
          115,
          116,
          117,
          118,
          119,
          120,
          121,
          122,
          123,
          124,
          125,
          126,
          127,
          128,
          129,
          130,
          131,
          132,
          133,
          134,
          135,
          136,
          137,
          138,
          139,
          140,
          141,
          142,
          143,
          144,
          145,
          146,
          147,
          148,
          149,
          150,
          151,
          152,
          153,
          154,
          155,
          156,
          157,
          158,
          159,
          160,
          161,
          162,
          163,
          164,
          165,
          166,
          167,
          168,
          169,
          170,
          171,
          172,
          173,
          174,
          175,
          176,
          177,
          178,
          179,
          180,
          181,
          182,
          183,
          184,
          185,
          186,
          187,
          188,
          189,
          190,
          191,
          192,
          193,
          194,
          195,
          196,
          197,
          198,
          199,
          200,
          201,
          202,
          203,
          204,
          205,
          206,
          207,
          208,
          209,
          210,
          211,
          212,
          213,
          214,
          215,
          216,
          217,
          218,
          219,
          220,
          221,
          222,
          223,
          224,
          225,
          226,
          227,
          228,
          229,
          230,
          231,
          232,
          233,
          234,
          235,
          236,
          237,
          238,
          239,
          240,
          241,
          242,
          243,
          244,
          245,
          246,
          247,
          248,
          249,
          250,
          251,
          252,
          253,
          254,
          255,
          256,
          257,
          258,
          259,
          260,
          261,
          262,
          263,
          264,
          265,
          266,
          267,
          268,
          269,
          270,
          271,
          272,
          273,
          274,
          275,
          276,
          277,
          278,
          279,
          280,
          281,
          282,
          283,
          284,
          285,
          286,
          287,
          288,
          289,
          290,
          291,
          292,
          293,
          294,
          295,
          296,
          297,
          298,
          299,
          300,
          301,
          302,
          303,
          304,
          305,
          306,
          307,
          308,
          309,
          310,
          311,
          312,
          313,
          314,
          315,
          316,
          317,
          318,
          319,
          320,
          321,
          322,
          323,
          324,
          325,
          326,
          327,
          328,
          329,
          330,
          331,
          332,
          333,
          334,
          335,
          336,
          337,
          338,
          339,
          340,
          341,
          342,
          343,
          344,
          345,
          346,
          347,
          348,
          349,
          350,
          351,
          352,
          353,
          354,
          355,
          356,
          357,
          358,
          359,
          360,
          361,
          362,
          363,
          364,
          365,
          366,
          367,
          368,
          369,
          370,
          371,
          372,
          373,
          374,
          375,
          376,
          377,
          378,
          379,
          380,
          381,
          382,
          383,
          384,
          385,
          386,
          387,
          388,
          389,
          390,
          391,
          392,
          393,
          394,
          395,
          396,
          397,
          398,
          399,
          400,
          401,
          402,
          403,
          404,
          405,
          406
        ],
        "AcquisitionTime": [
          "181218.805000",
          "181220.295000",
          "181221.785000",
          "181223.275000",
          "181224.765000",
          "181226.255000",
          "181227.745000",
          "181229.235000",
          "181230.725000",
          "181232.215000",
          "181233.705000",
          "181235.195000",
          "181236.685000",
          "181238.175000",
          "181239.665000",
          "181241.155000",
          "181242.645000",
          "181244.135000",
          "181245.625000",
          "181247.115000",
          "181248.605000",
          "181250.095000",
          "181251.585000",
          "181253.075000",
          "181254.565000",
          "181256.055000",
          "181257.545000",
          "181259.035000",
          "181300.525000",
          "181302.015000",
          "181303.505000",
          "181304.995000",
          "181306.485000",
          "181307.975000",
          "181309.465000",
          "181310.955000",
          "181312.445000",
          "181313.935000",
          "181315.425000",
          "181316.915000",
          "181318.405000",
          "181319.895000",
          "181321.385000",
          "181322.875000",
          "181324.365000",
          "181325.855000",
          "181327.345000",
          "181328.835000",
          "181330.325000",
          "181331.815000",
          "181333.305000",
          "181334.795000",
          "181336.285000",
          "181337.775000",
          "181339.265000",
          "181340.755000",
          "181342.245000",
          "181343.735000",
          "181345.225000",
          "181346.715000",
          "181348.205000",
          "181349.695000",
          "181351.185000",
          "181352.675000",
          "181354.165000",
          "181355.655000",
          "181357.145000",
          "181358.635000",
          "181400.125000",
          "181401.615000",
          "181403.105000",
          "181404.595000",
          "181406.085000",
          "181407.575000",
          "181409.065000",
          "181410.555000",
          "181412.045000",
          "181413.535000",
          "181415.025000",
          "181416.515000",
          "181418.005000",
          "181419.495000",
          "181420.985000",
          "181422.475000",
          "181423.965000",
          "181425.455000",
          "181426.945000",
          "181428.435000",
          "181429.925000",
          "181431.415000",
          "181432.905000",
          "181434.395000",
          "181435.885000",
          "181437.375000",
          "181438.865000",
          "181440.355000",
          "181441.845000",
          "181443.335000",
          "181444.825000",
          "181446.315000",
          "181447.805000",
          "181449.295000",
          "181450.785000",
          "181452.275000",
          "181453.765000",
          "181455.255000",
          "181456.745000",
          "181458.235000",
          "181459.725000",
          "181501.215000",
          "181502.705000",
          "181504.195000",
          "181505.685000",
          "181507.175000",
          "181508.665000",
          "181510.155000",
          "181511.645000",
          "181513.135000",
          "181514.625000",
          "181516.115000",
          "181517.605000",
          "181519.095000",
          "181520.585000",
          "181522.075000",
          "181523.565000",
          "181525.055000",
          "181526.545000",
          "181528.035000",
          "181529.525000",
          "181531.015000",
          "181532.505000",
          "181533.995000",
          "181535.485000",
          "181536.975000",
          "181538.465000",
          "181539.955000",
          "181541.445000",
          "181542.935000",
          "181544.425000",
          "181545.915000",
          "181547.405000",
          "181548.895000",
          "181550.385000",
          "181551.875000",
          "181553.365000",
          "181554.855000",
          "181556.345000",
          "181557.835000",
          "181559.325000",
          "181600.815000",
          "181602.305000",
          "181603.795000",
          "181605.285000",
          "181606.775000",
          "181608.265000",
          "181609.755000",
          "181611.245000",
          "181612.735000",
          "181614.225000",
          "181615.715000",
          "181617.205000",
          "181618.695000",
          "181620.185000",
          "181621.675000",
          "181623.165000",
          "181624.655000",
          "181626.145000",
          "181627.635000",
          "181629.125000",
          "181630.615000",
          "181632.105000",
          "181633.595000",
          "181635.085000",
          "181636.575000",
          "181638.065000",
          "181639.555000",
          "181641.045000",
          "181642.535000",
          "181644.025000",
          "181645.515000",
          "181647.005000",
          "181648.495000",
          "181649.985000",
          "181651.475000",
          "181652.965000",
          "181654.455000",
          "181655.945000",
          "181657.435000",
          "181658.925000",
          "181700.415000",
          "181701.905000",
          "181703.395000",
          "181704.885000",
          "181706.375000",
          "181707.865000",
          "181709.355000",
          "181710.845000",
          "181712.335000",
          "181713.825000",
          "181715.315000",
          "181716.805000",
          "181718.295000",
          "181719.785000",
          "181721.275000",
          "181722.765000",
          "181724.255000",
          "181725.745000",
          "181727.235000",
          "181728.725000",
          "181730.215000",
          "181731.705000",
          "181733.195000",
          "181734.685000",
          "181736.175000",
          "181737.665000",
          "181739.155000",
          "181740.645000",
          "181742.135000",
          "181743.625000",
          "181745.115000",
          "181746.605000",
          "181748.095000",
          "181749.585000",
          "181751.075000",
          "181752.565000",
          "181754.055000",
          "181755.545000",
          "181757.035000",
          "181758.525000",
          "181800.015000",
          "181801.505000",
          "181802.995000",
          "181804.485000",
          "181805.975000",
          "181807.465000",
          "181808.955000",
          "181810.445000",
          "181811.935000",
          "181813.425000",
          "181814.915000",
          "181816.405000",
          "181817.895000",
          "181819.385000",
          "181820.875000",
          "181822.365000",
          "181823.855000",
          "181825.345000",
          "181826.835000",
          "181828.325000",
          "181829.815000",
          "181831.305000",
          "181832.795000",
          "181834.285000",
          "181835.775000",
          "181837.265000",
          "181838.755000",
          "181840.245000",
          "181841.735000",
          "181843.225000",
          "181844.715000",
          "181846.205000",
          "181847.695000",
          "181849.185000",
          "181850.675000",
          "181852.165000",
          "181853.655000",
          "181855.145000",
          "181856.635000",
          "181858.125000",
          "181859.615000",
          "181901.105000",
          "181902.595000",
          "181904.085000",
          "181905.575000",
          "181907.065000",
          "181908.555000",
          "181910.045000",
          "181911.535000",
          "181913.025000",
          "181914.515000",
          "181916.005000",
          "181917.495000",
          "181918.985000",
          "181920.475000",
          "181921.965000",
          "181923.455000",
          "181924.945000",
          "181926.435000",
          "181927.925000",
          "181929.415000",
          "181930.905000",
          "181932.395000",
          "181933.885000",
          "181935.375000",
          "181936.865000",
          "181938.355000",
          "181939.845000",
          "181941.335000",
          "181942.825000",
          "181944.315000",
          "181945.805000",
          "181947.295000",
          "181948.785000",
          "181950.275000",
          "181951.765000",
          "181953.255000",
          "181954.745000",
          "181956.235000",
          "181957.725000",
          "181959.215000",
          "182000.705000",
          "182002.195000",
          "182003.685000",
          "182005.175000",
          "182006.665000",
          "182008.155000",
          "182009.645000",
          "182011.135000",
          "182012.625000",
          "182014.115000",
          "182015.605000",
          "182017.095000",
          "182018.585000",
          "182020.075000",
          "182021.565000",
          "182023.055000",
          "182024.545000",
          "182026.035000",
          "182027.525000",
          "182029.015000",
          "182030.505000",
          "182031.995000",
          "182033.485000",
          "182034.975000",
          "182036.465000",
          "182037.955000",
          "182039.445000",
          "182040.935000",
          "182042.425000",
          "182043.915000",
          "182045.405000",
          "182046.895000",
          "182048.385000",
          "182049.875000",
          "182051.365000",
          "182052.855000",
          "182054.345000",
          "182055.835000",
          "182057.325000",
          "182058.815000",
          "182100.305000",
          "182101.795000",
          "182103.285000",
          "182104.775000",
          "182106.265000",
          "182107.755000",
          "182109.245000",
          "182110.735000",
          "182112.225000",
          "182113.715000",
          "182115.205000",
          "182116.695000",
          "182118.185000",
          "182119.675000",
          "182121.165000",
          "182122.655000",
          "182124.145000",
          "182125.635000",
          "182127.125000",
          "182128.615000",
          "182130.105000",
          "182131.595000",
          "182133.085000",
          "182134.575000",
          "182136.065000",
          "182137.555000",
          "182139.045000",
          "182140.535000",
          "182142.025000",
          "182143.515000",
          "182145.005000",
          "182146.495000",
          "182147.985000",
          "182149.475000",
          "182150.965000",
          "182152.455000",
          "182153.945000",
          "182155.435000",
          "182156.925000",
          "182158.415000",
          "182159.905000",
          "182201.395000",
          "182202.885000",
          "182204.375000",
          "182205.865000",
          "182207.355000",
          "182208.845000",
          "182210.335000",
          "182211.825000",
          "182213.315000",
          "182214.805000",
          "182216.295000",
          "182217.785000",
          "182219.275000",
          "182220.765000",
          "182222.255000"
        ],
        "ContentTime": [
          "181337.700000",
          "181337.704000",
          "181337.706000",
          "181337.709000",
          "181337.712000",
          "181337.715000",
          "181337.717000",
          "181337.720000",
          "181337.723000",
          "181337.726000",
          "181337.729000",
          "181337.739000",
          "181337.742000",
          "181337.745000",
          "181337.747000",
          "181337.750000",
          "181337.753000",
          "181337.761000",
          "181337.764000",
          "181337.767000",
          "181337.769000",
          "181337.773000",
          "181337.777000",
          "181337.781000",
          "181357.660000",
          "181357.663000",
          "181357.666000",
          "181357.668000",
          "181357.671000",
          "181357.674000",
          "181357.677000",
          "181357.680000",
          "181357.682000",
          "181357.685000",
          "181357.688000",
          "181357.697000",
          "181357.700000",
          "181357.703000",
          "181357.706000",
          "181357.708000",
          "181357.711000",
          "181357.714000",
          "181357.717000",
          "181357.720000",
          "181357.722000",
          "181417.660000",
          "181417.663000",
          "181417.666000",
          "181417.669000",
          "181417.671000",
          "181417.674000",
          "181417.677000",
          "181417.680000",
          "181417.683000",
          "181417.686000",
          "181417.688000",
          "181417.691000",
          "181417.694000",
          "181417.697000",
          "181417.700000",
          "181417.702000",
          "181417.705000",
          "181417.708000",
          "181417.711000",
          "181417.713000",
          "181437.660000",
          "181437.663000",
          "181437.666000",
          "181437.669000",
          "181437.671000",
          "181437.674000",
          "181437.677000",
          "181437.680000",
          "181437.682000",
          "181437.685000",
          "181437.688000",
          "181437.691000",
          "181437.694000",
          "181437.696000",
          "181437.699000",
          "181437.702000",
          "181437.705000",
          "181437.708000",
          "181437.710000",
          "181437.713000",
          "181457.660000",
          "181457.663000",
          "181457.666000",
          "181457.669000",
          "181457.671000",
          "181457.674000",
          "181457.677000",
          "181457.680000",
          "181457.683000",
          "181457.685000",
          "181457.688000",
          "181457.691000",
          "181457.694000",
          "181457.696000",
          "181457.699000",
          "181457.702000",
          "181457.705000",
          "181457.707000",
          "181457.710000",
          "181457.713000",
          "181517.660000",
          "181517.663000",
          "181517.666000",
          "181517.669000",
          "181517.671000",
          "181517.674000",
          "181517.677000",
          "181517.680000",
          "181517.683000",
          "181517.686000",
          "181517.688000",
          "181517.691000",
          "181517.694000",
          "181517.697000",
          "181557.660000",
          "181557.663000",
          "181557.666000",
          "181557.669000",
          "181557.672000",
          "181557.674000",
          "181557.677000",
          "181557.680000",
          "181557.683000",
          "181557.686000",
          "181557.688000",
          "181557.691000",
          "181557.694000",
          "181557.697000",
          "181557.700000",
          "181557.703000",
          "181557.706000",
          "181557.708000",
          "181557.711000",
          "181557.714000",
          "181557.717000",
          "181557.720000",
          "181557.722000",
          "181557.725000",
          "181557.728000",
          "181557.731000",
          "181557.734000",
          "181637.660000",
          "181637.663000",
          "181637.666000",
          "181637.669000",
          "181637.672000",
          "181637.674000",
          "181637.677000",
          "181637.680000",
          "181637.683000",
          "181637.686000",
          "181637.689000",
          "181637.691000",
          "181637.694000",
          "181637.697000",
          "181637.700000",
          "181637.703000",
          "181637.706000",
          "181637.708000",
          "181637.711000",
          "181637.714000",
          "181637.717000",
          "181637.719000",
          "181637.722000",
          "181637.725000",
          "181637.728000",
          "181637.731000",
          "181637.733000",
          "181717.660000",
          "181717.663000",
          "181717.666000",
          "181717.668000",
          "181717.671000",
          "181717.674000",
          "181717.677000",
          "181717.680000",
          "181717.682000",
          "181717.685000",
          "181717.688000",
          "181717.691000",
          "181717.694000",
          "181717.696000",
          "181717.699000",
          "181717.702000",
          "181717.705000",
          "181717.708000",
          "181717.710000",
          "181717.713000",
          "181717.716000",
          "181717.719000",
          "181717.722000",
          "181717.724000",
          "181717.727000",
          "181717.730000",
          "181717.733000",
          "181757.675000",
          "181757.678000",
          "181757.681000",
          "181757.684000",
          "181757.686000",
          "181757.689000",
          "181757.692000",
          "181757.695000",
          "181757.698000",
          "181757.700000",
          "181757.703000",
          "181757.706000",
          "181757.709000",
          "181757.712000",
          "181757.714000",
          "181757.717000",
          "181757.720000",
          "181757.723000",
          "181757.726000",
          "181757.728000",
          "181757.731000",
          "181757.751000",
          "181757.753000",
          "181757.756000",
