{
  "aor": 0.0011888148148148149,
  "aqi": 0.009518878469135803,
  "bids_meta": {
    "AcquisitionMatrixPE": 104,
    "AcquisitionNumber": 1,
    "AcquisitionTime": "18:33:30.462500",
    "BandwidthPerPixelPhaseEncode": 17.17,
    "BaseResolution": 104,
    "BodyPartExamined": "BRAIN",
    "CogAtlasID": "trm_4c898da401420",
    "ConsistencyInfo": "N4_VE11C_LATEST_20160120",
    "ConversionSoftware": "dcm2niix",
    "ConversionSoftwareVersion": "v1.0.20171215 (OpenJPEG build) GCC7.3.0",
    "DerivedVendorReportedEchoSpacing": 0.000560011,
    "DeviceSerialNumber": "167006",
    "DwellTime": 2.1e-06,
    "EchoTime": 0.037,
    "EchoTrainLength": 104,
    "EffectiveEchoSpacing": 0.000560011,
    "FlipAngle": 52,
    "ImageComments": "Unaliased_MB4_PE3_LB",
    "ImageOrientationPatientDICOM": [
      0.999516,
      0.00634427,
      -0.030469,
      -0.0160506,
      0.943844,
      -0.330002
    ],
    "ImageType": [
      "ORIGINAL",
      "PRIMARY",
      "M",
      "MB",
      "ND",
      "MOSAIC"
    ],
    "InPlanePhaseEncodingDirectionDICOM": "COL",
    "InstitutionAddress": "Chemin_Queen-Mary_4565_Montreal_District_CA_H3W_1W5",
    "InstitutionName": "IUGM",
    "InstitutionalDepartmentName": "Department",
    "MRAcquisitionType": "2D",
    "MagneticFieldStrength": 3,
    "Manufacturer": "Siemens",
    "ManufacturersModelName": "Prisma_fit",
    "Modality": "MR",
    "MultibandAccelerationFactor": 4,
    "PartialFourier": 1,
    "PatientPosition": "HFS",
    "PercentPhaseFOV": 100,
    "PhaseEncodingDirection": "j-",
    "PhaseEncodingSteps": 104,
    "PhaseResolution": 1,
    "PixelBandwidth": 2290,
    "ProcedureStepDescription": "video5_generic",
    "ProtocolName": "func_task-wolf7",
    "PulseSequenceDetails": "%CustomerSeq%_cmrr_mbep2d_bold",
    "ReceiveCoilActiveElements": "HC1-7;NC1,2",
    "ReceiveCoilName": "HeadNeck_64",
    "ReconMatrixPE": 104,
    "RepetitionTime": 1.49,
    "SAR": 0.0336836,
    "ScanOptions": "FS",
    "ScanningSequence": "EP",
    "SequenceName": "epfid2d1_104",
    "SequenceVariant": "SK_SS",
    "SeriesDescription": "func_task-wolf7",
    "SeriesNumber": 13,
    "ShimSetting": [
      611,
      -7242,
      -8875,
      377,
      27,
      -353,
      22,
      8
    ],
    "SliceThickness": 2,
    "SliceTiming": [
      0,
      0.785,
      0.1,
      0.8825,
      0.1975,
      0.98,
      0.295,
      1.08,
      0.3925,
      1.1775,
      0.49,
      1.275,
      0.59,
      1.3725,
      0.6875,
      0,
      0.785,
      0.1,
      0.8825,
      0.1975,
      0.98,
      0.295,
      1.08,
      0.3925,
      1.1775,
      0.49,
      1.275,
      0.59,
      1.3725,
      0.6875,
      0,
      0.785,
      0.1,
      0.8825,
      0.1975,
      0.98,
      0.295,
      1.08,
      0.3925,
      1.1775,
      0.49,
      1.275,
      0.59,
      1.3725,
      0.6875,
      0,
      0.785,
      0.1,
      0.8825,
      0.1975,
      0.98,
      0.295,
      1.08,
      0.3925,
      1.1775,
      0.49,
      1.275,
      0.59,
      1.3725,
      0.6875
    ],
    "SoftwareVersions": "syngo_MR_E11",
    "SpacingBetweenSlices": 2,
    "StationName": "MRC35049",
    "TaskName": "wolf07",
    "TotalReadoutTime": 0.0576811,
    "TxRefAmp": 234.504,
    "dataset": "<unset>",
    "dcmmeta_affine": [
      [
        -1.9990311861038208,
        -0.032101187855005264,
        -0.053328655660152435,
        105.56680297851562
      ],
      [
        -0.012688538059592247,
        1.8876875638961792,
        -0.6606622934341431,
        -62.13612747192383
      ],
      [
        -0.060937944799661636,
        0.6600039005279541,
        1.8869768381118774,
        -72.28527069091797
      ],
      [
        0.0,
        0.0,
        0.0,
        1.0
      ]
    ],
    "dcmmeta_reorient_transform": [
      [
        0.0,
        -1.0,
        0.0,
        103.0
      ],
      [
        1.0,
        0.0,
        0.0,
        0.0
      ],
      [
        0.0,
        0.0,
        1.0,
        0.0
      ],
      [
        0.0,
        0.0,
        0.0,
        1.0
      ]
    ],
    "dcmmeta_shape": [
      104,
      104,
      60,
      406
    ],
    "dcmmeta_slice_dim": 2,
    "dcmmeta_version": 0.6,
    "global": {
      "const": {
        "AcquisitionMatrix": [
          104,
          0,
          0,
          104
        ],
        "AngioFlag": "N",
        "BitsAllocated": 16,
        "BitsStored": 16,
        "BodyPartExamined": "BRAIN",
        "Columns": 832,
        "EchoNumbers": 1,
        "EchoTime": 37.0,
        "EchoTrainLength": 104,
        "FlipAngle": 52.0,
        "HighBit": 15,
        "ImageOrientationPatient": [
          0.99951557867178,
          0.00634426904368,
          -0.0304689718028,
          -0.0160505943564,
          0.94384378442554,
          -0.330001953058
        ],
        "ImagePositionPatient": [
          -818.22288651977,
          -824.0325957403,
          258.11796716848
        ],
        "ImageType": [
          "ORIGINAL",
          "PRIMARY",
          "M",
          "MB",
          "ND",
          "MOSAIC"
        ],
        "ImagedNucleus": "1H",
        "ImagingFrequency": 123.259232,
        "InPlanePhaseEncodingDirection": "COL",
        "MRAcquisitionType": "2D",
        "MagneticFieldStrength": 3.0,
        "Manufacturer": "SIEMENS",
        "ManufacturerModelName": "Prisma_fit",
        "Modality": "MR",
        "NumberOfAverages": 1.0,
        "NumberOfPhaseEncodingSteps": 104,
        "PercentPhaseFieldOfView": 100.0,
        "PercentSampling": 100.0,
        "PerformedProcedureStepStartTime": "174610.934000",
        "PhotometricInterpretation": "MONOCHROME2",
        "PixelBandwidth": 2290.0,
        "PixelRepresentation": 0,
        "PixelSpacing": [
          2.0,
          2.0
        ],
        "ProtocolName": "func_task-wolf7",
        "RepetitionTime": 1490.0,
        "Rows": 832,
        "SAR": 0.03368357782121,
        "SamplesPerPixel": 1,
        "ScanOptions": "FS",
        "ScanningSequence": "EP",
        "SequenceName": "epfid2d1_104",
        "SequenceVariant": [
          "SK",
          "SS"
        ],
        "SeriesDescription": "func_task-wolf7",
        "SeriesNumber": 13,
        "SeriesTime": "183503.511000",
        "SliceLocation": -50.489682330204,
        "SliceThickness": 2.0,
        "SmallestImagePixelValue": 0,
        "SoftwareVersions": "syngo MR E11",
        "SpacingBetweenSlices": 1.9999999950406,
        "SpecificCharacterSet": "ISO_IR 100",
        "StudyID": "1",
        "StudyTime": "174610.804000",
        "TransmitCoilName": "Body",
        "VariableFlipAngleFlag": "N",
        "WindowCenterWidthExplanation": "Algo1",
        "dBdt": 0.0
      },
      "slices": {}
    },
    "modality": "bold",
    "session_id": "005",
    "subject_id": "05",
    "task_id": "wolf07",
    "time": {
      "samples": {
        "AcquisitionNumber": [
          1,
          2,
          3,
          4,
          5,
          6,
          7,
          8,
          9,
          10,
          11,
          12,
          13,
          14,
          15,
          16,
          17,
          18,
          19,
          20,
          21,
          22,
          23,
          24,
          25,
          26,
          27,
          28,
          29,
          30,
          31,
          32,
          33,
          34,
          35,
          36,
          37,
          38,
          39,
          40,
          41,
          42,
          43,
          44,
          45,
          46,
          47,
          48,
          49,
          50,
          51,
          52,
          53,
          54,
          55,
          56,
          57,
          58,
          59,
          60,
          61,
          62,
          63,
          64,
          65,
          66,
          67,
          68,
          69,
          70,
          71,
          72,
          73,
          74,
          75,
          76,
          77,
          78,
          79,
          80,
          81,
          82,
          83,
          84,
          85,
          86,
          87,
          88,
          89,
          90,
          91,
          92,
          93,
          94,
          95,
          96,
          97,
          98,
          99,
          100,
          101,
          102,
          103,
          104,
          105,
          106,
          107,
          108,
          109,
          110,
          111,
          112,
          113,
          114,
          115,
          116,
          117,
          118,
          119,
          120,
          121,
          122,
          123,
          124,
          125,
          126,
          127,
          128,
          129,
          130,
          131,
          132,
          133,
          134,
          135,
          136,
          137,
          138,
          139,
          140,
          141,
          142,
          143,
          144,
          145,
          146,
          147,
          148,
          149,
          150,
          151,
          152,
          153,
          154,
          155,
          156,
          157,
          158,
          159,
          160,
          161,
          162,
          163,
          164,
          165,
          166,
          167,
          168,
          169,
          170,
          171,
          172,
          173,
          174,
          175,
          176,
          177,
          178,
          179,
          180,
          181,
          182,
          183,
          184,
          185,
          186,
          187,
          188,
          189,
          190,
          191,
          192,
          193,
          194,
          195,
          196,
          197,
          198,
          199,
          200,
          201,
          202,
          203,
          204,
          205,
          206,
          207,
          208,
          209,
          210,
          211,
          212,
          213,
          214,
          215,
          216,
          217,
          218,
          219,
          220,
          221,
          222,
          223,
          224,
          225,
          226,
          227,
          228,
          229,
          230,
          231,
          232,
          233,
          234,
          235,
          236,
          237,
          238,
          239,
          240,
          241,
          242,
          243,
          244,
          245,
          246,
          247,
          248,
          249,
          250,
          251,
          252,
          253,
          254,
          255,
          256,
          257,
          258,
          259,
          260,
          261,
          262,
          263,
          264,
          265,
          266,
          267,
          268,
          269,
          270,
          271,
          272,
          273,
          274,
          275,
          276,
          277,
          278,
          279,
          280,
          281,
          282,
          283,
          284,
          285,
          286,
          287,
          288,
          289,
          290,
          291,
          292,
          293,
          294,
          295,
          296,
          297,
          298,
          299,
          300,
          301,
          302,
          303,
          304,
          305,
          306,
          307,
          308,
          309,
          310,
          311,
          312,
          313,
          314,
          315,
          316,
          317,
          318,
          319,
          320,
          321,
          322,
          323,
          324,
          325,
          326,
          327,
          328,
          329,
          330,
          331,
          332,
          333,
          334,
          335,
          336,
          337,
          338,
          339,
          340,
          341,
          342,
          343,
          344,
          345,
          346,
          347,
          348,
          349,
          350,
          351,
          352,
          353,
          354,
          355,
          356,
          357,
          358,
          359,
          360,
          361,
          362,
          363,
          364,
          365,
          366,
          367,
          368,
          369,
          370,
          371,
          372,
          373,
          374,
          375,
          376,
          377,
          378,
          379,
          380,
          381,
          382,
          383,
          384,
          385,
          386,
          387,
          388,
          389,
          390,
          391,
          392,
          393,
          394,
          395,
          396,
          397,
          398,
          399,
          400,
          401,
          402,
          403,
          404,
          405,
          406
        ],
        "AcquisitionTime": [
          "183330.462500",
          "183331.952500",
          "183333.442500",
          "183334.932500",
          "183336.422500",
          "183337.912500",
          "183339.402500",
          "183340.892500",
          "183342.382500",
          "183343.872500",
          "183345.362500",
          "183346.852500",
          "183348.342500",
          "183349.832500",
          "183351.322500",
          "183352.812500",
          "183354.302500",
          "183355.792500",
          "183357.282500",
          "183358.772500",
          "183400.262500",
          "183401.752500",
          "183403.242500",
          "183404.732500",
          "183406.222500",
          "183407.712500",
          "183409.202500",
          "183410.692500",
          "183412.182500",
          "183413.672500",
          "183415.162500",
          "183416.652500",
          "183418.142500",
          "183419.632500",
          "183421.122500",
          "183422.612500",
          "183424.102500",
          "183425.592500",
          "183427.082500",
          "183428.572500",
          "183430.062500",
          "183431.552500",
          "183433.042500",
          "183434.532500",
          "183436.022500",
          "183437.512500",
          "183439.002500",
          "183440.492500",
          "183441.982500",
          "183443.472500",
          "183444.962500",
          "183446.452500",
          "183447.942500",
          "183449.432500",
          "183450.922500",
          "183452.412500",
          "183453.902500",
          "183455.392500",
          "183456.882500",
          "183458.372500",
          "183459.862500",
          "183501.352500",
          "183502.842500",
          "183504.332500",
          "183505.822500",
          "183507.312500",
          "183508.802500",
          "183510.292500",
          "183511.782500",
          "183513.272500",
          "183514.762500",
          "183516.252500",
          "183517.742500",
          "183519.232500",
          "183520.722500",
          "183522.212500",
          "183523.702500",
          "183525.192500",
          "183526.682500",
          "183528.172500",
          "183529.662500",
          "183531.152500",
          "183532.642500",
          "183534.132500",
          "183535.622500",
          "183537.112500",
          "183538.602500",
          "183540.092500",
          "183541.582500",
          "183543.072500",
          "183544.562500",
          "183546.052500",
          "183547.542500",
          "183549.032500",
          "183550.522500",
          "183552.012500",
          "183553.502500",
          "183554.992500",
          "183556.482500",
          "183557.972500",
          "183559.462500",
          "183600.952500",
          "183602.442500",
          "183603.932500",
          "183605.422500",
          "183606.912500",
          "183608.402500",
          "183609.892500",
          "183611.382500",
          "183612.872500",
          "183614.362500",
          "183615.852500",
          "183617.342500",
          "183618.832500",
          "183620.322500",
          "183621.812500",
          "183623.302500",
          "183624.792500",
          "183626.282500",
          "183627.772500",
          "183629.262500",
          "183630.752500",
          "183632.242500",
          "183633.732500",
          "183635.222500",
          "183636.712500",
          "183638.202500",
          "183639.692500",
          "183641.182500",
          "183642.672500",
          "183644.162500",
          "183645.652500",
          "183647.142500",
          "183648.632500",
          "183650.122500",
          "183651.612500",
          "183653.102500",
          "183654.592500",
          "183656.082500",
          "183657.572500",
          "183659.062500",
          "183700.552500",
          "183702.042500",
          "183703.532500",
          "183705.022500",
          "183706.512500",
          "183708.002500",
          "183709.492500",
          "183710.982500",
          "183712.472500",
          "183713.962500",
          "183715.452500",
          "183716.942500",
          "183718.432500",
          "183719.922500",
          "183721.412500",
          "183722.902500",
          "183724.392500",
          "183725.882500",
          "183727.372500",
          "183728.862500",
          "183730.352500",
          "183731.842500",
          "183733.332500",
          "183734.822500",
          "183736.312500",
          "183737.802500",
          "183739.292500",
          "183740.782500",
          "183742.272500",
          "183743.762500",
          "183745.252500",
          "183746.742500",
          "183748.232500",
          "183749.722500",
          "183751.212500",
          "183752.702500",
          "183754.192500",
          "183755.682500",
          "183757.172500",
          "183758.662500",
          "183800.152500",
          "183801.642500",
          "183803.132500",
          "183804.622500",
          "183806.112500",
          "183807.602500",
          "183809.092500",
          "183810.582500",
          "183812.072500",
          "183813.562500",
          "183815.052500",
          "183816.542500",
          "183818.032500",
          "183819.522500",
          "183821.012500",
          "183822.502500",
          "183823.992500",
          "183825.482500",
          "183826.972500",
          "183828.462500",
          "183829.952500",
          "183831.442500",
          "183832.932500",
          "183834.422500",
          "183835.912500",
          "183837.402500",
          "183838.892500",
          "183840.382500",
          "183841.872500",
          "183843.362500",
          "183844.852500",
          "183846.342500",
          "183847.832500",
          "183849.322500",
          "183850.812500",
          "183852.302500",
          "183853.792500",
          "183855.282500",
          "183856.772500",
          "183858.262500",
          "183859.752500",
          "183901.242500",
          "183902.732500",
          "183904.222500",
          "183905.712500",
          "183907.202500",
          "183908.692500",
          "183910.182500",
          "183911.672500",
          "183913.162500",
          "183914.652500",
          "183916.142500",
          "183917.632500",
          "183919.122500",
          "183920.612500",
          "183922.102500",
          "183923.592500",
          "183925.082500",
          "183926.572500",
          "183928.062500",
          "183929.552500",
          "183931.042500",
          "183932.532500",
          "183934.022500",
          "183935.512500",
          "183937.002500",
          "183938.492500",
          "183939.982500",
          "183941.472500",
          "183942.962500",
          "183944.452500",
          "183945.942500",
          "183947.432500",
          "183948.922500",
          "183950.412500",
          "183951.902500",
          "183953.392500",
          "183954.882500",
          "183956.372500",
          "183957.862500",
          "183959.352500",
          "184000.842500",
          "184002.332500",
          "184003.822500",
          "184005.312500",
          "184006.802500",
          "184008.292500",
          "184009.782500",
          "184011.272500",
          "184012.762500",
          "184014.252500",
          "184015.742500",
          "184017.232500",
          "184018.722500",
          "184020.212500",
          "184021.702500",
          "184023.192500",
          "184024.682500",
          "184026.172500",
          "184027.662500",
          "184029.152500",
          "184030.642500",
          "184032.132500",
          "184033.622500",
          "184035.112500",
          "184036.602500",
          "184038.092500",
          "184039.582500",
          "184041.072500",
          "184042.562500",
          "184044.052500",
          "184045.542500",
          "184047.032500",
          "184048.522500",
          "184050.012500",
          "184051.502500",
          "184052.992500",
          "184054.482500",
          "184055.972500",
          "184057.462500",
          "184058.952500",
          "184100.442500",
          "184101.932500",
          "184103.422500",
          "184104.912500",
          "184106.402500",
          "184107.892500",
          "184109.382500",
          "184110.872500",
          "184112.362500",
          "184113.852500",
          "184115.342500",
          "184116.832500",
          "184118.322500",
          "184119.812500",
          "184121.302500",
          "184122.792500",
          "184124.282500",
          "184125.772500",
          "184127.262500",
          "184128.752500",
          "184130.242500",
          "184131.732500",
          "184133.222500",
          "184134.712500",
          "184136.202500",
          "184137.692500",
          "184139.182500",
          "184140.672500",
          "184142.162500",
          "184143.652500",
          "184145.142500",
          "184146.632500",
          "184148.122500",
          "184149.612500",
          "184151.102500",
          "184152.592500",
          "184154.082500",
          "184155.572500",
          "184157.062500",
          "184158.552500",
          "184200.042500",
          "184201.532500",
          "184203.022500",
          "184204.512500",
          "184206.002500",
          "184207.492500",
          "184208.982500",
          "184210.472500",
          "184211.962500",
          "184213.452500",
          "184214.942500",
          "184216.432500",
          "184217.922500",
          "184219.412500",
          "184220.902500",
          "184222.392500",
          "184223.882500",
          "184225.372500",
          "184226.862500",
          "184228.352500",
          "184229.842500",
          "184231.332500",
          "184232.822500",
          "184234.312500",
          "184235.802500",
          "184237.292500",
          "184238.782500",
          "184240.272500",
          "184241.762500",
          "184243.252500",
          "184244.742500",
          "184246.232500",
          "184247.722500",
          "184249.212500",
          "184250.702500",
          "184252.192500",
          "184253.682500",
          "184255.172500",
          "184256.662500",
          "184258.152500",
          "184259.642500",
          "184301.132500",
          "184302.622500",
          "184304.112500",
          "184305.602500",
          "184307.092500",
          "184308.582500",
          "184310.072500",
          "184311.562500",
          "184313.052500",
          "184314.542500",
          "184316.032500",
          "184317.522500",
          "184319.012500",
          "184320.502500",
          "184321.992500",
          "184323.482500",
          "184324.972500",
          "184326.462500",
          "184327.952500",
          "184329.442500",
          "184330.932500",
          "184332.422500",
          "184333.912500"
        ],
        "ContentTime": [
          "183503.513000",
          "183503.516000",
          "183503.529000",
          "183503.532000",
          "183503.535000",
          "183503.538000",
          "183503.541000",
          "183503.544000",
          "183503.546000",
          "183503.549000",
          "183503.552000",
          "183503.563000",
          "183503.566000",
          "183503.568000",
          "183503.571000",
          "183503.574000",
          "183503.577000",
          "183503.580000",
          "183503.583000",
          "183503.586000",
          "183503.588000",
          "183503.591000",
          "183503.594000",
          "183503.597000",
          "183503.600000",
          "183503.602000",
          "183503.605000",
          "183503.608000",
          "183503.611000",
          "183503.614000",
          "183503.617000",
          "183503.619000",
          "183503.622000",
          "183503.625000",
          "183503.628000",
          "183503.631000",
          "183503.633000",
          "183503.636000",
          "183503.639000",
          "183503.642000",
          "183523.482000",
          "183523.485000",
          "183523.488000",
          "183523.490000",
          "183523.493000",
          "183523.496000",
          "183523.499000",
          "183523.502000",
          "183523.504000",
          "183523.507000",
          "183523.510000",
          "183523.513000",
          "183523.515000",
          "183523.519000",
          "183523.521000",
          "183523.524000",
          "183523.527000",
          "183523.530000",
          "183523.533000",
          "183523.536000",
          "183543.482000",
          "183543.485000",
          "183543.488000",
          "183543.490000",
          "183543.493000",
          "183543.496000",
          "183543.499000",
          "183543.502000",
          "183543.505000",
          "183543.508000",
          "183543.510000",
          "183543.513000",
          "183543.516000",
          "183543.519000",
          "183543.522000",
          "183543.525000",
          "183543.527000",
          "183543.530000",
          "183543.533000",
          "183543.536000",
          "183603.482000",
          "183603.485000",
          "183603.488000",
          "183603.490000",
          "183603.493000",
          "183603.496000",
          "183603.499000",
          "183603.502000",
          "183603.504000",
          "183603.508000",
          "183603.510000",
          "183603.513000",
          "183603.516000",
          "183603.519000",
          "183603.522000",
          "183603.525000",
          "183603.527000",
          "183603.530000",
          "183603.533000",
          "183603.536000",
          "183643.482000",
          "183643.485000",
          "183643.487000",
          "183643.490000",
          "183643.493000",
          "183643.496000",
          "183643.499000",
          "183643.502000",
          "183643.505000",
          "183643.507000",
          "183643.510000",
          "183643.513000",
          "183643.516000",
          "183643.519000",
          "183643.522000",
          "183643.525000",
          "183643.527000",
          "183643.530000",
          "183643.533000",
          "183643.536000",
          "183643.539000",
          "183643.542000",
          "183643.545000",
          "183643.547000",
          "183643.550000",
          "183643.553000",
          "183643.556000",
          "183643.559000",
          "183643.562000",
          "183723.482000",
          "183723.485000",
          "183723.488000",
          "183723.490000",
          "183723.506000",
          "183723.509000",
          "183723.512000",
          "183723.515000",
          "183723.518000",
          "183723.520000",
          "183723.523000",
          "183723.526000",
          "183723.529000",
          "183723.532000",
          "183723.535000",
          "183723.537000",
          "183723.540000",
          "183723.543000",
          "183723.546000",
          "183723.549000",
          "183723.552000",
          "183723.555000",
          "183723.558000",
          "183723.561000",
          "183723.564000",
          "183723.566000",
          "183723.569000",
          "183803.482000",
          "183803.485000",
          "183803.488000",
          "183803.491000",
          "183803.493000",
          "183803.496000",
          "183803.499000",
          "183803.502000",
          "183803.505000",
          "183803.507000",
          "183803.510000",
          "183803.513000",
          "183803.516000",
          "183803.519000",
          "183803.521000",
          "183803.524000",
          "183803.527000",
          "183803.530000",
          "183803.533000",
          "183803.536000",
          "183803.539000",
          "183803.542000",
          "183803.545000",
          "183803.547000",
          "183803.550000",
          "183803.553000",
          "183843.482000",
          "183843.485000",
          "183843.487000",
          "183843.490000",
          "183843.493000",
          "183843.496000",
          "183843.499000",
          "183843.501000",
          "183843.504000",
          "183843.507000",
          "183843.510000",
          "183843.513000",
          "183843.515000",
          "183843.518000",
          "183843.521000",
          "183843.524000",
          "183843.527000",
          "183843.529000",
          "183843.532000",
          "183843.535000",
          "183843.538000",
          "183843.541000",
          "183843.544000",
          "183843.546000",
          "183843.549000",
          "183843.552000",
          "183843.555000",
          "183923.482000",
          "183923.485000",
          "183923.488000",
          "183923.490000",
          "183923.493000",
          "183923.496000",
          "183923.499000",
          "183923.502000",
          "183923.505000",
          "183923.508000",
          "183923.511000",
          "183923.514000",
          "183923.517000",
          "183923.520000",
          "183923.522000",
