{
  "aor": 0.00033808,
  "aqi": 0.00760778512,
  "bids_meta": {
    "AcquisitionMatrixPE": 104,
    "AcquisitionNumber": 1,
    "AcquisitionTime": "10:59:5.762500",
    "BandwidthPerPixelPhaseEncode": 17.17,
    "BaseResolution": 104,
    "BodyPartExamined": "BRAIN",
    "CogAtlasID": "trm_4c898da401420",
    "ConsistencyInfo": "N4_VE11C_LATEST_20160120",
    "ConversionSoftware": "dcm2niix",
    "ConversionSoftwareVersion": "v1.0.20171215 (OpenJPEG build) GCC7.3.0",
    "DerivedVendorReportedEchoSpacing": 0.000560011,
    "DeviceSerialNumber": "167006",
    "DwellTime": 2.1e-06,
    "EchoTime": 0.037,
    "EchoTrainLength": 104,
    "EffectiveEchoSpacing": 0.000560011,
    "FlipAngle": 52,
    "ImageComments": "Unaliased_MB4_PE3_LB",
    "ImageOrientationPatientDICOM": [
      0.995355,
      0.0922629,
      0.0274857,
      -0.0825327,
      0.964786,
      -0.249751
    ],
    "ImageType": [
      "ORIGINAL",
      "PRIMARY",
      "M",
      "MB",
      "ND",
      "MOSAIC"
    ],
    "InPlanePhaseEncodingDirectionDICOM": "COL",
    "InstitutionAddress": "Chemin_Queen-Mary_4565_Montreal_District_CA_H3W_1W5",
    "InstitutionName": "IUGM",
    "InstitutionalDepartmentName": "Department",
    "MRAcquisitionType": "2D",
    "MagneticFieldStrength": 3,
    "Manufacturer": "Siemens",
    "ManufacturersModelName": "Prisma_fit",
    "Modality": "MR",
    "MultibandAccelerationFactor": 4,
    "PartialFourier": 1,
    "PatientPosition": "HFS",
    "PercentPhaseFOV": 100,
    "PhaseEncodingDirection": "j-",
    "PhaseEncodingSteps": 104,
    "PhaseResolution": 1,
    "PixelBandwidth": 2290,
    "ProcedureStepDescription": "video5_generic",
    "ProtocolName": "func_task-figures12",
    "PulseSequenceDetails": "%CustomerSeq%_cmrr_mbep2d_bold",
    "ReceiveCoilActiveElements": "HC1-7;NC1,2",
    "ReceiveCoilName": "HeadNeck_64",
    "ReconMatrixPE": 104,
    "RepetitionTime": 1.49,
    "SAR": 0.0400713,
    "ScanOptions": "FS",
    "ScanningSequence": "EP",
    "SequenceName": "epfid2d1_104",
    "SequenceVariant": "SK_SS",
    "SeriesDescription": "func_task-figures12",
    "SeriesNumber": 11,
    "ShimSetting": [
      640,
      -7196,
      -8823,
      699,
      128,
      24,
      -14,
      -4
    ],
    "SliceThickness": 2,
    "SliceTiming": [
      0,
      0.785,
      0.1,
      0.8825,
      0.1975,
      0.98,
      0.295,
      1.0775,
      0.3925,
      1.1775,
      0.49,
      1.275,
      0.59,
      1.3725,
      0.6875,
      0,
      0.785,
      0.1,
      0.8825,
      0.1975,
      0.98,
      0.295,
      1.0775,
      0.3925,
      1.1775,
      0.49,
      1.275,
      0.59,
      1.3725,
      0.6875,
      0,
      0.785,
      0.1,
      0.8825,
      0.1975,
      0.98,
      0.295,
      1.0775,
      0.3925,
      1.1775,
      0.49,
      1.275,
      0.59,
      1.3725,
      0.6875,
      0,
      0.785,
      0.1,
      0.8825,
      0.1975,
      0.98,
      0.295,
      1.0775,
      0.3925,
      1.1775,
      0.49,
      1.275,
      0.59,
      1.3725,
      0.6875
    ],
    "SoftwareVersions": "syngo_MR_E11",
    "SpacingBetweenSlices": 2,
    "StationName": "MRC35049",
    "TaskName": "figures12",
    "TotalReadoutTime": 0.0576811,
    "TxRefAmp": 252.888,
    "dataset": "<unset>",
    "dcmmeta_affine": [
      [
        -1.9907104969024658,
        -0.1650654375553131,
        0.09912117570638657,
        111.50300598144531
      ],
      [
        -0.1845257580280304,
        1.929572582244873,
        -0.49264562129974365,
        -62.31692123413086
      ],
      [
        0.054971370846033096,
        0.49950262904167175,
        1.9358396530151367,
        -59.369171142578125
      ],
      [
        0.0,
        0.0,
        0.0,
        1.0
      ]
    ],
    "dcmmeta_reorient_transform": [
      [
        0.0,
        -1.0,
        0.0,
        103.0
      ],
      [
        1.0,
        0.0,
        0.0,
        0.0
      ],
      [
        0.0,
        0.0,
        1.0,
        0.0
      ],
      [
        0.0,
        0.0,
        0.0,
        1.0
      ]
    ],
    "dcmmeta_shape": [
      104,
      104,
      60,
      375
    ],
    "dcmmeta_slice_dim": 2,
    "dcmmeta_version": 0.6,
    "global": {
      "const": {
        "AcquisitionMatrix": [
          104,
          0,
          0,
          104
        ],
        "AngioFlag": "N",
        "BitsAllocated": 16,
        "BitsStored": 16,
        "BodyPartExamined": "BRAIN",
        "Columns": 832,
        "EchoNumbers": 1,
        "EchoTime": 37.0,
        "EchoTrainLength": 104,
        "FlipAngle": 52.0,
        "HighBit": 15,
        "ImageOrientationPatient": [
          0.9953552624181,
          0.09226287820767,
          0.02748568502752,
          -0.0825327193624,
          0.96478631546039,
          -0.2497513077744
        ],
        "ImagePositionPatient": [
          -759.03607483484,
          -905.96087220128,
          153.88897021707
        ],
        "ImageType": [
          "ORIGINAL",
          "PRIMARY",
          "M",
          "MB",
          "ND",
          "MOSAIC"
        ],
        "ImagedNucleus": "1H",
        "ImagingFrequency": 123.259107,
        "InPlanePhaseEncodingDirection": "COL",
        "MRAcquisitionType": "2D",
        "MagneticFieldStrength": 3.0,
        "Manufacturer": "SIEMENS",
        "ManufacturerModelName": "Prisma_fit",
        "Modality": "MR",
        "NumberOfAverages": 1.0,
        "NumberOfPhaseEncodingSteps": 104,
        "PercentPhaseFieldOfView": 100.0,
        "PercentSampling": 100.0,
        "PerformedProcedureStepStartTime": "103536.428000",
        "PhotometricInterpretation": "MONOCHROME2",
        "PixelBandwidth": 2290.0,
        "PixelRepresentation": 0,
        "PixelSpacing": [
          2.0,
          2.0
        ],
        "ProtocolName": "func_task-figures12",
        "RepetitionTime": 1490.0,
        "Rows": 832,
        "SAR": 0.04007130481803,
        "SamplesPerPixel": 1,
        "ScanOptions": "FS",
        "ScanningSequence": "EP",
        "SequenceName": "epfid2d1_104",
        "SequenceVariant": [
          "SK",
          "SS"
        ],
        "SeriesDescription": "func_task-figures12",
        "SeriesNumber": 11,
        "SeriesTime": "110000.486000",
        "SliceLocation": -36.588366497223,
        "SliceThickness": 2.0,
        "SmallestImagePixelValue": 0,
        "SoftwareVersions": "syngo MR E11",
        "SpacingBetweenSlices": 1.999999991301,
        "SpecificCharacterSet": "ISO_IR 100",
        "StudyID": "1",
        "StudyTime": "103536.365000",
        "TransmitCoilName": "Body",
        "VariableFlipAngleFlag": "N",
        "WindowCenterWidthExplanation": "Algo1",
        "dBdt": 0.0
      },
      "slices": {}
    },
    "modality": "bold",
    "run_id": 1,
    "session_id": "009",
    "subject_id": "01",
    "task_id": "figures12",
    "time": {
      "samples": {
        "AcquisitionNumber": [
          1,
          2,
          3,
          4,
          5,
          6,
          7,
          8,
          9,
          10,
          11,
          12,
          13,
          14,
          15,
          16,
          17,
          18,
          19,
          20,
          21,
          22,
          23,
          24,
          25,
          26,
          27,
          28,
          29,
          30,
          31,
          32,
          33,
          34,
          35,
          36,
          37,
          38,
          39,
          40,
          41,
          42,
          43,
          44,
          45,
          46,
          47,
          48,
          49,
          50,
          51,
          52,
          53,
          54,
          55,
          56,
          57,
          58,
          59,
          60,
          61,
          62,
          63,
          64,
          65,
          66,
          67,
          68,
          69,
          70,
          71,
          72,
          73,
          74,
          75,
          76,
          77,
          78,
          79,
          80,
          81,
          82,
          83,
          84,
          85,
          86,
          87,
          88,
          89,
          90,
          91,
          92,
          93,
          94,
          95,
          96,
          97,
          98,
          99,
          100,
          101,
          102,
          103,
          104,
          105,
          106,
          107,
          108,
          109,
          110,
          111,
          112,
          113,
          114,
          115,
          116,
          117,
          118,
          119,
          120,
          121,
          122,
          123,
          124,
          125,
          126,
          127,
          128,
          129,
          130,
          131,
          132,
          133,
          134,
          135,
          136,
          137,
          138,
          139,
          140,
          141,
          142,
          143,
          144,
          145,
          146,
          147,
          148,
          149,
          150,
          151,
          152,
          153,
          154,
          155,
          156,
          157,
          158,
          159,
          160,
          161,
          162,
          163,
          164,
          165,
          166,
          167,
          168,
          169,
          170,
          171,
          172,
          173,
          174,
          175,
          176,
          177,
          178,
          179,
          180,
          181,
          182,
          183,
          184,
          185,
          186,
          187,
          188,
          189,
          190,
          191,
          192,
          193,
          194,
          195,
          196,
          197,
          198,
          199,
          200,
          201,
          202,
          203,
          204,
          205,
          206,
          207,
          208,
          209,
          210,
          211,
          212,
          213,
          214,
          215,
          216,
          217,
          218,
          219,
          220,
          221,
          222,
          223,
          224,
          225,
          226,
          227,
          228,
          229,
          230,
          231,
          232,
          233,
          234,
          235,
          236,
          237,
          238,
          239,
          240,
          241,
          242,
          243,
          244,
          245,
          246,
          247,
          248,
          249,
          250,
          251,
          252,
          253,
          254,
          255,
          256,
          257,
          258,
          259,
          260,
          261,
          262,
          263,
          264,
          265,
          266,
          267,
          268,
          269,
          270,
          271,
          272,
          273,
          274,
          275,
          276,
          277,
          278,
          279,
          280,
          281,
          282,
          283,
          284,
          285,
          286,
          287,
          288,
          289,
          290,
          291,
          292,
          293,
          294,
          295,
          296,
          297,
          298,
          299,
          300,
          301,
          302,
          303,
          304,
          305,
          306,
          307,
          308,
          309,
          310,
          311,
          312,
          313,
          314,
          315,
          316,
          317,
          318,
          319,
          320,
          321,
          322,
          323,
          324,
          325,
          326,
          327,
          328,
          329,
          330,
          331,
          332,
          333,
          334,
          335,
          336,
          337,
          338,
          339,
          340,
          341,
          342,
          343,
          344,
          345,
          346,
          347,
          348,
          349,
          350,
          351,
          352,
          353,
          354,
          355,
          356,
          357,
          358,
          359,
          360,
          361,
          362,
          363,
          364,
          365,
          366,
          367,
          368,
          369,
          370,
          371,
          372,
          373,
          374,
          375
        ],
        "AcquisitionTime": [
          "105905.762500",
          "105907.252500",
          "105908.742500",
          "105910.232500",
          "105911.722500",
          "105913.212500",
          "105914.702500",
          "105916.192500",
          "105917.682500",
          "105919.172500",
          "105920.662500",
          "105922.152500",
          "105923.642500",
          "105925.132500",
          "105926.622500",
          "105928.112500",
          "105929.602500",
          "105931.092500",
          "105932.582500",
          "105934.072500",
          "105935.562500",
          "105937.052500",
          "105938.542500",
          "105940.032500",
          "105941.522500",
          "105943.012500",
          "105944.502500",
          "105945.992500",
          "105947.482500",
          "105948.972500",
          "105950.462500",
          "105951.952500",
          "105953.442500",
          "105954.932500",
          "105956.422500",
          "105957.912500",
          "105959.402500",
          "110000.892500",
          "110002.382500",
          "110003.872500",
          "110005.362500",
          "110006.852500",
          "110008.342500",
          "110009.832500",
          "110011.322500",
          "110012.812500",
          "110014.302500",
          "110015.792500",
          "110017.282500",
          "110018.772500",
          "110020.262500",
          "110021.752500",
          "110023.242500",
          "110024.732500",
          "110026.222500",
          "110027.712500",
          "110029.202500",
          "110030.692500",
          "110032.182500",
          "110033.672500",
          "110035.162500",
          "110036.652500",
          "110038.142500",
          "110039.632500",
          "110041.122500",
          "110042.612500",
          "110044.102500",
          "110045.592500",
          "110047.082500",
          "110048.572500",
          "110050.062500",
          "110051.552500",
          "110053.042500",
          "110054.532500",
          "110056.022500",
          "110057.512500",
          "110059.002500",
          "110100.492500",
          "110101.982500",
          "110103.472500",
          "110104.962500",
          "110106.452500",
          "110107.942500",
          "110109.432500",
          "110110.922500",
          "110112.412500",
          "110113.902500",
          "110115.392500",
          "110116.882500",
          "110118.372500",
          "110119.862500",
          "110121.352500",
          "110122.842500",
          "110124.332500",
          "110125.822500",
          "110127.312500",
          "110128.802500",
          "110130.292500",
          "110131.782500",
          "110133.272500",
          "110134.762500",
          "110136.252500",
          "110137.742500",
          "110139.232500",
          "110140.722500",
          "110142.212500",
          "110143.702500",
          "110145.192500",
          "110146.682500",
          "110148.172500",
          "110149.662500",
          "110151.152500",
          "110152.642500",
          "110154.132500",
          "110155.622500",
          "110157.112500",
          "110158.602500",
          "110200.092500",
          "110201.582500",
          "110203.072500",
          "110204.562500",
          "110206.052500",
          "110207.542500",
          "110209.032500",
          "110210.522500",
          "110212.012500",
          "110213.502500",
          "110214.992500",
          "110216.482500",
          "110217.972500",
          "110219.462500",
          "110220.952500",
          "110222.442500",
          "110223.932500",
          "110225.422500",
          "110226.912500",
          "110228.402500",
          "110229.892500",
          "110231.382500",
          "110232.872500",
          "110234.362500",
          "110235.852500",
          "110237.342500",
          "110238.832500",
          "110240.322500",
          "110241.812500",
          "110243.302500",
          "110244.792500",
          "110246.282500",
          "110247.772500",
          "110249.262500",
          "110250.752500",
          "110252.242500",
          "110253.732500",
          "110255.222500",
          "110256.712500",
          "110258.202500",
          "110259.692500",
          "110301.182500",
          "110302.672500",
          "110304.162500",
          "110305.652500",
          "110307.142500",
          "110308.632500",
          "110310.122500",
          "110311.612500",
          "110313.102500",
          "110314.592500",
          "110316.082500",
          "110317.572500",
          "110319.062500",
          "110320.552500",
          "110322.042500",
          "110323.532500",
          "110325.022500",
          "110326.512500",
          "110328.002500",
          "110329.492500",
          "110330.982500",
          "110332.472500",
          "110333.962500",
          "110335.452500",
          "110336.942500",
          "110338.432500",
          "110339.922500",
          "110341.412500",
          "110342.902500",
          "110344.392500",
          "110345.882500",
          "110347.372500",
          "110348.862500",
          "110350.352500",
          "110351.842500",
          "110353.332500",
          "110354.822500",
          "110356.312500",
          "110357.802500",
          "110359.292500",
          "110400.782500",
          "110402.272500",
          "110403.762500",
          "110405.252500",
          "110406.742500",
          "110408.232500",
          "110409.722500",
          "110411.212500",
          "110412.702500",
          "110414.192500",
          "110415.682500",
          "110417.172500",
          "110418.662500",
          "110420.152500",
          "110421.642500",
          "110423.132500",
          "110424.622500",
          "110426.112500",
          "110427.602500",
          "110429.092500",
          "110430.582500",
          "110432.072500",
          "110433.562500",
          "110435.052500",
          "110436.542500",
          "110438.032500",
          "110439.522500",
          "110441.012500",
          "110442.502500",
          "110443.992500",
          "110445.482500",
          "110446.972500",
          "110448.462500",
          "110449.952500",
          "110451.442500",
          "110452.932500",
          "110454.422500",
          "110455.912500",
          "110457.402500",
          "110458.892500",
          "110500.382500",
          "110501.872500",
          "110503.362500",
          "110504.852500",
          "110506.342500",
          "110507.832500",
          "110509.322500",
          "110510.812500",
          "110512.302500",
          "110513.792500",
          "110515.282500",
          "110516.772500",
          "110518.262500",
          "110519.752500",
          "110521.242500",
          "110522.732500",
          "110524.222500",
          "110525.712500",
          "110527.202500",
          "110528.692500",
          "110530.182500",
          "110531.672500",
          "110533.162500",
          "110534.652500",
          "110536.142500",
          "110537.632500",
          "110539.122500",
          "110540.612500",
          "110542.102500",
          "110543.592500",
          "110545.082500",
          "110546.572500",
          "110548.062500",
          "110549.552500",
          "110551.042500",
          "110552.532500",
          "110554.022500",
          "110555.512500",
          "110557.002500",
          "110558.492500",
          "110559.982500",
          "110601.472500",
          "110602.962500",
          "110604.452500",
          "110605.942500",
          "110607.432500",
          "110608.922500",
          "110610.412500",
          "110611.902500",
          "110613.392500",
          "110614.882500",
          "110616.372500",
          "110617.862500",
          "110619.352500",
          "110620.842500",
          "110622.332500",
          "110623.822500",
          "110625.312500",
          "110626.802500",
          "110628.292500",
          "110629.782500",
          "110631.272500",
          "110632.762500",
          "110634.252500",
          "110635.742500",
          "110637.232500",
          "110638.722500",
          "110640.212500",
          "110641.702500",
          "110643.192500",
          "110644.682500",
          "110646.172500",
          "110647.662500",
          "110649.152500",
          "110650.642500",
          "110652.132500",
          "110653.622500",
          "110655.112500",
          "110656.602500",
          "110658.092500",
          "110659.582500",
          "110701.072500",
          "110702.562500",
          "110704.052500",
          "110705.542500",
          "110707.032500",
          "110708.522500",
          "110710.012500",
          "110711.502500",
          "110712.992500",
          "110714.482500",
          "110715.972500",
          "110717.462500",
          "110718.952500",
          "110720.442500",
          "110721.932500",
          "110723.422500",
          "110724.912500",
          "110726.402500",
          "110727.892500",
          "110729.382500",
          "110730.872500",
          "110732.362500",
          "110733.852500",
          "110735.342500",
          "110736.832500",
          "110738.322500",
          "110739.812500",
          "110741.302500",
          "110742.792500",
          "110744.282500",
          "110745.772500",
          "110747.262500",
          "110748.752500",
          "110750.242500",
          "110751.732500",
          "110753.222500",
          "110754.712500",
          "110756.202500",
          "110757.692500",
          "110759.182500",
          "110800.672500",
          "110802.162500",
          "110803.652500",
          "110805.142500",
          "110806.632500",
          "110808.122500",
          "110809.612500",
          "110811.102500",
          "110812.592500",
          "110814.082500",
          "110815.572500",
          "110817.062500",
          "110818.552500",
          "110820.042500",
          "110821.532500",
          "110823.022500"
        ],
        "ContentTime": [
          "110000.488000",
          "110001.487000",
          "110002.487000",
          "110003.487000",
          "110004.487000",
          "110005.486000",
          "110006.486000",
          "110007.486000",
          "110008.486000",
          "110009.486000",
          "110010.486000",
          "110011.486000",
          "110012.486000",
          "110013.486000",
          "110014.486000",
          "110015.486000",
          "110016.486000",
          "110017.487000",
          "110018.487000",
          "110019.487000",
          "110020.487000",
          "110021.487000",
          "110022.486000",
          "110023.486000",
          "110024.486000",
          "110025.486000",
          "110026.486000",
          "110027.486000",
          "110028.486000",
          "110028.986000",
          "110030.486000",
          "110030.986000",
          "110031.986000",
          "110032.986000",
          "110033.986000",
          "110034.987000",
          "110035.987000",
          "110036.987000",
          "110037.987000",
          "110038.987000",
          "110039.986000",
          "110040.986000",
          "110041.986000",
          "110042.986000",
          "110043.986000",
          "110044.986000",
          "110045.986000",
          "110046.986000",
          "110047.986000",
          "110048.986000",
          "110049.986000",
          "110050.986000",
          "110051.986000",
          "110052.987000",
          "110053.987000",
          "110054.987000",
          "110055.987000",
          "110056.987000",
          "110057.986000",
          "110058.986000",
          "110059.986000",
          "110100.986000",
          "110101.986000",
          "110102.986000",
          "110103.986000",
          "110104.986000",
          "110105.986000",
          "110106.986000",
          "110107.986000",
          "110108.986000",
          "110109.987000",
          "110110.987000",
          "110111.987000",
          "110112.987000",
          "110113.987000",
          "110114.986000",
          "110115.986000",
          "110116.986000",
          "110117.986000",
          "110118.986000",
          "110119.986000",
          "110120.986000",
          "110121.986000",
          "110122.986000",
          "110123.986000",
          "110124.986000",
          "110125.986000",
          "110126.986000",
          "110127.987000",
          "110128.987000",
          "110129.987000",
          "110130.987000",
          "110131.987000",
          "110132.986000",
          "110133.486000",
          "110134.986000",
          "110135.486000",
          "110136.486000",
          "110137.486000",
          "110138.486000",
          "110139.486000",
          "110140.486000",
          "110141.486000",
          "110142.486000",
          "110143.486000",
          "110144.486000",
          "110145.487000",
          "110146.987000",
          "110148.487000",
          "110149.986000",
          "110151.486000",
          "110152.986000",
          "110154.486000",
          "110155.986000",
          "110157.486000",
          "110159.003000",
          "110200.486000",
          "110201.987000",
          "110203.487000",
          "110204.987000",
          "110206.487000",
          "110207.986000",
          "110209.486000",
          "110210.986000",
          "110212.486000",
          "110213.986000",
          "110215.486000",
          "110216.986000",
          "110218.486000",
          "110219.987000",
          "110221.487000",
          "110222.987000",
          "110224.487000",
          "110225.986000",
          "110227.486000",
          "110228.986000",
          "110230.486000",
          "110231.986000",
          "110233.486000",
          "110234.986000",
          "110236.486000",
          "110237.987000",
          "110239.487000",
          "110240.987000",
          "110242.486000",
          "110243.986000",
          "110245.486000",
          "110246.986000",
          "110248.486000",
          "110249.986000",
          "110250.986000",
          "110252.486000",
          "110253.986000",
          "110255.487000",
          "110256.987000",
          "110258.487000",
          "110259.986000",
          "110301.486000",
          "110302.986000",
          "110304.486000",
          "110305.986000",
          "110307.486000",
          "110308.986000",
          "110310.486000",
          "110311.987000",
          "110313.487000",
          "110314.987000",
          "110316.487000",
          "110317.986000",
          "110319.486000",
          "110320.986000",
          "110322.486000",
          "110323.986000",
          "110325.486000",
          "110326.986000",
          "110328.486000",
          "110329.987000",
          "110331.487000",
          "110332.987000",
          "110334.487000",
          "110335.986000",
          "110337.486000",
          "110338.986000",
          "110340.486000",
          "110341.986000",
          "110343.486000",
          "110344.986000",
          "110346.486000",
          "110348.007000",
          "110349.487000",
          "110350.987000",
          "110352.486000",
          "110353.986000",
          "110355.486000",
          "110356.986000",
          "110358.486000",
          "110359.986000",
          "110401.486000",
          "110402.986000",
          "110403.986000",
          "110405.487000",
          "110406.987000",
          "110408.487000",
          "110409.986000",
          "110411.486000",
          "110412.986000",
          "110414.486000",
          "110415.986000",
          "110417.486000",
          "110418.986000",
          "110420.486000",
          "110421.987000",
          "110423.487000",
          "110424.987000",
          "110426.487000",
          "110427.986000",
          "110429.486000",
          "110430.986000",
          "110432.486000",
          "110433.986000",
          "110435.486000",
          "110436.986000",
          "110438.486000",
          "110439.987000",
          "110441.487000",
          "110442.987000",
          "110444.487000",
          "110445.986000",
          "110447.486000",
          "110448.986000",
          "110450.486000",
          "110451.986000",
          "110453.486000",
          "110454.986000",
          "110456.486000",
          "110457.987000",
          "110459.487000",
          "110501.007000",
          "110502.486000",
          "110503.986000",
          "110505.486000",
          "110506.986000",
          "110508.486000",
          "110509.986000",
          "110511.486000",
          "110512.986000",
          "110514.487000",
          "110515.987000",
          "110517.487000",
          "110518.487000",
          "110519.986000",
          "110521.486000",
          "110522.986000",
          "110524.486000",
          "110525.986000",
          "110527.486000",
          "110528.986000",
          "110530.486000",
          "110531.987000",
          "110533.487000",
          "110535.007000",
          "110536.487000",
          "110537.986000",
          "110539.486000",
          "110540.986000",
          "110542.486000",
          "110543.986000",
          "110545.486000",
          "110546.986000",
          "110548.486000",
          "110550.007000",
          "110551.487000",
