{
  "aor": 0.004118325123152709,
  "aqi": 0.009114970123152709,
  "bids_meta": {
    "AcquisitionMatrixPE": 104,
    "AcquisitionNumber": 1,
    "AcquisitionTime": "19:29:42.860000",
    "BandwidthPerPixelPhaseEncode": 17.17,
    "BaseResolution": 104,
    "BodyPartExamined": "BRAIN",
    "CogAtlasID": "trm_4c898da401420",
    "ConsistencyInfo": "N4_VE11C_LATEST_20160120",
    "ConversionSoftware": "dcm2niix",
    "ConversionSoftwareVersion": "v1.0.20171215 (OpenJPEG build) GCC7.3.0",
    "DerivedVendorReportedEchoSpacing": 0.000560011,
    "DeviceSerialNumber": "167006",
    "DwellTime": 2.1e-06,
    "EchoTime": 0.037,
    "EchoTrainLength": 104,
    "EffectiveEchoSpacing": 0.000560011,
    "FlipAngle": 52,
    "ImageComments": "Unaliased_MB4_PE3_LB",
    "ImageOrientationPatientDICOM": [
      0.998466,
      0.0215237,
      -0.05101,
      -0.0380082,
      0.936407,
      -0.348852
    ],
    "ImageType": [
      "ORIGINAL",
      "PRIMARY",
      "M",
      "MB",
      "ND",
      "MOSAIC"
    ],
    "InPlanePhaseEncodingDirectionDICOM": "COL",
    "InstitutionAddress": "Chemin_Queen-Mary_4565_Montreal_District_CA_H3W_1W5",
    "InstitutionName": "IUGM",
    "InstitutionalDepartmentName": "Department",
    "MRAcquisitionType": "2D",
    "MagneticFieldStrength": 3,
    "Manufacturer": "Siemens",
    "ManufacturersModelName": "Prisma_fit",
    "Modality": "MR",
    "MultibandAccelerationFactor": 4,
    "PartialFourier": 1,
    "PatientPosition": "HFS",
    "PercentPhaseFOV": 100,
    "PhaseEncodingDirection": "j-",
    "PhaseEncodingSteps": 104,
    "PhaseResolution": 1,
    "PixelBandwidth": 2290,
    "ProcedureStepDescription": "video5_generic",
    "ProtocolName": "func_task-wolf1",
    "PulseSequenceDetails": "%CustomerSeq%_cmrr_mbep2d_bold",
    "ReceiveCoilActiveElements": "HC1-7;NC1,2",
    "ReceiveCoilName": "HeadNeck_64",
    "ReconMatrixPE": 104,
    "RepetitionTime": 1.49,
    "SAR": 0.0309303,
    "ScanOptions": "FS",
    "ScanningSequence": "EP",
    "SequenceName": "epfid2d1_104",
    "SequenceVariant": "SK_SS",
    "SeriesDescription": "func_task-wolf1",
    "SeriesNumber": 7,
    "ShimSetting": [
      605,
      -7231,
      -8886,
      359,
      10,
      -352,
      19,
      36
    ],
    "SliceThickness": 2,
    "SliceTiming": [
      0,
      0.785,
      0.0975,
      0.8825,
      0.195,
      0.98,
      0.295,
      1.0775,
      0.3925,
      1.175,
      0.49,
      1.275,
      0.5875,
      1.3725,
      0.685,
      0,
      0.785,
      0.0975,
      0.8825,
      0.195,
      0.98,
      0.295,
      1.0775,
      0.3925,
      1.175,
      0.49,
      1.275,
      0.5875,
      1.3725,
      0.685,
      0,
      0.785,
      0.0975,
      0.8825,
      0.195,
      0.98,
      0.295,
      1.0775,
      0.3925,
      1.175,
      0.49,
      1.275,
      0.5875,
      1.3725,
      0.685,
      0,
      0.785,
      0.0975,
      0.8825,
      0.195,
      0.98,
      0.295,
      1.0775,
      0.3925,
      1.175,
      0.49,
      1.275,
      0.5875,
      1.3725,
      0.685
    ],
    "SoftwareVersions": "syngo_MR_E11",
    "SpacingBetweenSlices": 2,
    "StationName": "MRC35049",
    "TaskName": "wolf01",
    "TotalReadoutTime": 0.0576811,
    "TxRefAmp": 228.724,
    "dataset": "<unset>",
    "dcmmeta_affine": [
      [
        -1.9969323873519897,
        -0.07601634413003922,
        -0.080515056848526,
        108.53388214111328
      ],
      [
        -0.043047383427619934,
        1.8728134632110596,
        -0.7005115747451782,
        -58.73933792114258
      ],
      [
        -0.1020200103521347,
        0.6977041363716125,
        1.8715770244598389,
        -76.75608825683594
      ],
      [
        0.0,
        0.0,
        0.0,
        1.0
      ]
    ],
    "dcmmeta_reorient_transform": [
      [
        0.0,
        -1.0,
        0.0,
        103.0
      ],
      [
        1.0,
        0.0,
        0.0,
        0.0
      ],
      [
        0.0,
        0.0,
        1.0,
        0.0
      ],
      [
        0.0,
        0.0,
        0.0,
        1.0
      ]
    ],
    "dcmmeta_shape": [
      104,
      104,
      60,
      406
    ],
    "dcmmeta_slice_dim": 2,
    "dcmmeta_version": 0.6,
    "global": {
      "const": {
        "AcquisitionMatrix": [
          104,
          0,
          0,
          104
        ],
        "AngioFlag": "N",
        "BitsAllocated": 16,
        "BitsStored": 16,
        "BodyPartExamined": "BRAIN",
        "Columns": 832,
        "EchoNumbers": 1,
        "EchoTime": 37.0,
        "EchoTrainLength": 104,
        "FlipAngle": 52.0,
        "HighBit": 15,
        "ImageOrientationPatient": [
          0.99846617871422,
          0.02152369167098,
          -0.0510100054958,
          -0.038008173872,
          0.93640675708445,
          -0.348852066076
        ],
        "ImagePositionPatient": [
          -799.91762589999,
          -831.53381985744,
          286.20702546911
        ],
        "ImageType": [
          "ORIGINAL",
          "PRIMARY",
          "M",
          "MB",
          "ND",
          "MOSAIC"
        ],
        "ImagedNucleus": "1H",
        "ImagingFrequency": 123.259238,
        "InPlanePhaseEncodingDirection": "COL",
        "MRAcquisitionType": "2D",
        "MagneticFieldStrength": 3.0,
        "Manufacturer": "SIEMENS",
        "ManufacturerModelName": "Prisma_fit",
        "Modality": "MR",
        "NumberOfAverages": 1.0,
        "NumberOfPhaseEncodingSteps": 104,
        "PercentPhaseFieldOfView": 100.0,
        "PercentSampling": 100.0,
        "PerformedProcedureStepStartTime": "192519.448000",
        "PhotometricInterpretation": "MONOCHROME2",
        "PixelBandwidth": 2290.0,
        "PixelRepresentation": 0,
        "PixelSpacing": [
          2.0,
          2.0
        ],
        "ProtocolName": "func_task-wolf1",
        "RepetitionTime": 1490.0,
        "Rows": 832,
        "SAR": 0.03093029993941,
        "SamplesPerPixel": 1,
        "ScanOptions": "FS",
        "ScanningSequence": "EP",
        "SequenceName": "epfid2d1_104",
        "SequenceVariant": [
          "SK",
          "SS"
        ],
        "SeriesDescription": "func_task-wolf1",
        "SeriesNumber": 7,
        "SeriesTime": "193108.981000",
        "SliceLocation": -55.622981386991,
        "SliceThickness": 2.0,
        "SmallestImagePixelValue": 0,
        "SoftwareVersions": "syngo MR E11",
        "SpacingBetweenSlices": 1.9999999495789,
        "SpecificCharacterSet": "ISO_IR 100",
        "StudyID": "1",
        "StudyTime": "192519.381000",
        "TransmitCoilName": "Body",
        "VariableFlipAngleFlag": "N",
        "WindowCenterWidthExplanation": "Algo1",
        "dBdt": 0.0
      },
      "slices": {}
    },
    "modality": "bold",
    "session_id": "004",
    "subject_id": "05",
    "task_id": "wolf01",
    "time": {
      "samples": {
        "AcquisitionNumber": [
          1,
          2,
          3,
          4,
          5,
          6,
          7,
          8,
          9,
          10,
          11,
          12,
          13,
          14,
          15,
          16,
          17,
          18,
          19,
          20,
          21,
          22,
          23,
          24,
          25,
          26,
          27,
          28,
          29,
          30,
          31,
          32,
          33,
          34,
          35,
          36,
          37,
          38,
          39,
          40,
          41,
          42,
          43,
          44,
          45,
          46,
          47,
          48,
          49,
          50,
          51,
          52,
          53,
          54,
          55,
          56,
          57,
          58,
          59,
          60,
          61,
          62,
          63,
          64,
          65,
          66,
          67,
          68,
          69,
          70,
          71,
          72,
          73,
          74,
          75,
          76,
          77,
          78,
          79,
          80,
          81,
          82,
          83,
          84,
          85,
          86,
          87,
          88,
          89,
          90,
          91,
          92,
          93,
          94,
          95,
          96,
          97,
          98,
          99,
          100,
          101,
          102,
          103,
          104,
          105,
          106,
          107,
          108,
          109,
          110,
          111,
          112,
          113,
          114,
          115,
          116,
          117,
          118,
          119,
          120,
          121,
          122,
          123,
          124,
          125,
          126,
          127,
          128,
          129,
          130,
          131,
          132,
          133,
          134,
          135,
          136,
          137,
          138,
          139,
          140,
          141,
          142,
          143,
          144,
          145,
          146,
          147,
          148,
          149,
          150,
          151,
          152,
          153,
          154,
          155,
          156,
          157,
          158,
          159,
          160,
          161,
          162,
          163,
          164,
          165,
          166,
          167,
          168,
          169,
          170,
          171,
          172,
          173,
          174,
          175,
          176,
          177,
          178,
          179,
          180,
          181,
          182,
          183,
          184,
          185,
          186,
          187,
          188,
          189,
          190,
          191,
          192,
          193,
          194,
          195,
          196,
          197,
          198,
          199,
          200,
          201,
          202,
          203,
          204,
          205,
          206,
          207,
          208,
          209,
          210,
          211,
          212,
          213,
          214,
          215,
          216,
          217,
          218,
          219,
          220,
          221,
          222,
          223,
          224,
          225,
          226,
          227,
          228,
          229,
          230,
          231,
          232,
          233,
          234,
          235,
          236,
          237,
          238,
          239,
          240,
          241,
          242,
          243,
          244,
          245,
          246,
          247,
          248,
          249,
          250,
          251,
          252,
          253,
          254,
          255,
          256,
          257,
          258,
          259,
          260,
          261,
          262,
          263,
          264,
          265,
          266,
          267,
          268,
          269,
          270,
          271,
          272,
          273,
          274,
          275,
          276,
          277,
          278,
          279,
          280,
          281,
          282,
          283,
          284,
          285,
          286,
          287,
          288,
          289,
          290,
          291,
          292,
          293,
          294,
          295,
          296,
          297,
          298,
          299,
          300,
          301,
          302,
          303,
          304,
          305,
          306,
          307,
          308,
          309,
          310,
          311,
          312,
          313,
          314,
          315,
          316,
          317,
          318,
          319,
          320,
          321,
          322,
          323,
          324,
          325,
          326,
          327,
          328,
          329,
          330,
          331,
          332,
          333,
          334,
          335,
          336,
          337,
          338,
          339,
          340,
          341,
          342,
          343,
          344,
          345,
          346,
          347,
          348,
          349,
          350,
          351,
          352,
          353,
          354,
          355,
          356,
          357,
          358,
          359,
          360,
          361,
          362,
          363,
          364,
          365,
          366,
          367,
          368,
          369,
          370,
          371,
          372,
          373,
          374,
          375,
          376,
          377,
          378,
          379,
          380,
          381,
          382,
          383,
          384,
          385,
          386,
          387,
          388,
          389,
          390,
          391,
          392,
          393,
          394,
          395,
          396,
          397,
          398,
          399,
          400,
          401,
          402,
          403,
          404,
          405,
          406
        ],
        "AcquisitionTime": [
          "192942.860000",
          "192944.350000",
          "192945.840000",
          "192947.330000",
          "192948.820000",
          "192950.310000",
          "192951.800000",
          "192953.290000",
          "192954.780000",
          "192956.270000",
          "192957.760000",
          "192959.250000",
          "193000.740000",
          "193002.230000",
          "193003.720000",
          "193005.210000",
          "193006.700000",
          "193008.190000",
          "193009.680000",
          "193011.170000",
          "193012.660000",
          "193014.150000",
          "193015.640000",
          "193017.130000",
          "193018.620000",
          "193020.110000",
          "193021.600000",
          "193023.090000",
          "193024.580000",
          "193026.070000",
          "193027.560000",
          "193029.050000",
          "193030.540000",
          "193032.030000",
          "193033.520000",
          "193035.010000",
          "193036.500000",
          "193037.990000",
          "193039.480000",
          "193040.970000",
          "193042.460000",
          "193043.950000",
          "193045.440000",
          "193046.930000",
          "193048.420000",
          "193049.910000",
          "193051.400000",
          "193052.890000",
          "193054.380000",
          "193055.870000",
          "193057.360000",
          "193058.850000",
          "193100.340000",
          "193101.830000",
          "193103.320000",
          "193104.810000",
          "193106.300000",
          "193107.790000",
          "193109.280000",
          "193110.770000",
          "193112.260000",
          "193113.750000",
          "193115.240000",
          "193116.730000",
          "193118.220000",
          "193119.710000",
          "193121.200000",
          "193122.690000",
          "193124.180000",
          "193125.670000",
          "193127.160000",
          "193128.650000",
          "193130.140000",
          "193131.630000",
          "193133.120000",
          "193134.610000",
          "193136.100000",
          "193137.590000",
          "193139.080000",
          "193140.570000",
          "193142.060000",
          "193143.550000",
          "193145.040000",
          "193146.530000",
          "193148.020000",
          "193149.510000",
          "193151.000000",
          "193152.490000",
          "193153.980000",
          "193155.470000",
          "193156.960000",
          "193158.450000",
          "193159.940000",
          "193201.430000",
          "193202.920000",
          "193204.410000",
          "193205.900000",
          "193207.390000",
          "193208.880000",
          "193210.370000",
          "193211.860000",
          "193213.350000",
          "193214.840000",
          "193216.330000",
          "193217.820000",
          "193219.310000",
          "193220.800000",
          "193222.290000",
          "193223.780000",
          "193225.270000",
          "193226.760000",
          "193228.250000",
          "193229.740000",
          "193231.230000",
          "193232.720000",
          "193234.210000",
          "193235.700000",
          "193237.190000",
          "193238.680000",
          "193240.170000",
          "193241.660000",
          "193243.150000",
          "193244.640000",
          "193246.130000",
          "193247.620000",
          "193249.110000",
          "193250.600000",
          "193252.090000",
          "193253.580000",
          "193255.070000",
          "193256.560000",
          "193258.050000",
          "193259.540000",
          "193301.030000",
          "193302.520000",
          "193304.010000",
          "193305.500000",
          "193306.990000",
          "193308.480000",
          "193309.970000",
          "193311.460000",
          "193312.950000",
          "193314.440000",
          "193315.930000",
          "193317.420000",
          "193318.910000",
          "193320.400000",
          "193321.890000",
          "193323.380000",
          "193324.870000",
          "193326.360000",
          "193327.850000",
          "193329.340000",
          "193330.830000",
          "193332.320000",
          "193333.810000",
          "193335.300000",
          "193336.790000",
          "193338.280000",
          "193339.770000",
          "193341.260000",
          "193342.750000",
          "193344.240000",
          "193345.730000",
          "193347.220000",
          "193348.710000",
          "193350.200000",
          "193351.690000",
          "193353.180000",
          "193354.670000",
          "193356.160000",
          "193357.650000",
          "193359.140000",
          "193400.630000",
          "193402.120000",
          "193403.610000",
          "193405.100000",
          "193406.590000",
          "193408.080000",
          "193409.570000",
          "193411.060000",
          "193412.550000",
          "193414.040000",
          "193415.530000",
          "193417.020000",
          "193418.510000",
          "193420.000000",
          "193421.490000",
          "193422.980000",
          "193424.470000",
          "193425.960000",
          "193427.450000",
          "193428.940000",
          "193430.430000",
          "193431.920000",
          "193433.410000",
          "193434.900000",
          "193436.390000",
          "193437.880000",
          "193439.370000",
          "193440.860000",
          "193442.350000",
          "193443.840000",
          "193445.330000",
          "193446.820000",
          "193448.310000",
          "193449.800000",
          "193451.290000",
          "193452.780000",
          "193454.270000",
          "193455.760000",
          "193457.250000",
          "193458.740000",
          "193500.230000",
          "193501.720000",
          "193503.210000",
          "193504.700000",
          "193506.190000",
          "193507.680000",
          "193509.170000",
          "193510.660000",
          "193512.150000",
          "193513.640000",
          "193515.130000",
          "193516.620000",
          "193518.110000",
          "193519.600000",
          "193521.090000",
          "193522.580000",
          "193524.070000",
          "193525.560000",
          "193527.050000",
          "193528.540000",
          "193530.030000",
          "193531.520000",
          "193533.010000",
          "193534.500000",
          "193535.990000",
          "193537.480000",
          "193538.970000",
          "193540.460000",
          "193541.950000",
          "193543.440000",
          "193544.930000",
          "193546.420000",
          "193547.910000",
          "193549.400000",
          "193550.890000",
          "193552.380000",
          "193553.870000",
          "193555.360000",
          "193556.850000",
          "193558.340000",
          "193559.830000",
          "193601.320000",
          "193602.810000",
          "193604.300000",
          "193605.790000",
          "193607.280000",
          "193608.770000",
          "193610.260000",
          "193611.750000",
          "193613.240000",
          "193614.730000",
          "193616.220000",
          "193617.710000",
          "193619.200000",
          "193620.690000",
          "193622.180000",
          "193623.670000",
          "193625.160000",
          "193626.650000",
          "193628.140000",
          "193629.630000",
          "193631.120000",
          "193632.610000",
          "193634.100000",
          "193635.590000",
          "193637.080000",
          "193638.570000",
          "193640.060000",
          "193641.550000",
          "193643.040000",
          "193644.530000",
          "193646.020000",
          "193647.510000",
          "193649.000000",
          "193650.490000",
          "193651.980000",
          "193653.470000",
          "193654.960000",
          "193656.450000",
          "193657.940000",
          "193659.430000",
          "193700.920000",
          "193702.410000",
          "193703.900000",
          "193705.390000",
          "193706.880000",
          "193708.370000",
          "193709.860000",
          "193711.350000",
          "193712.840000",
          "193714.330000",
          "193715.820000",
          "193717.310000",
          "193718.800000",
          "193720.290000",
          "193721.780000",
          "193723.270000",
          "193724.760000",
          "193726.250000",
          "193727.740000",
          "193729.230000",
          "193730.720000",
          "193732.210000",
          "193733.700000",
          "193735.190000",
          "193736.680000",
          "193738.170000",
          "193739.660000",
          "193741.150000",
          "193742.640000",
          "193744.130000",
          "193745.620000",
          "193747.110000",
          "193748.600000",
          "193750.090000",
          "193751.580000",
          "193753.070000",
          "193754.560000",
          "193756.050000",
          "193757.540000",
          "193759.030000",
          "193800.520000",
          "193802.010000",
          "193803.500000",
          "193804.990000",
          "193806.480000",
          "193807.970000",
          "193809.460000",
          "193810.950000",
          "193812.440000",
          "193813.930000",
          "193815.420000",
          "193816.910000",
          "193818.400000",
          "193819.890000",
          "193821.380000",
          "193822.870000",
          "193824.360000",
          "193825.850000",
          "193827.340000",
          "193828.830000",
          "193830.320000",
          "193831.810000",
          "193833.300000",
          "193834.790000",
          "193836.280000",
          "193837.770000",
          "193839.260000",
          "193840.750000",
          "193842.240000",
          "193843.730000",
          "193845.220000",
          "193846.710000",
          "193848.200000",
          "193849.690000",
          "193851.180000",
          "193852.670000",
          "193854.160000",
          "193855.650000",
          "193857.140000",
          "193858.630000",
          "193900.120000",
          "193901.610000",
          "193903.100000",
          "193904.590000",
          "193906.080000",
          "193907.570000",
          "193909.060000",
          "193910.550000",
          "193912.040000",
          "193913.530000",
          "193915.020000",
          "193916.510000",
          "193918.000000",
          "193919.490000",
          "193920.980000",
          "193922.470000",
          "193923.960000",
          "193925.450000",
          "193926.940000",
          "193928.430000",
          "193929.920000",
          "193931.410000",
          "193932.900000",
          "193934.390000",
          "193935.880000",
          "193937.370000",
          "193938.860000",
          "193940.350000",
          "193941.840000",
          "193943.330000",
          "193944.820000",
          "193946.310000"
        ],
        "ContentTime": [
          "193108.984000",
          "193108.987000",
          "193108.990000",
          "193108.993000",
          "193108.996000",
          "193109.000000",
          "193109.003000",
          "193109.006000",
          "193109.010000",
          "193109.013000",
          "193109.016000",
          "193109.019000",
          "193109.022000",
          "193109.025000",
          "193109.028000",
          "193109.031000",
          "193109.034000",
          "193109.036000",
          "193109.039000",
          "193109.042000",
          "193109.045000",
          "193109.048000",
          "193109.051000",
          "193109.054000",
          "193109.065000",
          "193109.068000",
          "193109.071000",
          "193109.074000",
          "193109.077000",
          "193109.080000",
          "193109.083000",
          "193109.085000",
          "193128.955000",
          "193128.958000",
          "193128.961000",
          "193128.964000",
          "193128.967000",
          "193128.970000",
          "193128.973000",
          "193128.976000",
          "193128.979000",
          "193128.982000",
          "193128.985000",
          "193128.988000",
          "193128.991000",
          "193128.993000",
          "193128.996000",
          "193129.000000",
          "193129.003000",
          "193129.006000",
          "193129.009000",
          "193129.012000",
          "193148.955000",
          "193148.958000",
          "193148.961000",
          "193148.964000",
          "193148.967000",
          "193148.969000",
          "193148.972000",
          "193148.975000",
          "193148.978000",
          "193148.981000",
          "193148.984000",
          "193148.987000",
          "193148.990000",
          "193148.993000",
          "193148.996000",
          "193149.000000",
          "193149.003000",
          "193149.005000",
          "193149.008000",
          "193149.011000",
          "193149.014000",
          "193208.955000",
          "193208.958000",
          "193208.961000",
          "193208.964000",
          "193208.967000",
          "193208.970000",
          "193208.972000",
          "193208.975000",
          "193208.978000",
          "193208.981000",
          "193208.984000",
          "193208.987000",
          "193208.990000",
          "193208.993000",
          "193208.996000",
          "193209.000000",
          "193209.002000",
          "193209.005000",
          "193209.008000",
          "193209.011000",
          "193248.954000",
          "193248.957000",
          "193248.960000",
          "193248.963000",
          "193248.966000",
          "193248.969000",
          "193248.980000",
          "193248.983000",
          "193248.986000",
          "193248.989000",
          "193249.005000",
          "193249.008000",
          "193249.011000",
          "193249.014000",
          "193249.017000",
          "193249.020000",
          "193249.023000",
          "193249.026000",
          "193249.029000",
          "193249.032000",
          "193249.035000",
          "193249.037000",
          "193249.040000",
          "193249.043000",
          "193249.046000",
          "193249.049000",
          "193249.052000",
          "193249.055000",
          "193249.058000",
          "193249.061000",
          "193249.064000",
          "193328.954000",
          "193328.957000",
          "193328.960000",
          "193328.963000",
          "193328.966000",
          "193328.969000",
          "193328.972000",
          "193328.975000",
          "193328.978000",
          "193328.981000",
          "193328.984000",
          "193328.987000",
          "193328.990000",
          "193328.993000",
          "193328.996000",
          "193329.000000",
          "193329.003000",
          "193329.006000",
          "193329.009000",
          "193329.012000",
          "193329.015000",
          "193329.018000",
          "193329.021000",
          "193329.024000",
          "193329.027000",
          "193329.029000",
          "193329.032000",
          "193408.955000",
          "193408.958000",
          "193408.961000",
          "193408.964000",
          "193408.967000",
          "193408.970000",
          "193408.973000",
          "193408.976000",
          "193408.979000",
          "193408.981000",
          "193408.984000",
          "193408.987000",
          "193408.990000",
          "193408.993000",
          "193408.996000",
          "193409.000000",
          "193409.003000",
          "193409.006000",
          "193409.009000",
          "193409.012000",
          "193409.015000",
          "193409.018000",
          "193409.021000",
          "193409.023000",
          "193409.026000",
          "193409.029000",
          "193409.032000",
          "193448.954000",
          "193448.957000",
          "193448.960000",
          "193448.963000",
          "193448.966000",
          "193448.969000",
          "193448.972000",
          "193448.975000",
          "193448.978000",
          "193448.982000",
          "193448.985000",
          "193448.989000",
          "193448.992000",
          "193448.995000",
          "193448.998000",
          "193449.002000",
          "193449.005000",
          "193449.008000",
          "193449.011000",
          "193449.014000",
          "193449.017000",
          "193449.019000",
          "193449.022000",
          "193449.025000",
          "193449.028000",
          "193449.031000",
          "193528.954000",
          "193528.957000",
          "193528.960000",
          "193528.963000",
          "193528.966000",
          "193528.969000",
          "193528.972000",
          "193528.975000",
          "193528.978000",
          "193528.980000",
          "193528.983000",
          "193528.986000",
          "193528.989000",
          "193528.992000",
          "193528.995000",
          "193528.998000",
          "193529.002000",
          "193529.005000",
          "193529.008000",
          "193529.011000",
