{
  "aor": 0.0007103685503685504,
  "aqi": 0.014008017223587223,
  "bids_meta": {
    "AcquisitionMatrixPE": 104,
    "AcquisitionNumber": 1,
    "AcquisitionTime": "14:19:2.217500",
    "BandwidthPerPixelPhaseEncode": 17.17,
    "BaseResolution": 104,
    "BodyPartExamined": "BRAIN",
    "CogAtlasID": "trm_4c898da401420",
    "ConsistencyInfo": "N4_VE11C_LATEST_20160120",
    "ConversionSoftware": "dcm2niix",
    "ConversionSoftwareVersion": "v1.0.20171215 (OpenJPEG build) GCC7.3.0",
    "DerivedVendorReportedEchoSpacing": 0.000560011,
    "DeviceSerialNumber": "167006",
    "DwellTime": 2.1e-06,
    "EchoTime": 0.037,
    "EchoTrainLength": 104,
    "EffectiveEchoSpacing": 0.000560011,
    "FlipAngle": 52,
    "ImageComments": "Unaliased_MB4_PE3_LB",
    "ImageOrientationPatientDICOM": [
      0.99967,
      0.0172059,
      -0.019067,
      -0.0246059,
      0.854355,
      -0.519108
    ],
    "ImageType": [
      "ORIGINAL",
      "PRIMARY",
      "M",
      "MB",
      "ND",
      "MOSAIC"
    ],
    "InPlanePhaseEncodingDirectionDICOM": "COL",
    "InstitutionAddress": "Chemin_Queen-Mary_4565_Montreal_District_CA_H3W_1W5",
    "InstitutionName": "IUGM",
    "InstitutionalDepartmentName": "Department",
    "MRAcquisitionType": "2D",
    "MagneticFieldStrength": 3,
    "Manufacturer": "Siemens",
    "ManufacturersModelName": "Prisma_fit",
    "Modality": "MR",
    "MultibandAccelerationFactor": 4,
    "PartialFourier": 1,
    "PatientPosition": "HFS",
    "PercentPhaseFOV": 100,
    "PhaseEncodingDirection": "j-",
    "PhaseEncodingSteps": 104,
    "PhaseResolution": 1,
    "PixelBandwidth": 2290,
    "ProcedureStepDescription": "video5_generic",
    "ProtocolName": "func_task-wolf8",
    "PulseSequenceDetails": "%CustomerSeq%_cmrr_mbep2d_bold",
    "ReceiveCoilActiveElements": "HC1-7;NC1,2",
    "ReceiveCoilName": "HeadNeck_64",
    "ReconMatrixPE": 104,
    "RepetitionTime": 1.49,
    "SAR": 0.0358486,
    "ScanOptions": "FS",
    "ScanningSequence": "EP",
    "SequenceName": "epfid2d1_104",
    "SequenceVariant": "SK_SS",
    "SeriesDescription": "func_task-wolf8",
    "SeriesNumber": 11,
    "ShimSetting": [
      615,
      -7176,
      -8873,
      351,
      -25,
      -165,
      31,
      -26
    ],
    "SliceThickness": 2,
    "SliceTiming": [
      0,
      0.7825,
      0.0975,
      0.8825,
      0.195,
      0.98,
      0.2925,
      1.0775,
      0.3925,
      1.175,
      0.49,
      1.2725,
      0.5875,
      1.3725,
      0.685,
      0,
      0.7825,
      0.0975,
      0.8825,
      0.195,
      0.98,
      0.2925,
      1.0775,
      0.3925,
      1.175,
      0.49,
      1.2725,
      0.5875,
      1.3725,
      0.685,
      0,
      0.7825,
      0.0975,
      0.8825,
      0.195,
      0.98,
      0.2925,
      1.0775,
      0.3925,
      1.175,
      0.49,
      1.2725,
      0.5875,
      1.3725,
      0.685,
      0,
      0.7825,
      0.0975,
      0.8825,
      0.195,
      0.98,
      0.2925,
      1.0775,
      0.3925,
      1.175,
      0.49,
      1.2725,
      0.5875,
      1.3725,
      0.685
    ],
    "SoftwareVersions": "syngo_MR_E11",
    "SpacingBetweenSlices": 2,
    "StationName": "MRC35049",
    "TaskName": "wolf08",
    "TotalReadoutTime": 0.0576811,
    "TxRefAmp": 248.699,
    "dataset": "<unset>",
    "dcmmeta_affine": [
      [
        -1.999340295791626,
        -0.049211833626031876,
        -0.014716582372784615,
        108.1201400756836
      ],
      [
        -0.034411825239658356,
        1.7087090015411377,
        -1.0388115644454956,
        -53.61195373535156
      ],
      [
        -0.03813409060239792,
        1.0382156372070312,
        1.7089921236038208,
        -96.60211944580078
      ],
      [
        0.0,
        0.0,
        0.0,
        1.0
      ]
    ],
    "dcmmeta_reorient_transform": [
      [
        0.0,
        -1.0,
        0.0,
        103.0
      ],
      [
        1.0,
        0.0,
        0.0,
        0.0
      ],
      [
        0.0,
        0.0,
        1.0,
        0.0
      ],
      [
        0.0,
        0.0,
        0.0,
        1.0
      ]
    ],
    "dcmmeta_shape": [
      104,
      104,
      60,
      407
    ],
    "dcmmeta_slice_dim": 2,
    "dcmmeta_version": 0.6,
    "global": {
      "const": {
        "AcquisitionMatrix": [
          104,
          0,
          0,
          104
        ],
        "AngioFlag": "N",
        "BitsAllocated": 16,
        "BitsStored": 16,
        "BodyPartExamined": "BRAIN",
        "Columns": 832,
        "EchoNumbers": 1,
        "EchoTime": 37.0,
        "EchoTrainLength": 104,
        "FlipAngle": 52.0,
        "HighBit": 15,
        "ImageOrientationPatient": [
          0.99967014780142,
          0.01720591202208,
          -0.0190670445057,
          -0.0246059169053,
          0.85435448833494,
          -0.5191078472873
        ],
        "ImagePositionPatient": [
          -812.89807888239,
          -756.88104141186,
          402.12541683211
        ],
        "ImageType": [
          "ORIGINAL",
          "PRIMARY",
          "M",
          "MB",
          "ND",
          "MOSAIC"
        ],
        "ImagedNucleus": "1H",
        "ImagingFrequency": 123.259506,
        "InPlanePhaseEncodingDirection": "COL",
        "MRAcquisitionType": "2D",
        "MagneticFieldStrength": 3.0,
        "Manufacturer": "SIEMENS",
        "ManufacturerModelName": "Prisma_fit",
        "Modality": "MR",
        "NumberOfAverages": 1.0,
        "NumberOfPhaseEncodingSteps": 104,
        "PercentPhaseFieldOfView": 100.0,
        "PercentSampling": 100.0,
        "PerformedProcedureStepStartTime": "134814.649000",
        "PhotometricInterpretation": "MONOCHROME2",
        "PixelBandwidth": 2290.0,
        "PixelRepresentation": 0,
        "PixelSpacing": [
          2.0,
          2.0
        ],
        "ProtocolName": "func_task-wolf8",
        "RepetitionTime": 1490.0,
        "Rows": 832,
        "SAR": 0.03584862166348,
        "SamplesPerPixel": 1,
        "ScanOptions": "FS",
        "ScanningSequence": "EP",
        "SequenceName": "epfid2d1_104",
        "SequenceVariant": [
          "SK",
          "SS"
        ],
        "SeriesDescription": "func_task-wolf8",
        "SeriesNumber": 11,
        "SeriesTime": "142018.342000",
        "SliceLocation": -55.495350563054,
        "SliceThickness": 2.0,
        "SmallestImagePixelValue": 0,
        "SoftwareVersions": "syngo MR E11",
        "SpacingBetweenSlices": 1.9999999871074,
        "SpecificCharacterSet": "ISO_IR 100",
        "StudyID": "1",
        "StudyTime": "134814.552000",
        "TransmitCoilName": "Body",
        "VariableFlipAngleFlag": "N",
        "WindowCenterWidthExplanation": "Algo1",
        "dBdt": 0.0
      },
      "slices": {}
    },
    "modality": "bold",
    "session_id": "007",
    "subject_id": "02",
    "task_id": "wolf08",
    "time": {
      "samples": {
        "AcquisitionNumber": [
          1,
          2,
          3,
          4,
          5,
          6,
          7,
          8,
          9,
          10,
          11,
          12,
          13,
          14,
          15,
          16,
          17,
          18,
          19,
          20,
          21,
          22,
          23,
          24,
          25,
          26,
          27,
          28,
          29,
          30,
          31,
          32,
          33,
          34,
          35,
          36,
          37,
          38,
          39,
          40,
          41,
          42,
          43,
          44,
          45,
          46,
          47,
          48,
          49,
          50,
          51,
          52,
          53,
          54,
          55,
          56,
          57,
          58,
          59,
          60,
          61,
          62,
          63,
          64,
          65,
          66,
          67,
          68,
          69,
          70,
          71,
          72,
          73,
          74,
          75,
          76,
          77,
          78,
          79,
          80,
          81,
          82,
          83,
          84,
          85,
          86,
          87,
          88,
          89,
          90,
          91,
          92,
          93,
          94,
          95,
          96,
          97,
          98,
          99,
          100,
          101,
          102,
          103,
          104,
          105,
          106,
          107,
          108,
          109,
          110,
          111,
          112,
          113,
          114,
          115,
          116,
          117,
          118,
          119,
          120,
          121,
          122,
          123,
          124,
          125,
          126,
          127,
          128,
          129,
          130,
          131,
          132,
          133,
          134,
          135,
          136,
          137,
          138,
          139,
          140,
          141,
          142,
          143,
          144,
          145,
          146,
          147,
          148,
          149,
          150,
          151,
          152,
          153,
          154,
          155,
          156,
          157,
          158,
          159,
          160,
          161,
          162,
          163,
          164,
          165,
          166,
          167,
          168,
          169,
          170,
          171,
          172,
          173,
          174,
          175,
          176,
          177,
          178,
          179,
          180,
          181,
          182,
          183,
          184,
          185,
          186,
          187,
          188,
          189,
          190,
          191,
          192,
          193,
          194,
          195,
          196,
          197,
          198,
          199,
          200,
          201,
          202,
          203,
          204,
          205,
          206,
          207,
          208,
          209,
          210,
          211,
          212,
          213,
          214,
          215,
          216,
          217,
          218,
          219,
          220,
          221,
          222,
          223,
          224,
          225,
          226,
          227,
          228,
          229,
          230,
          231,
          232,
          233,
          234,
          235,
          236,
          237,
          238,
          239,
          240,
          241,
          242,
          243,
          244,
          245,
          246,
          247,
          248,
          249,
          250,
          251,
          252,
          253,
          254,
          255,
          256,
          257,
          258,
          259,
          260,
          261,
          262,
          263,
          264,
          265,
          266,
          267,
          268,
          269,
          270,
          271,
          272,
          273,
          274,
          275,
          276,
          277,
          278,
          279,
          280,
          281,
          282,
          283,
          284,
          285,
          286,
          287,
          288,
          289,
          290,
          291,
          292,
          293,
          294,
          295,
          296,
          297,
          298,
          299,
          300,
          301,
          302,
          303,
          304,
          305,
          306,
          307,
          308,
          309,
          310,
          311,
          312,
          313,
          314,
          315,
          316,
          317,
          318,
          319,
          320,
          321,
          322,
          323,
          324,
          325,
          326,
          327,
          328,
          329,
          330,
          331,
          332,
          333,
          334,
          335,
          336,
          337,
          338,
          339,
          340,
          341,
          342,
          343,
          344,
          345,
          346,
          347,
          348,
          349,
          350,
          351,
          352,
          353,
          354,
          355,
          356,
          357,
          358,
          359,
          360,
          361,
          362,
          363,
          364,
          365,
          366,
          367,
          368,
          369,
          370,
          371,
          372,
          373,
          374,
          375,
          376,
          377,
          378,
          379,
          380,
          381,
          382,
          383,
          384,
          385,
          386,
          387,
          388,
          389,
          390,
          391,
          392,
          393,
          394,
          395,
          396,
          397,
          398,
          399,
          400,
          401,
          402,
          403,
          404,
          405,
          406,
          407
        ],
        "AcquisitionTime": [
          "141902.217500",
          "141903.707500",
          "141905.197500",
          "141906.687500",
          "141908.177500",
          "141909.667500",
          "141911.157500",
          "141912.647500",
          "141914.137500",
          "141915.627500",
          "141917.117500",
          "141918.607500",
          "141920.097500",
          "141921.587500",
          "141923.077500",
          "141924.567500",
          "141926.057500",
          "141927.547500",
          "141929.037500",
          "141930.527500",
          "141932.017500",
          "141933.507500",
          "141934.997500",
          "141936.487500",
          "141937.977500",
          "141939.467500",
          "141940.957500",
          "141942.447500",
          "141943.937500",
          "141945.427500",
          "141946.917500",
          "141948.407500",
          "141949.897500",
          "141951.387500",
          "141952.877500",
          "141954.367500",
          "141955.857500",
          "141957.347500",
          "141958.837500",
          "142000.327500",
          "142001.817500",
          "142003.307500",
          "142004.797500",
          "142006.287500",
          "142007.777500",
          "142009.267500",
          "142010.757500",
          "142012.247500",
          "142013.737500",
          "142015.227500",
          "142016.717500",
          "142018.207500",
          "142019.697500",
          "142021.187500",
          "142022.677500",
          "142024.167500",
          "142025.657500",
          "142027.147500",
          "142028.637500",
          "142030.127500",
          "142031.617500",
          "142033.107500",
          "142034.597500",
          "142036.087500",
          "142037.577500",
          "142039.067500",
          "142040.557500",
          "142042.047500",
          "142043.537500",
          "142045.027500",
          "142046.517500",
          "142048.007500",
          "142049.497500",
          "142050.987500",
          "142052.477500",
          "142053.967500",
          "142055.457500",
          "142056.947500",
          "142058.437500",
          "142059.927500",
          "142101.417500",
          "142102.907500",
          "142104.397500",
          "142105.887500",
          "142107.377500",
          "142108.867500",
          "142110.357500",
          "142111.847500",
          "142113.337500",
          "142114.827500",
          "142116.317500",
          "142117.807500",
          "142119.297500",
          "142120.787500",
          "142122.277500",
          "142123.767500",
          "142125.257500",
          "142126.747500",
          "142128.237500",
          "142129.727500",
          "142131.217500",
          "142132.707500",
          "142134.197500",
          "142135.687500",
          "142137.177500",
          "142138.667500",
          "142140.157500",
          "142141.647500",
          "142143.137500",
          "142144.627500",
          "142146.117500",
          "142147.607500",
          "142149.097500",
          "142150.587500",
          "142152.077500",
          "142153.567500",
          "142155.057500",
          "142156.547500",
          "142158.037500",
          "142159.527500",
          "142201.017500",
          "142202.507500",
          "142203.997500",
          "142205.487500",
          "142206.977500",
          "142208.467500",
          "142209.957500",
          "142211.447500",
          "142212.937500",
          "142214.427500",
          "142215.917500",
          "142217.407500",
          "142218.897500",
          "142220.387500",
          "142221.877500",
          "142223.367500",
          "142224.857500",
          "142226.347500",
          "142227.837500",
          "142229.327500",
          "142230.817500",
          "142232.307500",
          "142233.797500",
          "142235.287500",
          "142236.777500",
          "142238.267500",
          "142239.757500",
          "142241.247500",
          "142242.737500",
          "142244.227500",
          "142245.717500",
          "142247.207500",
          "142248.697500",
          "142250.187500",
          "142251.677500",
          "142253.167500",
          "142254.657500",
          "142256.147500",
          "142257.637500",
          "142259.127500",
          "142300.617500",
          "142302.107500",
          "142303.597500",
          "142305.087500",
          "142306.577500",
          "142308.067500",
          "142309.557500",
          "142311.047500",
          "142312.537500",
          "142314.027500",
          "142315.517500",
          "142317.007500",
          "142318.497500",
          "142319.987500",
          "142321.477500",
          "142322.967500",
          "142324.457500",
          "142325.947500",
          "142327.437500",
          "142328.927500",
          "142330.417500",
          "142331.907500",
          "142333.397500",
          "142334.887500",
          "142336.377500",
          "142337.867500",
          "142339.357500",
          "142340.847500",
          "142342.337500",
          "142343.827500",
          "142345.317500",
          "142346.807500",
          "142348.297500",
          "142349.787500",
          "142351.277500",
          "142352.767500",
          "142354.257500",
          "142355.747500",
          "142357.237500",
          "142358.727500",
          "142400.217500",
          "142401.707500",
          "142403.197500",
          "142404.687500",
          "142406.177500",
          "142407.667500",
          "142409.157500",
          "142410.647500",
          "142412.137500",
          "142413.627500",
          "142415.117500",
          "142416.607500",
          "142418.097500",
          "142419.587500",
          "142421.077500",
          "142422.567500",
          "142424.057500",
          "142425.547500",
          "142427.037500",
          "142428.527500",
          "142430.017500",
          "142431.507500",
          "142432.997500",
          "142434.487500",
          "142435.977500",
          "142437.467500",
          "142438.957500",
          "142440.447500",
          "142441.937500",
          "142443.427500",
          "142444.917500",
          "142446.407500",
          "142447.897500",
          "142449.387500",
          "142450.877500",
          "142452.367500",
          "142453.857500",
          "142455.347500",
          "142456.837500",
          "142458.327500",
          "142459.817500",
          "142501.307500",
          "142502.797500",
          "142504.287500",
          "142505.777500",
          "142507.267500",
          "142508.757500",
          "142510.247500",
          "142511.737500",
          "142513.227500",
          "142514.717500",
          "142516.207500",
          "142517.697500",
          "142519.187500",
          "142520.677500",
          "142522.167500",
          "142523.657500",
          "142525.147500",
          "142526.637500",
          "142528.127500",
          "142529.617500",
          "142531.107500",
          "142532.597500",
          "142534.087500",
          "142535.577500",
          "142537.067500",
          "142538.557500",
          "142540.047500",
          "142541.537500",
          "142543.027500",
          "142544.517500",
          "142546.007500",
          "142547.497500",
          "142548.987500",
          "142550.477500",
          "142551.967500",
          "142553.457500",
          "142554.947500",
          "142556.437500",
          "142557.927500",
          "142559.417500",
          "142600.907500",
          "142602.397500",
          "142603.887500",
          "142605.377500",
          "142606.867500",
          "142608.357500",
          "142609.847500",
          "142611.337500",
          "142612.827500",
          "142614.317500",
          "142615.807500",
          "142617.297500",
          "142618.787500",
          "142620.277500",
          "142621.767500",
          "142623.257500",
          "142624.747500",
          "142626.237500",
          "142627.727500",
          "142629.217500",
          "142630.707500",
          "142632.197500",
          "142633.687500",
          "142635.177500",
          "142636.667500",
          "142638.157500",
          "142639.647500",
          "142641.137500",
          "142642.627500",
          "142644.117500",
          "142645.607500",
          "142647.097500",
          "142648.587500",
          "142650.077500",
          "142651.567500",
          "142653.057500",
          "142654.547500",
          "142656.037500",
          "142657.527500",
          "142659.017500",
          "142700.507500",
          "142701.997500",
          "142703.487500",
          "142704.977500",
          "142706.467500",
          "142707.957500",
          "142709.447500",
          "142710.937500",
          "142712.427500",
          "142713.917500",
          "142715.407500",
          "142716.897500",
          "142718.387500",
          "142719.877500",
          "142721.367500",
          "142722.857500",
          "142724.347500",
          "142725.837500",
          "142727.327500",
          "142728.817500",
          "142730.307500",
          "142731.797500",
          "142733.287500",
          "142734.777500",
          "142736.267500",
          "142737.757500",
          "142739.247500",
          "142740.737500",
          "142742.227500",
          "142743.717500",
          "142745.207500",
          "142746.697500",
          "142748.187500",
          "142749.677500",
          "142751.167500",
          "142752.657500",
          "142754.147500",
          "142755.637500",
          "142757.127500",
          "142758.617500",
          "142800.107500",
          "142801.597500",
          "142803.087500",
          "142804.577500",
          "142806.067500",
          "142807.557500",
          "142809.047500",
          "142810.537500",
          "142812.027500",
          "142813.517500",
          "142815.007500",
          "142816.497500",
          "142817.987500",
          "142819.477500",
          "142820.967500",
          "142822.457500",
          "142823.947500",
          "142825.437500",
          "142826.927500",
          "142828.417500",
          "142829.907500",
          "142831.397500",
          "142832.887500",
          "142834.377500",
          "142835.867500",
          "142837.357500",
          "142838.847500",
          "142840.337500",
          "142841.827500",
          "142843.317500",
          "142844.807500",
          "142846.297500",
          "142847.787500",
          "142849.277500",
          "142850.767500",
          "142852.257500",
          "142853.747500",
          "142855.237500",
          "142856.727500",
          "142858.217500",
          "142859.707500",
          "142901.197500",
          "142902.687500",
          "142904.177500",
          "142905.667500",
          "142907.157500"
        ],
        "ContentTime": [
          "142018.345000",
          "142018.348000",
          "142018.352000",
          "142018.355000",
          "142018.358000",
          "142018.361000",
          "142018.364000",
          "142018.366000",
          "142018.369000",
          "142018.372000",
          "142018.375000",
          "142018.378000",
          "142018.387000",
          "142018.390000",
          "142018.393000",
          "142018.396000",
          "142018.399000",
          "142018.401000",
          "142018.404000",
          "142018.407000",
          "142018.410000",
          "142038.315000",
          "142038.318000",
          "142038.321000",
          "142038.324000",
          "142038.326000",
          "142038.329000",
          "142038.332000",
          "142038.335000",
          "142038.338000",
          "142038.341000",
          "142038.343000",
          "142038.346000",
          "142038.349000",
          "142038.352000",
          "142038.355000",
          "142038.358000",
          "142038.360000",
          "142038.363000",
          "142038.366000",
          "142038.369000",
          "142058.315000",
          "142058.318000",
          "142058.321000",
          "142058.323000",
          "142058.326000",
          "142058.329000",
          "142058.332000",
          "142058.335000",
          "142058.338000",
          "142058.340000",
          "142058.343000",
          "142058.346000",
          "142058.349000",
          "142058.352000",
          "142058.360000",
          "142058.363000",
          "142058.365000",
          "142058.368000",
          "142058.371000",
          "142058.374000",
          "142058.377000",
          "142118.315000",
          "142118.318000",
          "142118.321000",
          "142118.324000",
          "142118.326000",
          "142118.329000",
          "142118.332000",
          "142118.335000",
          "142118.338000",
          "142118.341000",
          "142118.343000",
          "142118.346000",
          "142118.349000",
          "142118.352000",
          "142118.355000",
          "142118.358000",
          "142118.361000",
          "142118.363000",
          "142118.366000",
          "142118.369000",
          "142138.315000",
          "142138.318000",
          "142138.321000",
          "142138.323000",
          "142138.326000",
          "142138.329000",
          "142138.332000",
          "142138.335000",
          "142138.338000",
          "142138.341000",
          "142138.343000",
          "142138.346000",
          "142138.349000",
          "142138.352000",
          "142138.355000",
          "142138.358000",
          "142138.361000",
          "142138.363000",
          "142138.366000",
          "142138.369000",
          "142218.314000",
          "142218.317000",
          "142218.320000",
          "142218.323000",
          "142218.327000",
          "142218.329000",
          "142218.332000",
          "142218.335000",
          "142218.338000",
          "142218.341000",
          "142218.344000",
          "142218.346000",
          "142218.349000",
          "142218.352000",
          "142218.355000",
          "142218.358000",
          "142218.361000",
          "142218.363000",
          "142218.366000",
          "142218.369000",
          "142218.372000",
          "142218.375000",
          "142218.377000",
          "142218.380000",
          "142218.383000",
          "142218.386000",
          "142218.389000",
          "142218.392000",
          "142258.315000",
          "142258.318000",
          "142258.321000",
          "142258.324000",
          "142258.327000",
          "142258.330000",
          "142258.332000",
          "142258.335000",
          "142258.338000",
          "142258.341000",
          "142258.344000",
          "142258.346000",
          "142258.349000",
          "142258.352000",
          "142258.355000",
          "142258.358000",
          "142258.361000",
          "142258.364000",
          "142258.366000",
          "142258.369000",
          "142258.372000",
          "142258.375000",
          "142258.378000",
          "142258.381000",
          "142258.383000",
          "142258.386000",
          "142258.389000",
          "142338.315000",
          "142338.318000",
          "142338.321000",
          "142338.324000",
          "142338.327000",
          "142338.329000",
          "142338.332000",
          "142338.335000",
          "142338.338000",
          "142338.341000",
          "142338.343000",
          "142338.346000",
          "142338.363000",
          "142338.366000",
          "142338.369000",
          "142338.372000",
          "142338.375000",
          "142338.378000",
          "142338.380000",
          "142338.383000",
          "142338.386000",
          "142338.389000",
          "142338.392000",
          "142338.395000",
          "142338.398000",
          "142338.400000",
          "142338.403000",
          "142418.315000",
          "142418.318000",
          "142418.321000",
          "142418.324000",
          "142418.327000",
          "142418.329000",
          "142418.332000",
          "142418.335000",
          "142418.338000",
          "142418.341000",
          "142418.344000",
          "142418.347000",
          "142418.349000",
          "142418.352000",
          "142418.355000",
          "142418.358000",
          "142418.361000",
          "142418.364000",
          "142418.367000",
          "142418.369000",
          "142418.372000",
          "142418.375000",
          "142418.378000",
          "142418.381000",
          "142418.384000",
          "142418.386000",
          "142418.389000",
          "142458.314000",
          "142458.317000",
          "142458.320000",
          "142458.323000",
          "142458.326000",
          "142458.328000",
          "142458.331000",
          "142458.334000",
          "142458.337000",
          "142458.340000",
          "142458.343000",
