{
  "aor": 0.000455037037037037,
  "aqi": 0.009529137703703703,
  "bids_meta": {
    "AcquisitionMatrixPE": 104,
    "AcquisitionNumber": 1,
    "AcquisitionTime": "15:01:33.017500",
    "BandwidthPerPixelPhaseEncode": 17.17,
    "BaseResolution": 104,
    "BodyPartExamined": "BRAIN",
    "CogAtlasID": "trm_4c898da401420",
    "ConsistencyInfo": "N4_VE11C_LATEST_20160120",
    "ConversionSoftware": "dcm2niix",
    "ConversionSoftwareVersion": "v1.0.20171215 (OpenJPEG build) GCC7.3.0",
    "DerivedVendorReportedEchoSpacing": 0.000560011,
    "DeviceSerialNumber": "167006",
    "DwellTime": 2.1e-06,
    "EchoTime": 0.037,
    "EchoTrainLength": 104,
    "EffectiveEchoSpacing": 0.000560011,
    "FlipAngle": 52,
    "ImageComments": "Unaliased_MB4_PE3_LB",
    "ImageOrientationPatientDICOM": [
      0.99967,
      0.0172059,
      -0.019067,
      -0.0246059,
      0.854355,
      -0.519108
    ],
    "ImageType": [
      "ORIGINAL",
      "PRIMARY",
      "M",
      "MB",
      "ND",
      "MOSAIC"
    ],
    "InPlanePhaseEncodingDirectionDICOM": "COL",
    "InstitutionAddress": "Chemin_Queen-Mary_4565_Montreal_District_CA_H3W_1W5",
    "InstitutionName": "IUGM",
    "InstitutionalDepartmentName": "Department",
    "MRAcquisitionType": "2D",
    "MagneticFieldStrength": 3,
    "Manufacturer": "Siemens",
    "ManufacturersModelName": "Prisma_fit",
    "Modality": "MR",
    "MultibandAccelerationFactor": 4,
    "PartialFourier": 1,
    "PatientPosition": "HFS",
    "PercentPhaseFOV": 100,
    "PhaseEncodingDirection": "j-",
    "PhaseEncodingSteps": 104,
    "PhaseResolution": 1,
    "PixelBandwidth": 2290,
    "ProcedureStepDescription": "video5_generic",
    "ProtocolName": "func_task-wolf12",
    "PulseSequenceDetails": "%CustomerSeq%_cmrr_mbep2d_bold",
    "ReceiveCoilActiveElements": "HC1-7;NC1,2",
    "ReceiveCoilName": "HeadNeck_64",
    "ReconMatrixPE": 104,
    "RepetitionTime": 1.49,
    "SAR": 0.0358486,
    "ScanOptions": "FS",
    "ScanningSequence": "EP",
    "SequenceName": "epfid2d1_104",
    "SequenceVariant": "SK_SS",
    "SeriesDescription": "func_task-wolf12",
    "SeriesNumber": 19,
    "ShimSetting": [
      615,
      -7176,
      -8873,
      351,
      -25,
      -165,
      31,
      -26
    ],
    "SliceThickness": 2,
    "SliceTiming": [
      0,
      0.785,
      0.0975,
      0.8825,
      0.1975,
      0.98,
      0.295,
      1.0775,
      0.3925,
      1.1775,
      0.49,
      1.275,
      0.5875,
      1.3725,
      0.6875,
      0,
      0.785,
      0.0975,
      0.8825,
      0.1975,
      0.98,
      0.295,
      1.0775,
      0.3925,
      1.1775,
      0.49,
      1.275,
      0.5875,
      1.3725,
      0.6875,
      0,
      0.785,
      0.0975,
      0.8825,
      0.1975,
      0.98,
      0.295,
      1.0775,
      0.3925,
      1.1775,
      0.49,
      1.275,
      0.5875,
      1.3725,
      0.6875,
      0,
      0.785,
      0.0975,
      0.8825,
      0.1975,
      0.98,
      0.295,
      1.0775,
      0.3925,
      1.1775,
      0.49,
      1.275,
      0.5875,
      1.3725,
      0.6875
    ],
    "SoftwareVersions": "syngo_MR_E11",
    "SpacingBetweenSlices": 2,
    "StationName": "MRC35049",
    "TaskName": "wolf12",
    "TotalReadoutTime": 0.0576811,
    "TxRefAmp": 248.699,
    "dataset": "<unset>",
    "dcmmeta_affine": [
      [
        -1.999340295791626,
        -0.049211833626031876,
        -0.014716582372784615,
        108.1201400756836
      ],
      [
        -0.034411825239658356,
        1.7087090015411377,
        -1.0388115644454956,
        -53.61195373535156
      ],
      [
        -0.03813409060239792,
        1.0382156372070312,
        1.7089921236038208,
        -96.60211944580078
      ],
      [
        0.0,
        0.0,
        0.0,
        1.0
      ]
    ],
    "dcmmeta_reorient_transform": [
      [
        0.0,
        -1.0,
        0.0,
        103.0
      ],
      [
        1.0,
        0.0,
        0.0,
        0.0
      ],
      [
        0.0,
        0.0,
        1.0,
        0.0
      ],
      [
        0.0,
        0.0,
        0.0,
        1.0
      ]
    ],
    "dcmmeta_shape": [
      104,
      104,
      60,
      407
    ],
    "dcmmeta_slice_dim": 2,
    "dcmmeta_version": 0.6,
    "global": {
      "const": {
        "AcquisitionMatrix": [
          104,
          0,
          0,
          104
        ],
        "AngioFlag": "N",
        "BitsAllocated": 16,
        "BitsStored": 16,
        "BodyPartExamined": "BRAIN",
        "Columns": 832,
        "EchoNumbers": 1,
        "EchoTime": 37.0,
        "EchoTrainLength": 104,
        "FlipAngle": 52.0,
        "HighBit": 15,
        "ImageOrientationPatient": [
          0.99967014780142,
          0.01720591202208,
          -0.0190670445057,
          -0.0246059169053,
          0.85435448833494,
          -0.5191078472873
        ],
        "ImagePositionPatient": [
          -812.89807888239,
          -756.88104141186,
          402.12541683211
        ],
        "ImageType": [
          "ORIGINAL",
          "PRIMARY",
          "M",
          "MB",
          "ND",
          "MOSAIC"
        ],
        "ImagedNucleus": "1H",
        "ImagingFrequency": 123.259521,
        "InPlanePhaseEncodingDirection": "COL",
        "MRAcquisitionType": "2D",
        "MagneticFieldStrength": 3.0,
        "Manufacturer": "SIEMENS",
        "ManufacturerModelName": "Prisma_fit",
        "Modality": "MR",
        "NumberOfAverages": 1.0,
        "NumberOfPhaseEncodingSteps": 104,
        "PercentPhaseFieldOfView": 100.0,
        "PercentSampling": 100.0,
        "PerformedProcedureStepStartTime": "134814.649000",
        "PhotometricInterpretation": "MONOCHROME2",
        "PixelBandwidth": 2290.0,
        "PixelRepresentation": 0,
        "PixelSpacing": [
          2.0,
          2.0
        ],
        "ProtocolName": "func_task-wolf12",
        "RepetitionTime": 1490.0,
        "Rows": 832,
        "SAR": 0.03584862166348,
        "SamplesPerPixel": 1,
        "ScanOptions": "FS",
        "ScanningSequence": "EP",
        "SequenceName": "epfid2d1_104",
        "SequenceVariant": [
          "SK",
          "SS"
        ],
        "SeriesDescription": "func_task-wolf12",
        "SeriesNumber": 19,
        "SeriesTime": "150258.251000",
        "SliceLocation": -55.495350563054,
        "SliceThickness": 2.0,
        "SmallestImagePixelValue": 0,
        "SoftwareVersions": "syngo MR E11",
        "SpacingBetweenSlices": 1.9999999871074,
        "SpecificCharacterSet": "ISO_IR 100",
        "StudyID": "1",
        "StudyTime": "134814.552000",
        "TransmitCoilName": "Body",
        "VariableFlipAngleFlag": "N",
        "WindowCenterWidthExplanation": "Algo1",
        "dBdt": 0.0
      },
      "slices": {}
    },
    "modality": "bold",
    "session_id": "007",
    "subject_id": "02",
    "task_id": "wolf12",
    "time": {
      "samples": {
        "AcquisitionNumber": [
          1,
          2,
          3,
          4,
          5,
          6,
          7,
          8,
          9,
          10,
          11,
          12,
          13,
          14,
          15,
          16,
          17,
          18,
          19,
          20,
          21,
          22,
          23,
          24,
          25,
          26,
          27,
          28,
          29,
          30,
          31,
          32,
          33,
          34,
          35,
          36,
          37,
          38,
          39,
          40,
          41,
          42,
          43,
          44,
          45,
          46,
          47,
          48,
          49,
          50,
          51,
          52,
          53,
          54,
          55,
          56,
          57,
          58,
          59,
          60,
          61,
          62,
          63,
          64,
          65,
          66,
          67,
          68,
          69,
          70,
          71,
          72,
          73,
          74,
          75,
          76,
          77,
          78,
          79,
          80,
          81,
          82,
          83,
          84,
          85,
          86,
          87,
          88,
          89,
          90,
          91,
          92,
          93,
          94,
          95,
          96,
          97,
          98,
          99,
          100,
          101,
          102,
          103,
          104,
          105,
          106,
          107,
          108,
          109,
          110,
          111,
          112,
          113,
          114,
          115,
          116,
          117,
          118,
          119,
          120,
          121,
          122,
          123,
          124,
          125,
          126,
          127,
          128,
          129,
          130,
          131,
          132,
          133,
          134,
          135,
          136,
          137,
          138,
          139,
          140,
          141,
          142,
          143,
          144,
          145,
          146,
          147,
          148,
          149,
          150,
          151,
          152,
          153,
          154,
          155,
          156,
          157,
          158,
          159,
          160,
          161,
          162,
          163,
          164,
          165,
          166,
          167,
          168,
          169,
          170,
          171,
          172,
          173,
          174,
          175,
          176,
          177,
          178,
          179,
          180,
          181,
          182,
          183,
          184,
          185,
          186,
          187,
          188,
          189,
          190,
          191,
          192,
          193,
          194,
          195,
          196,
          197,
          198,
          199,
          200,
          201,
          202,
          203,
          204,
          205,
          206,
          207,
          208,
          209,
          210,
          211,
          212,
          213,
          214,
          215,
          216,
          217,
          218,
          219,
          220,
          221,
          222,
          223,
          224,
          225,
          226,
          227,
          228,
          229,
          230,
          231,
          232,
          233,
          234,
          235,
          236,
          237,
          238,
          239,
          240,
          241,
          242,
          243,
          244,
          245,
          246,
          247,
          248,
          249,
          250,
          251,
          252,
          253,
          254,
          255,
          256,
          257,
          258,
          259,
          260,
          261,
          262,
          263,
          264,
          265,
          266,
          267,
          268,
          269,
          270,
          271,
          272,
          273,
          274,
          275,
          276,
          277,
          278,
          279,
          280,
          281,
          282,
          283,
          284,
          285,
          286,
          287,
          288,
          289,
          290,
          291,
          292,
          293,
          294,
          295,
          296,
          297,
          298,
          299,
          300,
          301,
          302,
          303,
          304,
          305,
          306,
          307,
          308,
          309,
          310,
          311,
          312,
          313,
          314,
          315,
          316,
          317,
          318,
          319,
          320,
          321,
          322,
          323,
          324,
          325,
          326,
          327,
          328,
          329,
          330,
          331,
          332,
          333,
          334,
          335,
          336,
          337,
          338,
          339,
          340,
          341,
          342,
          343,
          344,
          345,
          346,
          347,
          348,
          349,
          350,
          351,
          352,
          353,
          354,
          355,
          356,
          357,
          358,
          359,
          360,
          361,
          362,
          363,
          364,
          365,
          366,
          367,
          368,
          369,
          370,
          371,
          372,
          373,
          374,
          375,
          376,
          377,
          378,
          379,
          380,
          381,
          382,
          383,
          384,
          385,
          386,
          387,
          388,
          389,
          390,
          391,
          392,
          393,
          394,
          395,
          396,
          397,
          398,
          399,
          400,
          401,
          402,
          403,
          404,
          405,
          406,
          407
        ],
        "AcquisitionTime": [
          "150133.017500",
          "150134.507500",
          "150135.997500",
          "150137.487500",
          "150138.977500",
          "150140.467500",
          "150141.957500",
          "150143.447500",
          "150144.937500",
          "150146.427500",
          "150147.917500",
          "150149.407500",
          "150150.897500",
          "150152.387500",
          "150153.877500",
          "150155.367500",
          "150156.857500",
          "150158.347500",
          "150159.837500",
          "150201.327500",
          "150202.817500",
          "150204.307500",
          "150205.797500",
          "150207.287500",
          "150208.777500",
          "150210.267500",
          "150211.757500",
          "150213.247500",
          "150214.737500",
          "150216.227500",
          "150217.717500",
          "150219.207500",
          "150220.697500",
          "150222.187500",
          "150223.677500",
          "150225.167500",
          "150226.657500",
          "150228.147500",
          "150229.637500",
          "150231.127500",
          "150232.617500",
          "150234.107500",
          "150235.597500",
          "150237.087500",
          "150238.577500",
          "150240.067500",
          "150241.557500",
          "150243.047500",
          "150244.537500",
          "150246.027500",
          "150247.517500",
          "150249.007500",
          "150250.497500",
          "150251.987500",
          "150253.477500",
          "150254.967500",
          "150256.457500",
          "150257.947500",
          "150259.437500",
          "150300.927500",
          "150302.417500",
          "150303.907500",
          "150305.397500",
          "150306.887500",
          "150308.377500",
          "150309.867500",
          "150311.357500",
          "150312.847500",
          "150314.337500",
          "150315.827500",
          "150317.317500",
          "150318.807500",
          "150320.297500",
          "150321.787500",
          "150323.277500",
          "150324.767500",
          "150326.257500",
          "150327.747500",
          "150329.237500",
          "150330.727500",
          "150332.217500",
          "150333.707500",
          "150335.197500",
          "150336.687500",
          "150338.177500",
          "150339.667500",
          "150341.157500",
          "150342.647500",
          "150344.137500",
          "150345.627500",
          "150347.117500",
          "150348.607500",
          "150350.097500",
          "150351.587500",
          "150353.077500",
          "150354.567500",
          "150356.057500",
          "150357.547500",
          "150359.037500",
          "150400.527500",
          "150402.017500",
          "150403.507500",
          "150404.997500",
          "150406.487500",
          "150407.977500",
          "150409.467500",
          "150410.957500",
          "150412.447500",
          "150413.937500",
          "150415.427500",
          "150416.917500",
          "150418.407500",
          "150419.897500",
          "150421.387500",
          "150422.877500",
          "150424.367500",
          "150425.857500",
          "150427.347500",
          "150428.837500",
          "150430.327500",
          "150431.817500",
          "150433.307500",
          "150434.797500",
          "150436.287500",
          "150437.777500",
          "150439.267500",
          "150440.757500",
          "150442.247500",
          "150443.737500",
          "150445.227500",
          "150446.717500",
          "150448.207500",
          "150449.697500",
          "150451.187500",
          "150452.677500",
          "150454.167500",
          "150455.657500",
          "150457.147500",
          "150458.637500",
          "150500.127500",
          "150501.617500",
          "150503.107500",
          "150504.597500",
          "150506.087500",
          "150507.577500",
          "150509.067500",
          "150510.557500",
          "150512.047500",
          "150513.537500",
          "150515.027500",
          "150516.517500",
          "150518.007500",
          "150519.497500",
          "150520.987500",
          "150522.477500",
          "150523.967500",
          "150525.457500",
          "150526.947500",
          "150528.437500",
          "150529.927500",
          "150531.417500",
          "150532.907500",
          "150534.397500",
          "150535.887500",
          "150537.377500",
          "150538.867500",
          "150540.357500",
          "150541.847500",
          "150543.337500",
          "150544.827500",
          "150546.317500",
          "150547.807500",
          "150549.297500",
          "150550.787500",
          "150552.277500",
          "150553.767500",
          "150555.257500",
          "150556.747500",
          "150558.237500",
          "150559.727500",
          "150601.217500",
          "150602.707500",
          "150604.197500",
          "150605.687500",
          "150607.177500",
          "150608.667500",
          "150610.157500",
          "150611.647500",
          "150613.137500",
          "150614.627500",
          "150616.117500",
          "150617.607500",
          "150619.097500",
          "150620.587500",
          "150622.077500",
          "150623.567500",
          "150625.057500",
          "150626.547500",
          "150628.037500",
          "150629.527500",
          "150631.017500",
          "150632.507500",
          "150633.997500",
          "150635.487500",
          "150636.977500",
          "150638.467500",
          "150639.957500",
          "150641.447500",
          "150642.937500",
          "150644.427500",
          "150645.917500",
          "150647.407500",
          "150648.897500",
          "150650.387500",
          "150651.877500",
          "150653.367500",
          "150654.857500",
          "150656.347500",
          "150657.837500",
          "150659.327500",
          "150700.817500",
          "150702.307500",
          "150703.797500",
          "150705.287500",
          "150706.777500",
          "150708.267500",
          "150709.757500",
          "150711.247500",
          "150712.737500",
          "150714.227500",
          "150715.717500",
          "150717.207500",
          "150718.697500",
          "150720.187500",
          "150721.677500",
          "150723.167500",
          "150724.657500",
          "150726.147500",
          "150727.637500",
          "150729.127500",
          "150730.617500",
          "150732.107500",
          "150733.597500",
          "150735.087500",
          "150736.577500",
          "150738.067500",
          "150739.557500",
          "150741.047500",
          "150742.537500",
          "150744.027500",
          "150745.517500",
          "150747.007500",
          "150748.497500",
          "150749.987500",
          "150751.477500",
          "150752.967500",
          "150754.457500",
          "150755.947500",
          "150757.437500",
          "150758.927500",
          "150800.417500",
          "150801.907500",
          "150803.397500",
          "150804.887500",
          "150806.377500",
          "150807.867500",
          "150809.357500",
          "150810.847500",
          "150812.337500",
          "150813.827500",
          "150815.317500",
          "150816.807500",
          "150818.297500",
          "150819.787500",
          "150821.277500",
          "150822.767500",
          "150824.257500",
          "150825.747500",
          "150827.237500",
          "150828.727500",
          "150830.217500",
          "150831.707500",
          "150833.197500",
          "150834.687500",
          "150836.177500",
          "150837.667500",
          "150839.157500",
          "150840.647500",
          "150842.137500",
          "150843.627500",
          "150845.117500",
          "150846.607500",
          "150848.097500",
          "150849.587500",
          "150851.077500",
          "150852.567500",
          "150854.057500",
          "150855.547500",
          "150857.037500",
          "150858.527500",
          "150900.017500",
          "150901.507500",
          "150902.997500",
          "150904.487500",
          "150905.977500",
          "150907.467500",
          "150908.957500",
          "150910.447500",
          "150911.937500",
          "150913.427500",
          "150914.917500",
          "150916.407500",
          "150917.897500",
          "150919.387500",
          "150920.877500",
          "150922.367500",
          "150923.857500",
          "150925.347500",
          "150926.837500",
          "150928.327500",
          "150929.817500",
          "150931.307500",
          "150932.797500",
          "150934.287500",
          "150935.777500",
          "150937.267500",
          "150938.757500",
          "150940.247500",
          "150941.737500",
          "150943.227500",
          "150944.717500",
          "150946.207500",
          "150947.697500",
          "150949.187500",
          "150950.677500",
          "150952.167500",
          "150953.657500",
          "150955.147500",
          "150956.637500",
          "150958.127500",
          "150959.617500",
          "151001.107500",
          "151002.597500",
          "151004.087500",
          "151005.577500",
          "151007.067500",
          "151008.557500",
          "151010.047500",
          "151011.537500",
          "151013.027500",
          "151014.517500",
          "151016.007500",
          "151017.497500",
          "151018.987500",
          "151020.477500",
          "151021.967500",
          "151023.457500",
          "151024.947500",
          "151026.437500",
          "151027.927500",
          "151029.417500",
          "151030.907500",
          "151032.397500",
          "151033.887500",
          "151035.377500",
          "151036.867500",
          "151038.357500",
          "151039.847500",
          "151041.337500",
          "151042.827500",
          "151044.317500",
          "151045.807500",
          "151047.297500",
          "151048.787500",
          "151050.277500",
          "151051.767500",
          "151053.257500",
          "151054.747500",
          "151056.237500",
          "151057.727500",
          "151059.217500",
          "151100.707500",
          "151102.197500",
          "151103.687500",
          "151105.177500",
          "151106.667500",
          "151108.157500",
          "151109.647500",
          "151111.137500",
          "151112.627500",
          "151114.117500",
          "151115.607500",
          "151117.097500",
          "151118.587500",
          "151120.077500",
          "151121.567500",
          "151123.057500",
          "151124.547500",
          "151126.037500",
          "151127.527500",
          "151129.017500",
          "151130.507500",
          "151131.997500",
          "151133.487500",
          "151134.977500",
          "151136.467500",
          "151137.957500"
        ],
        "ContentTime": [
          "150258.253000",
          "150258.257000",
          "150258.260000",
          "150258.273000",
          "150258.276000",
          "150258.279000",
          "150258.281000",
          "150258.284000",
          "150258.287000",
          "150258.290000",
          "150258.293000",
          "150258.296000",
          "150258.299000",
          "150258.302000",
          "150258.305000",
          "150258.308000",
          "150258.310000",
          "150258.313000",
          "150258.316000",
          "150258.319000",
          "150258.322000",
          "150258.325000",
          "150258.328000",
          "150258.331000",
          "150258.333000",
          "150258.336000",
          "150258.339000",
          "150258.342000",
          "150258.345000",
          "150258.348000",
          "150258.357000",
          "150318.217000",
          "150318.220000",
          "150318.223000",
          "150318.226000",
          "150318.228000",
          "150318.231000",
          "150318.234000",
          "150318.237000",
          "150318.240000",
          "150318.243000",
          "150318.246000",
          "150318.248000",
          "150318.251000",
          "150318.254000",
          "150318.257000",
          "150318.260000",
          "150318.263000",
          "150318.265000",
          "150318.268000",
          "150318.271000",
          "150338.217000",
          "150338.220000",
          "150338.223000",
          "150338.226000",
          "150338.228000",
          "150338.236000",
          "150338.238000",
          "150338.241000",
          "150338.244000",
          "150338.247000",
          "150338.250000",
          "150338.253000",
          "150338.255000",
          "150338.258000",
          "150338.261000",
          "150338.265000",
          "150338.268000",
          "150338.271000",
          "150338.274000",
          "150338.276000",
          "150358.216000",
          "150358.219000",
          "150358.221000",
          "150358.224000",
          "150358.227000",
          "150358.230000",
          "150358.233000",
          "150358.236000",
          "150358.243000",
          "150358.246000",
          "150358.249000",
          "150358.251000",
          "150358.254000",
          "150358.257000",
          "150358.260000",
          "150358.263000",
          "150358.266000",
          "150358.269000",
          "150358.271000",
          "150358.274000",
          "150358.277000",
          "150438.217000",
          "150438.220000",
          "150438.223000",
          "150438.226000",
          "150438.229000",
          "150438.231000",
          "150438.234000",
          "150438.237000",
          "150438.240000",
          "150438.243000",
          "150438.246000",
          "150438.248000",
          "150438.251000",
          "150438.254000",
          "150438.257000",
          "150438.260000",
          "150438.263000",
          "150438.265000",
          "150438.268000",
          "150438.271000",
          "150438.274000",
          "150438.277000",
          "150438.280000",
          "150438.282000",
          "150438.285000",
          "150438.288000",
          "150438.291000",
          "150438.294000",
          "150438.297000",
          "150438.300000",
          "150438.302000",
          "150438.305000",
          "150518.217000",
          "150518.221000",
          "150518.224000",
          "150518.227000",
          "150518.230000",
          "150518.233000",
          "150518.235000",
          "150518.238000",
          "150518.241000",
          "150518.244000",
          "150518.247000",
          "150518.250000",
          "150518.252000",
          "150518.255000",
          "150518.258000",
          "150518.261000",
          "150518.264000",
          "150518.267000",
          "150518.270000",
          "150518.273000",
          "150518.275000",
          "150518.278000",
          "150518.281000",
          "150518.284000",
          "150518.287000",
          "150518.289000",
          "150558.217000",
          "150558.220000",
          "150558.223000",
          "150558.226000",
          "150558.229000",
          "150558.231000",
          "150558.234000",
          "150558.237000",
          "150558.240000",
          "150558.243000",
          "150558.246000",
          "150558.248000",
          "150558.251000",
          "150558.254000",
          "150558.261000",
          "150558.264000",
          "150558.266000",
          "150558.269000",
          "150558.272000",
          "150558.275000",
          "150558.278000",
          "150558.281000",
          "150558.283000",
          "150558.286000",
          "150558.289000",
          "150558.292000",
          "150558.295000",
          "150638.216000",
          "150638.219000",
          "150638.222000",
          "150638.225000",
          "150638.228000",
          "150638.231000",
          "150638.233000",
          "150638.236000",
          "150638.239000",
          "150638.242000",
          "150638.245000",
          "150638.248000",
          "150638.250000",
          "150638.253000",
          "150638.256000",
          "150638.259000",
          "150638.262000",
          "150638.265000",
          "150638.268000",
          "150638.270000",
          "150638.273000",
          "150638.276000",
          "150638.279000",
          "150638.282000",
          "150638.285000",
          "150638.287000",
          "150638.290000",
          "150718.217000",
          "150718.220000",
          "150718.223000",
          "150718.226000",
          "150718.229000",
          "150718.232000",
          "150718.234000",
          "150718.237000",
          "150718.240000",
          "150718.243000",
          "150718.246000",
          "150718.249000",
          "150718.251000",
          "150718.254000",
          "150718.257000",
          "150718.260000",
          "150718.263000",
          "150718.266000",
