{
  "aor": 0.0008894334975369457,
  "aqi": 0.014690606896551725,
  "bids_meta": {
    "AcquisitionMatrixPE": 104,
    "AcquisitionNumber": 1,
    "AcquisitionTime": "14:08:28.105000",
    "BandwidthPerPixelPhaseEncode": 17.17,
    "BaseResolution": 104,
    "BodyPartExamined": "BRAIN",
    "CogAtlasID": "trm_4c898da401420",
    "ConsistencyInfo": "N4_VE11C_LATEST_20160120",
    "ConversionSoftware": "dcm2niix",
    "ConversionSoftwareVersion": "v1.0.20171215 (OpenJPEG build) GCC7.3.0",
    "DerivedVendorReportedEchoSpacing": 0.000560011,
    "DeviceSerialNumber": "167006",
    "DwellTime": 2.1e-06,
    "EchoTime": 0.037,
    "EchoTrainLength": 104,
    "EffectiveEchoSpacing": 0.000560011,
    "FlipAngle": 52,
    "ImageComments": "Unaliased_MB4_PE3_LB",
    "ImageOrientationPatientDICOM": [
      0.99967,
      0.0172059,
      -0.019067,
      -0.0246059,
      0.854355,
      -0.519108
    ],
    "ImageType": [
      "ORIGINAL",
      "PRIMARY",
      "M",
      "MB",
      "ND",
      "MOSAIC"
    ],
    "InPlanePhaseEncodingDirectionDICOM": "COL",
    "InstitutionAddress": "Chemin_Queen-Mary_4565_Montreal_District_CA_H3W_1W5",
    "InstitutionName": "IUGM",
    "InstitutionalDepartmentName": "Department",
    "MRAcquisitionType": "2D",
    "MagneticFieldStrength": 3,
    "Manufacturer": "Siemens",
    "ManufacturersModelName": "Prisma_fit",
    "Modality": "MR",
    "MultibandAccelerationFactor": 4,
    "PartialFourier": 1,
    "PatientPosition": "HFS",
    "PercentPhaseFOV": 100,
    "PhaseEncodingDirection": "j-",
    "PhaseEncodingSteps": 104,
    "PhaseResolution": 1,
    "PixelBandwidth": 2290,
    "ProcedureStepDescription": "video5_generic",
    "ProtocolName": "func_task-wolf7",
    "PulseSequenceDetails": "%CustomerSeq%_cmrr_mbep2d_bold",
    "ReceiveCoilActiveElements": "HC1-7;NC1,2",
    "ReceiveCoilName": "HeadNeck_64",
    "ReconMatrixPE": 104,
    "RepetitionTime": 1.49,
    "SAR": 0.0358486,
    "ScanOptions": "FS",
    "ScanningSequence": "EP",
    "SequenceName": "epfid2d1_104",
    "SequenceVariant": "SK_SS",
    "SeriesDescription": "func_task-wolf7",
    "SeriesNumber": 9,
    "ShimSetting": [
      615,
      -7176,
      -8873,
      351,
      -25,
      -165,
      31,
      -26
    ],
    "SliceThickness": 2,
    "SliceTiming": [
      0,
      0.785,
      0.0975,
      0.8825,
      0.1975,
      0.98,
      0.295,
      1.0775,
      0.3925,
      1.1775,
      0.49,
      1.275,
      0.5875,
      1.3725,
      0.6875,
      0,
      0.785,
      0.0975,
      0.8825,
      0.1975,
      0.98,
      0.295,
      1.0775,
      0.3925,
      1.1775,
      0.49,
      1.275,
      0.5875,
      1.3725,
      0.6875,
      0,
      0.785,
      0.0975,
      0.8825,
      0.1975,
      0.98,
      0.295,
      1.0775,
      0.3925,
      1.1775,
      0.49,
      1.275,
      0.5875,
      1.3725,
      0.6875,
      0,
      0.785,
      0.0975,
      0.8825,
      0.1975,
      0.98,
      0.295,
      1.0775,
      0.3925,
      1.1775,
      0.49,
      1.275,
      0.5875,
      1.3725,
      0.6875
    ],
    "SoftwareVersions": "syngo_MR_E11",
    "SpacingBetweenSlices": 2,
    "StationName": "MRC35049",
    "TaskName": "wolf07",
    "TotalReadoutTime": 0.0576811,
    "TxRefAmp": 248.699,
    "dataset": "<unset>",
    "dcmmeta_affine": [
      [
        -1.999340295791626,
        -0.049211833626031876,
        -0.014716582372784615,
        108.1201400756836
      ],
      [
        -0.034411825239658356,
        1.7087090015411377,
        -1.0388115644454956,
        -53.61195373535156
      ],
      [
        -0.03813409060239792,
        1.0382156372070312,
        1.7089921236038208,
        -96.60211944580078
      ],
      [
        0.0,
        0.0,
        0.0,
        1.0
      ]
    ],
    "dcmmeta_reorient_transform": [
      [
        0.0,
        -1.0,
        0.0,
        103.0
      ],
      [
        1.0,
        0.0,
        0.0,
        0.0
      ],
      [
        0.0,
        0.0,
        1.0,
        0.0
      ],
      [
        0.0,
        0.0,
        0.0,
        1.0
      ]
    ],
    "dcmmeta_shape": [
      104,
      104,
      60,
      407
    ],
    "dcmmeta_slice_dim": 2,
    "dcmmeta_version": 0.6,
    "global": {
      "const": {
        "AcquisitionMatrix": [
          104,
          0,
          0,
          104
        ],
        "AngioFlag": "N",
        "BitsAllocated": 16,
        "BitsStored": 16,
        "BodyPartExamined": "BRAIN",
        "Columns": 832,
        "EchoNumbers": 1,
        "EchoTime": 37.0,
        "EchoTrainLength": 104,
        "FlipAngle": 52.0,
        "HighBit": 15,
        "ImageOrientationPatient": [
          0.99967014780142,
          0.01720591202208,
          -0.0190670445057,
          -0.0246059169053,
          0.85435448833494,
          -0.5191078472873
        ],
        "ImagePositionPatient": [
          -812.89807888239,
          -756.88104141186,
          402.12541683211
        ],
        "ImageType": [
          "ORIGINAL",
          "PRIMARY",
          "M",
          "MB",
          "ND",
          "MOSAIC"
        ],
        "ImagedNucleus": "1H",
        "ImagingFrequency": 123.259493,
        "InPlanePhaseEncodingDirection": "COL",
        "MRAcquisitionType": "2D",
        "MagneticFieldStrength": 3.0,
        "Manufacturer": "SIEMENS",
        "ManufacturerModelName": "Prisma_fit",
        "Modality": "MR",
        "NumberOfAverages": 1.0,
        "NumberOfPhaseEncodingSteps": 104,
        "PercentPhaseFieldOfView": 100.0,
        "PercentSampling": 100.0,
        "PerformedProcedureStepStartTime": "134814.649000",
        "PhotometricInterpretation": "MONOCHROME2",
        "PixelBandwidth": 2290.0,
        "PixelRepresentation": 0,
        "PixelSpacing": [
          2.0,
          2.0
        ],
        "ProtocolName": "func_task-wolf7",
        "RepetitionTime": 1490.0,
        "Rows": 832,
        "SAR": 0.03584862166348,
        "SamplesPerPixel": 1,
        "ScanOptions": "FS",
        "ScanningSequence": "EP",
        "SequenceName": "epfid2d1_104",
        "SequenceVariant": [
          "SK",
          "SS"
        ],
        "SeriesDescription": "func_task-wolf7",
        "SeriesNumber": 9,
        "SeriesTime": "140942.202000",
        "SliceLocation": -55.495350563054,
        "SliceThickness": 2.0,
        "SmallestImagePixelValue": 0,
        "SoftwareVersions": "syngo MR E11",
        "SpacingBetweenSlices": 1.9999999871074,
        "SpecificCharacterSet": "ISO_IR 100",
        "StudyID": "1",
        "StudyTime": "134814.552000",
        "TransmitCoilName": "Body",
        "VariableFlipAngleFlag": "N",
        "WindowCenterWidthExplanation": "Algo1",
        "dBdt": 0.0
      },
      "slices": {}
    },
    "modality": "bold",
    "session_id": "007",
    "subject_id": "02",
    "task_id": "wolf07",
    "time": {
      "samples": {
        "AcquisitionNumber": [
          1,
          2,
          3,
          4,
          5,
          6,
          7,
          8,
          9,
          10,
          11,
          12,
          13,
          14,
          15,
          16,
          17,
          18,
          19,
          20,
          21,
          22,
          23,
          24,
          25,
          26,
          27,
          28,
          29,
          30,
          31,
          32,
          33,
          34,
          35,
          36,
          37,
          38,
          39,
          40,
          41,
          42,
          43,
          44,
          45,
          46,
          47,
          48,
          49,
          50,
          51,
          52,
          53,
          54,
          55,
          56,
          57,
          58,
          59,
          60,
          61,
          62,
          63,
          64,
          65,
          66,
          67,
          68,
          69,
          70,
          71,
          72,
          73,
          74,
          75,
          76,
          77,
          78,
          79,
          80,
          81,
          82,
          83,
          84,
          85,
          86,
          87,
          88,
          89,
          90,
          91,
          92,
          93,
          94,
          95,
          96,
          97,
          98,
          99,
          100,
          101,
          102,
          103,
          104,
          105,
          106,
          107,
          108,
          109,
          110,
          111,
          112,
          113,
          114,
          115,
          116,
          117,
          118,
          119,
          120,
          121,
          122,
          123,
          124,
          125,
          126,
          127,
          128,
          129,
          130,
          131,
          132,
          133,
          134,
          135,
          136,
          137,
          138,
          139,
          140,
          141,
          142,
          143,
          144,
          145,
          146,
          147,
          148,
          149,
          150,
          151,
          152,
          153,
          154,
          155,
          156,
          157,
          158,
          159,
          160,
          161,
          162,
          163,
          164,
          165,
          166,
          167,
          168,
          169,
          170,
          171,
          172,
          173,
          174,
          175,
          176,
          177,
          178,
          179,
          180,
          181,
          182,
          183,
          184,
          185,
          186,
          187,
          188,
          189,
          190,
          191,
          192,
          193,
          194,
          195,
          196,
          197,
          198,
          199,
          200,
          201,
          202,
          203,
          204,
          205,
          206,
          207,
          208,
          209,
          210,
          211,
          212,
          213,
          214,
          215,
          216,
          217,
          218,
          219,
          220,
          221,
          222,
          223,
          224,
          225,
          226,
          227,
          228,
          229,
          230,
          231,
          232,
          233,
          234,
          235,
          236,
          237,
          238,
          239,
          240,
          241,
          242,
          243,
          244,
          245,
          246,
          247,
          248,
          249,
          250,
          251,
          252,
          253,
          254,
          255,
          256,
          257,
          258,
          259,
          260,
          261,
          262,
          263,
          264,
          265,
          266,
          267,
          268,
          269,
          270,
          271,
          272,
          273,
          274,
          275,
          276,
          277,
          278,
          279,
          280,
          281,
          282,
          283,
          284,
          285,
          286,
          287,
          288,
          289,
          290,
          291,
          292,
          293,
          294,
          295,
          296,
          297,
          298,
          299,
          300,
          301,
          302,
          303,
          304,
          305,
          306,
          307,
          308,
          309,
          310,
          311,
          312,
          313,
          314,
          315,
          316,
          317,
          318,
          319,
          320,
          321,
          322,
          323,
          324,
          325,
          326,
          327,
          328,
          329,
          330,
          331,
          332,
          333,
          334,
          335,
          336,
          337,
          338,
          339,
          340,
          341,
          342,
          343,
          344,
          345,
          346,
          347,
          348,
          349,
          350,
          351,
          352,
          353,
          354,
          355,
          356,
          357,
          358,
          359,
          360,
          361,
          362,
          363,
          364,
          365,
          366,
          367,
          368,
          369,
          370,
          371,
          372,
          373,
          374,
          375,
          376,
          377,
          378,
          379,
          380,
          381,
          382,
          383,
          384,
          385,
          386,
          387,
          388,
          389,
          390,
          391,
          392,
          393,
          394,
          395,
          396,
          397,
          398,
          399,
          400,
          401,
          402,
          403,
          404,
          405,
          406,
          407
        ],
        "AcquisitionTime": [
          "140828.105000",
          "140829.595000",
          "140831.085000",
          "140832.575000",
          "140834.065000",
          "140835.555000",
          "140837.045000",
          "140838.535000",
          "140840.025000",
          "140841.515000",
          "140843.005000",
          "140844.495000",
          "140845.985000",
          "140847.475000",
          "140848.965000",
          "140850.455000",
          "140851.945000",
          "140853.435000",
          "140854.925000",
          "140856.415000",
          "140857.905000",
          "140859.395000",
          "140900.885000",
          "140902.375000",
          "140903.865000",
          "140905.355000",
          "140906.845000",
          "140908.335000",
          "140909.825000",
          "140911.315000",
          "140912.805000",
          "140914.295000",
          "140915.785000",
          "140917.275000",
          "140918.765000",
          "140920.255000",
          "140921.745000",
          "140923.235000",
          "140924.725000",
          "140926.215000",
          "140927.705000",
          "140929.195000",
          "140930.685000",
          "140932.175000",
          "140933.665000",
          "140935.155000",
          "140936.645000",
          "140938.135000",
          "140939.625000",
          "140941.115000",
          "140942.605000",
          "140944.095000",
          "140945.585000",
          "140947.075000",
          "140948.565000",
          "140950.055000",
          "140951.545000",
          "140953.035000",
          "140954.525000",
          "140956.015000",
          "140957.505000",
          "140958.995000",
          "141000.485000",
          "141001.975000",
          "141003.465000",
          "141004.955000",
          "141006.445000",
          "141007.935000",
          "141009.425000",
          "141010.915000",
          "141012.405000",
          "141013.895000",
          "141015.385000",
          "141016.875000",
          "141018.365000",
          "141019.855000",
          "141021.345000",
          "141022.835000",
          "141024.325000",
          "141025.815000",
          "141027.305000",
          "141028.795000",
          "141030.285000",
          "141031.775000",
          "141033.265000",
          "141034.755000",
          "141036.245000",
          "141037.735000",
          "141039.225000",
          "141040.715000",
          "141042.205000",
          "141043.695000",
          "141045.185000",
          "141046.675000",
          "141048.165000",
          "141049.655000",
          "141051.145000",
          "141052.635000",
          "141054.125000",
          "141055.615000",
          "141057.105000",
          "141058.595000",
          "141100.085000",
          "141101.575000",
          "141103.065000",
          "141104.555000",
          "141106.045000",
          "141107.535000",
          "141109.025000",
          "141110.515000",
          "141112.005000",
          "141113.495000",
          "141114.985000",
          "141116.475000",
          "141117.965000",
          "141119.455000",
          "141120.945000",
          "141122.435000",
          "141123.925000",
          "141125.415000",
          "141126.905000",
          "141128.395000",
          "141129.885000",
          "141131.375000",
          "141132.865000",
          "141134.355000",
          "141135.845000",
          "141137.335000",
          "141138.825000",
          "141140.315000",
          "141141.805000",
          "141143.295000",
          "141144.785000",
          "141146.275000",
          "141147.765000",
          "141149.255000",
          "141150.745000",
          "141152.235000",
          "141153.725000",
          "141155.215000",
          "141156.705000",
          "141158.195000",
          "141159.685000",
          "141201.175000",
          "141202.665000",
          "141204.155000",
          "141205.645000",
          "141207.135000",
          "141208.625000",
          "141210.115000",
          "141211.605000",
          "141213.095000",
          "141214.585000",
          "141216.075000",
          "141217.565000",
          "141219.055000",
          "141220.545000",
          "141222.035000",
          "141223.525000",
          "141225.015000",
          "141226.505000",
          "141227.995000",
          "141229.485000",
          "141230.975000",
          "141232.465000",
          "141233.955000",
          "141235.445000",
          "141236.935000",
          "141238.425000",
          "141239.915000",
          "141241.405000",
          "141242.895000",
          "141244.385000",
          "141245.875000",
          "141247.365000",
          "141248.855000",
          "141250.345000",
          "141251.835000",
          "141253.325000",
          "141254.815000",
          "141256.305000",
          "141257.795000",
          "141259.285000",
          "141300.775000",
          "141302.265000",
          "141303.755000",
          "141305.245000",
          "141306.735000",
          "141308.225000",
          "141309.715000",
          "141311.205000",
          "141312.695000",
          "141314.185000",
          "141315.675000",
          "141317.165000",
          "141318.655000",
          "141320.145000",
          "141321.635000",
          "141323.125000",
          "141324.615000",
          "141326.105000",
          "141327.595000",
          "141329.085000",
          "141330.575000",
          "141332.065000",
          "141333.555000",
          "141335.045000",
          "141336.535000",
          "141338.025000",
          "141339.515000",
          "141341.005000",
          "141342.495000",
          "141343.985000",
          "141345.475000",
          "141346.965000",
          "141348.455000",
          "141349.945000",
          "141351.435000",
          "141352.925000",
          "141354.415000",
          "141355.905000",
          "141357.395000",
          "141358.885000",
          "141400.375000",
          "141401.865000",
          "141403.355000",
          "141404.845000",
          "141406.335000",
          "141407.825000",
          "141409.315000",
          "141410.805000",
          "141412.295000",
          "141413.785000",
          "141415.275000",
          "141416.765000",
          "141418.255000",
          "141419.745000",
          "141421.235000",
          "141422.725000",
          "141424.215000",
          "141425.705000",
          "141427.195000",
          "141428.685000",
          "141430.175000",
          "141431.665000",
          "141433.155000",
          "141434.645000",
          "141436.135000",
          "141437.625000",
          "141439.115000",
          "141440.605000",
          "141442.095000",
          "141443.585000",
          "141445.075000",
          "141446.565000",
          "141448.055000",
          "141449.545000",
          "141451.035000",
          "141452.525000",
          "141454.015000",
          "141455.505000",
          "141456.995000",
          "141458.485000",
          "141459.975000",
          "141501.465000",
          "141502.955000",
          "141504.445000",
          "141505.935000",
          "141507.425000",
          "141508.915000",
          "141510.405000",
          "141511.895000",
          "141513.385000",
          "141514.875000",
          "141516.365000",
          "141517.855000",
          "141519.345000",
          "141520.835000",
          "141522.325000",
          "141523.815000",
          "141525.305000",
          "141526.795000",
          "141528.285000",
          "141529.775000",
          "141531.265000",
          "141532.755000",
          "141534.245000",
          "141535.735000",
          "141537.225000",
          "141538.715000",
          "141540.205000",
          "141541.695000",
          "141543.185000",
          "141544.675000",
          "141546.165000",
          "141547.655000",
          "141549.145000",
          "141550.635000",
          "141552.125000",
          "141553.615000",
          "141555.105000",
          "141556.595000",
          "141558.085000",
          "141559.575000",
          "141601.065000",
          "141602.555000",
          "141604.045000",
          "141605.535000",
          "141607.025000",
          "141608.515000",
          "141610.005000",
          "141611.495000",
          "141612.985000",
          "141614.475000",
          "141615.965000",
          "141617.455000",
          "141618.945000",
          "141620.435000",
          "141621.925000",
          "141623.415000",
          "141624.905000",
          "141626.395000",
          "141627.885000",
          "141629.375000",
          "141630.865000",
          "141632.355000",
          "141633.845000",
          "141635.335000",
          "141636.825000",
          "141638.315000",
          "141639.805000",
          "141641.295000",
          "141642.785000",
          "141644.275000",
          "141645.765000",
          "141647.255000",
          "141648.745000",
          "141650.235000",
          "141651.725000",
          "141653.215000",
          "141654.705000",
          "141656.195000",
          "141657.685000",
          "141659.175000",
          "141700.665000",
          "141702.155000",
          "141703.645000",
          "141705.135000",
          "141706.625000",
          "141708.115000",
          "141709.605000",
          "141711.095000",
          "141712.585000",
          "141714.075000",
          "141715.565000",
          "141717.055000",
          "141718.545000",
          "141720.035000",
          "141721.525000",
          "141723.015000",
          "141724.505000",
          "141725.995000",
          "141727.485000",
          "141728.975000",
          "141730.465000",
          "141731.955000",
          "141733.445000",
          "141734.935000",
          "141736.425000",
          "141737.915000",
          "141739.405000",
          "141740.895000",
          "141742.385000",
          "141743.875000",
          "141745.365000",
          "141746.855000",
          "141748.345000",
          "141749.835000",
          "141751.325000",
          "141752.815000",
          "141754.305000",
          "141755.795000",
          "141757.285000",
          "141758.775000",
          "141800.265000",
          "141801.755000",
          "141803.245000",
          "141804.735000",
          "141806.225000",
          "141807.715000",
          "141809.205000",
          "141810.695000",
          "141812.185000",
          "141813.675000",
          "141815.165000",
          "141816.655000",
          "141818.145000",
          "141819.635000",
          "141821.125000",
          "141822.615000",
          "141824.105000",
          "141825.595000",
          "141827.085000",
          "141828.575000",
          "141830.065000",
          "141831.555000",
          "141833.045000"
        ],
        "ContentTime": [
          "140942.205000",
          "140942.208000",
          "140942.224000",
          "140942.226000",
          "140942.229000",
          "140942.232000",
          "140942.235000",
          "140942.238000",
          "140942.241000",
          "140942.244000",
          "140942.247000",
          "140942.250000",
          "140942.252000",
          "140942.255000",
          "140942.258000",
          "140942.261000",
          "140942.264000",
          "140942.267000",
          "140942.272000",
          "140942.275000",
          "140942.277000",
          "140942.288000",
          "141002.149000",
          "141002.152000",
          "141002.167000",
          "141002.182000",
          "141002.185000",
          "141002.188000",
          "141002.191000",
          "141002.194000",
          "141002.197000",
          "141002.199000",
          "141002.202000",
          "141002.205000",
          "141002.208000",
          "141002.211000",
          "141002.214000",
          "141002.217000",
          "141002.220000",
          "141002.223000",
          "141002.226000",
          "141002.228000",
          "141022.149000",
          "141022.160000",
          "141022.163000",
          "141022.166000",
          "141022.169000",
          "141022.171000",
          "141022.174000",
          "141022.177000",
          "141022.180000",
          "141022.183000",
          "141022.186000",
          "141022.188000",
          "141022.191000",
          "141022.194000",
          "141022.197000",
          "141022.205000",
          "141022.208000",
          "141022.210000",
          "141022.213000",
          "141022.216000",
          "141022.219000",
          "141042.149000",
          "141042.152000",
          "141042.155000",
          "141042.157000",
          "141042.160000",
          "141042.163000",
          "141042.166000",
          "141042.169000",
          "141042.171000",
          "141042.174000",
          "141042.177000",
          "141042.180000",
          "141042.183000",
          "141042.185000",
          "141042.188000",
          "141042.191000",
          "141042.194000",
          "141042.197000",
          "141042.199000",
          "141042.202000",
          "141122.150000",
          "141122.153000",
          "141122.156000",
          "141122.158000",
          "141122.161000",
          "141122.164000",
          "141122.167000",
          "141122.170000",
          "141122.173000",
          "141122.175000",
          "141122.178000",
          "141122.181000",
          "141122.192000",
          "141122.195000",
          "141122.198000",
          "141122.201000",
          "141122.204000",
          "141122.206000",
          "141122.209000",
          "141122.212000",
          "141122.215000",
          "141122.218000",
          "141122.221000",
          "141122.223000",
          "141122.226000",
          "141122.229000",
          "141122.232000",
          "141122.235000",
          "141122.238000",
          "141122.241000",
          "141122.244000",
          "141122.247000",
          "141122.249000",
          "141202.150000",
          "141202.153000",
          "141202.156000",
          "141202.158000",
          "141202.161000",
          "141202.164000",
          "141202.167000",
          "141202.170000",
          "141202.173000",
          "141202.175000",
          "141202.178000",
          "141202.181000",
          "141202.184000",
          "141202.187000",
          "141202.190000",
          "141202.193000",
          "141202.195000",
          "141202.198000",
          "141202.201000",
          "141202.204000",
          "141202.207000",
          "141202.210000",
          "141202.213000",
          "141202.215000",
          "141202.218000",
          "141202.221000",
          "141202.224000",
          "141242.149000",
          "141242.152000",
          "141242.155000",
          "141242.158000",
          "141242.161000",
          "141242.164000",
          "141242.167000",
          "141242.169000",
          "141242.172000",
          "141242.175000",
          "141242.178000",
          "141242.181000",
          "141242.184000",
          "141242.187000",
          "141242.190000",
          "141242.193000",
          "141242.195000",
          "141242.198000",
          "141242.201000",
          "141242.204000",
          "141242.207000",
          "141242.210000",
          "141242.213000",
          "141242.215000",
          "141242.218000",
          "141242.221000",
          "141242.224000",
          "141322.150000",
          "141322.153000",
          "141322.156000",
          "141322.159000",
          "141322.188000",
          "141322.191000",
          "141322.194000",
          "141322.197000",
          "141322.200000",
          "141322.202000",
          "141322.205000",
          "141322.208000",
          "141322.211000",
          "141322.214000",
          "141322.217000",
          "141322.220000",
          "141322.223000",
          "141322.225000",
          "141322.228000",
          "141322.231000",
          "141322.234000",
          "141322.237000",
          "141322.240000",
          "141322.243000",
          "141322.246000",
          "141322.250000",
          "141402.150000",
          "141402.153000",
          "141402.156000",
          "141402.158000",
          "141402.161000",
          "141402.164000",
          "141402.167000",
          "141402.170000",
          "141402.173000",
          "141402.175000",
          "141402.178000",
          "141402.181000",
          "141402.184000",
          "141402.187000",
          "141402.190000",
          "141402.193000",
          "141402.195000",
          "141402.198000",
          "141402.201000",
          "141402.204000",
          "141402.207000",
          "141402.210000",
          "141402.219000",
          "141402.221000",
          "141402.224000",
          "141402.235000",
