{
  "aor": 0.002777536945812808,
  "aqi": 0.015076471330049262,
  "bids_meta": {
    "AcquisitionMatrixPE": 104,
    "AcquisitionNumber": 1,
    "AcquisitionTime": "14:29:34.987500",
    "BandwidthPerPixelPhaseEncode": 17.17,
    "BaseResolution": 104,
    "BodyPartExamined": "BRAIN",
    "CogAtlasID": "trm_4c898da401420",
    "ConsistencyInfo": "N4_VE11C_LATEST_20160120",
    "ConversionSoftware": "dcm2niix",
    "ConversionSoftwareVersion": "v1.0.20171215 (OpenJPEG build) GCC7.3.0",
    "DerivedVendorReportedEchoSpacing": 0.000560011,
    "DeviceSerialNumber": "167006",
    "DwellTime": 2.1e-06,
    "EchoTime": 0.037,
    "EchoTrainLength": 104,
    "EffectiveEchoSpacing": 0.000560011,
    "FlipAngle": 52,
    "ImageComments": "Unaliased_MB4_PE3_LB",
    "ImageOrientationPatientDICOM": [
      0.99967,
      0.0172059,
      -0.019067,
      -0.0246059,
      0.854355,
      -0.519108
    ],
    "ImageType": [
      "ORIGINAL",
      "PRIMARY",
      "M",
      "MB",
      "ND",
      "MOSAIC"
    ],
    "InPlanePhaseEncodingDirectionDICOM": "COL",
    "InstitutionAddress": "Chemin_Queen-Mary_4565_Montreal_District_CA_H3W_1W5",
    "InstitutionName": "IUGM",
    "InstitutionalDepartmentName": "Department",
    "MRAcquisitionType": "2D",
    "MagneticFieldStrength": 3,
    "Manufacturer": "Siemens",
    "ManufacturersModelName": "Prisma_fit",
    "Modality": "MR",
    "MultibandAccelerationFactor": 4,
    "PartialFourier": 1,
    "PatientPosition": "HFS",
    "PercentPhaseFOV": 100,
    "PhaseEncodingDirection": "j-",
    "PhaseEncodingSteps": 104,
    "PhaseResolution": 1,
    "PixelBandwidth": 2290,
    "ProcedureStepDescription": "video5_generic",
    "ProtocolName": "func_task-wolf9",
    "PulseSequenceDetails": "%CustomerSeq%_cmrr_mbep2d_bold",
    "ReceiveCoilActiveElements": "HC1-7;NC1,2",
    "ReceiveCoilName": "HeadNeck_64",
    "ReconMatrixPE": 104,
    "RepetitionTime": 1.49,
    "SAR": 0.0358486,
    "ScanOptions": "FS",
    "ScanningSequence": "EP",
    "SequenceName": "epfid2d1_104",
    "SequenceVariant": "SK_SS",
    "SeriesDescription": "func_task-wolf9",
    "SeriesNumber": 13,
    "ShimSetting": [
      615,
      -7176,
      -8873,
      351,
      -25,
      -165,
      31,
      -26
    ],
    "SliceThickness": 2,
    "SliceTiming": [
      0,
      0.7825,
      0.0975,
      0.88,
      0.195,
      0.98,
      0.2925,
      1.0775,
      0.39,
      1.175,
      0.49,
      1.2725,
      0.5875,
      1.37,
      0.685,
      0,
      0.7825,
      0.0975,
      0.88,
      0.195,
      0.98,
      0.2925,
      1.0775,
      0.39,
      1.175,
      0.49,
      1.2725,
      0.5875,
      1.37,
      0.685,
      0,
      0.7825,
      0.0975,
      0.88,
      0.195,
      0.98,
      0.2925,
      1.0775,
      0.39,
      1.175,
      0.49,
      1.2725,
      0.5875,
      1.37,
      0.685,
      0,
      0.7825,
      0.0975,
      0.88,
      0.195,
      0.98,
      0.2925,
      1.0775,
      0.39,
      1.175,
      0.49,
      1.2725,
      0.5875,
      1.37,
      0.685
    ],
    "SoftwareVersions": "syngo_MR_E11",
    "SpacingBetweenSlices": 2,
    "StationName": "MRC35049",
    "TaskName": "wolf09",
    "TotalReadoutTime": 0.0576811,
    "TxRefAmp": 248.699,
    "dataset": "<unset>",
    "dcmmeta_affine": [
      [
        -1.999340295791626,
        -0.049211833626031876,
        -0.014716582372784615,
        108.1201400756836
      ],
      [
        -0.034411825239658356,
        1.7087090015411377,
        -1.0388115644454956,
        -53.61195373535156
      ],
      [
        -0.03813409060239792,
        1.0382156372070312,
        1.7089921236038208,
        -96.60211944580078
      ],
      [
        0.0,
        0.0,
        0.0,
        1.0
      ]
    ],
    "dcmmeta_reorient_transform": [
      [
        0.0,
        -1.0,
        0.0,
        103.0
      ],
      [
        1.0,
        0.0,
        0.0,
        0.0
      ],
      [
        0.0,
        0.0,
        1.0,
        0.0
      ],
      [
        0.0,
        0.0,
        0.0,
        1.0
      ]
    ],
    "dcmmeta_shape": [
      104,
      104,
      60,
      407
    ],
    "dcmmeta_slice_dim": 2,
    "dcmmeta_version": 0.6,
    "global": {
      "const": {
        "AcquisitionMatrix": [
          104,
          0,
          0,
          104
        ],
        "AngioFlag": "N",
        "BitsAllocated": 16,
        "BitsStored": 16,
        "BodyPartExamined": "BRAIN",
        "Columns": 832,
        "EchoNumbers": 1,
        "EchoTime": 37.0,
        "EchoTrainLength": 104,
        "FlipAngle": 52.0,
        "HighBit": 15,
        "ImageOrientationPatient": [
          0.99967014780142,
          0.01720591202208,
          -0.0190670445057,
          -0.0246059169053,
          0.85435448833494,
          -0.5191078472873
        ],
        "ImagePositionPatient": [
          -812.89807888239,
          -756.88104141186,
          402.12541683211
        ],
        "ImageType": [
          "ORIGINAL",
          "PRIMARY",
          "M",
          "MB",
          "ND",
          "MOSAIC"
        ],
        "ImagedNucleus": "1H",
        "ImagingFrequency": 123.259512,
        "InPlanePhaseEncodingDirection": "COL",
        "MRAcquisitionType": "2D",
        "MagneticFieldStrength": 3.0,
        "Manufacturer": "SIEMENS",
        "ManufacturerModelName": "Prisma_fit",
        "Modality": "MR",
        "NumberOfAverages": 1.0,
        "NumberOfPhaseEncodingSteps": 104,
        "PercentPhaseFieldOfView": 100.0,
        "PercentSampling": 100.0,
        "PerformedProcedureStepStartTime": "134814.649000",
        "PhotometricInterpretation": "MONOCHROME2",
        "PixelBandwidth": 2290.0,
        "PixelRepresentation": 0,
        "PixelSpacing": [
          2.0,
          2.0
        ],
        "ProtocolName": "func_task-wolf9",
        "RepetitionTime": 1490.0,
        "Rows": 832,
        "SAR": 0.03584862166348,
        "SamplesPerPixel": 1,
        "ScanOptions": "FS",
        "ScanningSequence": "EP",
        "SequenceName": "epfid2d1_104",
        "SequenceVariant": [
          "SK",
          "SS"
        ],
        "SeriesDescription": "func_task-wolf9",
        "SeriesNumber": 13,
        "SeriesTime": "143058.241000",
        "SliceLocation": -55.495350563054,
        "SliceThickness": 2.0,
        "SmallestImagePixelValue": 0,
        "SoftwareVersions": "syngo MR E11",
        "SpacingBetweenSlices": 1.9999999871074,
        "SpecificCharacterSet": "ISO_IR 100",
        "StudyID": "1",
        "StudyTime": "134814.552000",
        "TransmitCoilName": "Body",
        "VariableFlipAngleFlag": "N",
        "WindowCenterWidthExplanation": "Algo1",
        "dBdt": 0.0
      },
      "slices": {}
    },
    "modality": "bold",
    "session_id": "007",
    "subject_id": "02",
    "task_id": "wolf09",
    "time": {
      "samples": {
        "AcquisitionNumber": [
          1,
          2,
          3,
          4,
          5,
          6,
          7,
          8,
          9,
          10,
          11,
          12,
          13,
          14,
          15,
          16,
          17,
          18,
          19,
          20,
          21,
          22,
          23,
          24,
          25,
          26,
          27,
          28,
          29,
          30,
          31,
          32,
          33,
          34,
          35,
          36,
          37,
          38,
          39,
          40,
          41,
          42,
          43,
          44,
          45,
          46,
          47,
          48,
          49,
          50,
          51,
          52,
          53,
          54,
          55,
          56,
          57,
          58,
          59,
          60,
          61,
          62,
          63,
          64,
          65,
          66,
          67,
          68,
          69,
          70,
          71,
          72,
          73,
          74,
          75,
          76,
          77,
          78,
          79,
          80,
          81,
          82,
          83,
          84,
          85,
          86,
          87,
          88,
          89,
          90,
          91,
          92,
          93,
          94,
          95,
          96,
          97,
          98,
          99,
          100,
          101,
          102,
          103,
          104,
          105,
          106,
          107,
          108,
          109,
          110,
          111,
          112,
          113,
          114,
          115,
          116,
          117,
          118,
          119,
          120,
          121,
          122,
          123,
          124,
          125,
          126,
          127,
          128,
          129,
          130,
          131,
          132,
          133,
          134,
          135,
          136,
          137,
          138,
          139,
          140,
          141,
          142,
          143,
          144,
          145,
          146,
          147,
          148,
          149,
          150,
          151,
          152,
          153,
          154,
          155,
          156,
          157,
          158,
          159,
          160,
          161,
          162,
          163,
          164,
          165,
          166,
          167,
          168,
          169,
          170,
          171,
          172,
          173,
          174,
          175,
          176,
          177,
          178,
          179,
          180,
          181,
          182,
          183,
          184,
          185,
          186,
          187,
          188,
          189,
          190,
          191,
          192,
          193,
          194,
          195,
          196,
          197,
          198,
          199,
          200,
          201,
          202,
          203,
          204,
          205,
          206,
          207,
          208,
          209,
          210,
          211,
          212,
          213,
          214,
          215,
          216,
          217,
          218,
          219,
          220,
          221,
          222,
          223,
          224,
          225,
          226,
          227,
          228,
          229,
          230,
          231,
          232,
          233,
          234,
          235,
          236,
          237,
          238,
          239,
          240,
          241,
          242,
          243,
          244,
          245,
          246,
          247,
          248,
          249,
          250,
          251,
          252,
          253,
          254,
          255,
          256,
          257,
          258,
          259,
          260,
          261,
          262,
          263,
          264,
          265,
          266,
          267,
          268,
          269,
          270,
          271,
          272,
          273,
          274,
          275,
          276,
          277,
          278,
          279,
          280,
          281,
          282,
          283,
          284,
          285,
          286,
          287,
          288,
          289,
          290,
          291,
          292,
          293,
          294,
          295,
          296,
          297,
          298,
          299,
          300,
          301,
          302,
          303,
          304,
          305,
          306,
          307,
          308,
          309,
          310,
          311,
          312,
          313,
          314,
          315,
          316,
          317,
          318,
          319,
          320,
          321,
          322,
          323,
          324,
          325,
          326,
          327,
          328,
          329,
          330,
          331,
          332,
          333,
          334,
          335,
          336,
          337,
          338,
          339,
          340,
          341,
          342,
          343,
          344,
          345,
          346,
          347,
          348,
          349,
          350,
          351,
          352,
          353,
          354,
          355,
          356,
          357,
          358,
          359,
          360,
          361,
          362,
          363,
          364,
          365,
          366,
          367,
          368,
          369,
          370,
          371,
          372,
          373,
          374,
          375,
          376,
          377,
          378,
          379,
          380,
          381,
          382,
          383,
          384,
          385,
          386,
          387,
          388,
          389,
          390,
          391,
          392,
          393,
          394,
          395,
          396,
          397,
          398,
          399,
          400,
          401,
          402,
          403,
          404,
          405,
          406,
          407
        ],
        "AcquisitionTime": [
          "142934.987500",
          "142936.477500",
          "142937.967500",
          "142939.457500",
          "142940.947500",
          "142942.437500",
          "142943.927500",
          "142945.417500",
          "142946.907500",
          "142948.397500",
          "142949.887500",
          "142951.377500",
          "142952.867500",
          "142954.357500",
          "142955.847500",
          "142957.337500",
          "142958.827500",
          "143000.317500",
          "143001.807500",
          "143003.297500",
          "143004.787500",
          "143006.277500",
          "143007.767500",
          "143009.257500",
          "143010.747500",
          "143012.237500",
          "143013.727500",
          "143015.217500",
          "143016.707500",
          "143018.197500",
          "143019.687500",
          "143021.177500",
          "143022.667500",
          "143024.157500",
          "143025.647500",
          "143027.137500",
          "143028.627500",
          "143030.117500",
          "143031.607500",
          "143033.097500",
          "143034.587500",
          "143036.077500",
          "143037.567500",
          "143039.057500",
          "143040.547500",
          "143042.037500",
          "143043.527500",
          "143045.017500",
          "143046.507500",
          "143047.997500",
          "143049.487500",
          "143050.977500",
          "143052.467500",
          "143053.957500",
          "143055.447500",
          "143056.937500",
          "143058.427500",
          "143059.917500",
          "143101.407500",
          "143102.897500",
          "143104.387500",
          "143105.877500",
          "143107.367500",
          "143108.857500",
          "143110.347500",
          "143111.837500",
          "143113.327500",
          "143114.817500",
          "143116.307500",
          "143117.797500",
          "143119.287500",
          "143120.777500",
          "143122.267500",
          "143123.757500",
          "143125.247500",
          "143126.737500",
          "143128.227500",
          "143129.717500",
          "143131.207500",
          "143132.697500",
          "143134.187500",
          "143135.677500",
          "143137.167500",
          "143138.657500",
          "143140.147500",
          "143141.637500",
          "143143.127500",
          "143144.617500",
          "143146.107500",
          "143147.597500",
          "143149.087500",
          "143150.577500",
          "143152.067500",
          "143153.557500",
          "143155.047500",
          "143156.537500",
          "143158.027500",
          "143159.517500",
          "143201.007500",
          "143202.497500",
          "143203.987500",
          "143205.477500",
          "143206.967500",
          "143208.457500",
          "143209.947500",
          "143211.437500",
          "143212.927500",
          "143214.417500",
          "143215.907500",
          "143217.397500",
          "143218.887500",
          "143220.377500",
          "143221.867500",
          "143223.357500",
          "143224.847500",
          "143226.337500",
          "143227.827500",
          "143229.317500",
          "143230.807500",
          "143232.297500",
          "143233.787500",
          "143235.277500",
          "143236.767500",
          "143238.257500",
          "143239.747500",
          "143241.237500",
          "143242.727500",
          "143244.217500",
          "143245.707500",
          "143247.197500",
          "143248.687500",
          "143250.177500",
          "143251.667500",
          "143253.157500",
          "143254.647500",
          "143256.137500",
          "143257.627500",
          "143259.117500",
          "143300.607500",
          "143302.097500",
          "143303.587500",
          "143305.077500",
          "143306.567500",
          "143308.057500",
          "143309.547500",
          "143311.037500",
          "143312.527500",
          "143314.017500",
          "143315.507500",
          "143316.997500",
          "143318.487500",
          "143319.977500",
          "143321.467500",
          "143322.957500",
          "143324.447500",
          "143325.937500",
          "143327.427500",
          "143328.917500",
          "143330.407500",
          "143331.897500",
          "143333.387500",
          "143334.877500",
          "143336.367500",
          "143337.857500",
          "143339.347500",
          "143340.837500",
          "143342.327500",
          "143343.817500",
          "143345.307500",
          "143346.797500",
          "143348.287500",
          "143349.777500",
          "143351.267500",
          "143352.757500",
          "143354.247500",
          "143355.737500",
          "143357.227500",
          "143358.717500",
          "143400.207500",
          "143401.697500",
          "143403.187500",
          "143404.677500",
          "143406.167500",
          "143407.657500",
          "143409.147500",
          "143410.637500",
          "143412.127500",
          "143413.617500",
          "143415.107500",
          "143416.597500",
          "143418.087500",
          "143419.577500",
          "143421.067500",
          "143422.557500",
          "143424.047500",
          "143425.537500",
          "143427.027500",
          "143428.517500",
          "143430.007500",
          "143431.497500",
          "143432.987500",
          "143434.477500",
          "143435.967500",
          "143437.457500",
          "143438.947500",
          "143440.437500",
          "143441.927500",
          "143443.417500",
          "143444.907500",
          "143446.397500",
          "143447.887500",
          "143449.377500",
          "143450.867500",
          "143452.357500",
          "143453.847500",
          "143455.337500",
          "143456.827500",
          "143458.317500",
          "143459.807500",
          "143501.297500",
          "143502.787500",
          "143504.277500",
          "143505.767500",
          "143507.257500",
          "143508.747500",
          "143510.237500",
          "143511.727500",
          "143513.217500",
          "143514.707500",
          "143516.197500",
          "143517.687500",
          "143519.177500",
          "143520.667500",
          "143522.157500",
          "143523.647500",
          "143525.137500",
          "143526.627500",
          "143528.117500",
          "143529.607500",
          "143531.097500",
          "143532.587500",
          "143534.077500",
          "143535.567500",
          "143537.057500",
          "143538.547500",
          "143540.037500",
          "143541.527500",
          "143543.017500",
          "143544.507500",
          "143545.997500",
          "143547.487500",
          "143548.977500",
          "143550.467500",
          "143551.957500",
          "143553.447500",
          "143554.937500",
          "143556.427500",
          "143557.917500",
          "143559.407500",
          "143600.897500",
          "143602.387500",
          "143603.877500",
          "143605.367500",
          "143606.857500",
          "143608.347500",
          "143609.837500",
          "143611.327500",
          "143612.817500",
          "143614.307500",
          "143615.797500",
          "143617.287500",
          "143618.777500",
          "143620.267500",
          "143621.757500",
          "143623.247500",
          "143624.737500",
          "143626.227500",
          "143627.717500",
          "143629.207500",
          "143630.697500",
          "143632.187500",
          "143633.677500",
          "143635.167500",
          "143636.657500",
          "143638.147500",
          "143639.637500",
          "143641.127500",
          "143642.617500",
          "143644.107500",
          "143645.597500",
          "143647.087500",
          "143648.577500",
          "143650.067500",
          "143651.557500",
          "143653.047500",
          "143654.537500",
          "143656.027500",
          "143657.517500",
          "143659.007500",
          "143700.497500",
          "143701.987500",
          "143703.477500",
          "143704.967500",
          "143706.457500",
          "143707.947500",
          "143709.437500",
          "143710.927500",
          "143712.417500",
          "143713.907500",
          "143715.397500",
          "143716.887500",
          "143718.377500",
          "143719.867500",
          "143721.357500",
          "143722.847500",
          "143724.337500",
          "143725.827500",
          "143727.317500",
          "143728.807500",
          "143730.297500",
          "143731.787500",
          "143733.277500",
          "143734.767500",
          "143736.257500",
          "143737.747500",
          "143739.237500",
          "143740.727500",
          "143742.217500",
          "143743.707500",
          "143745.197500",
          "143746.687500",
          "143748.177500",
          "143749.667500",
          "143751.157500",
          "143752.647500",
          "143754.137500",
          "143755.627500",
          "143757.117500",
          "143758.607500",
          "143800.097500",
          "143801.587500",
          "143803.077500",
          "143804.567500",
          "143806.057500",
          "143807.547500",
          "143809.037500",
          "143810.527500",
          "143812.017500",
          "143813.507500",
          "143814.997500",
          "143816.487500",
          "143817.977500",
          "143819.467500",
          "143820.957500",
          "143822.447500",
          "143823.937500",
          "143825.427500",
          "143826.917500",
          "143828.407500",
          "143829.897500",
          "143831.387500",
          "143832.877500",
          "143834.367500",
          "143835.857500",
          "143837.347500",
          "143838.837500",
          "143840.327500",
          "143841.817500",
          "143843.307500",
          "143844.797500",
          "143846.287500",
          "143847.777500",
          "143849.267500",
          "143850.757500",
          "143852.247500",
          "143853.737500",
          "143855.227500",
          "143856.717500",
          "143858.207500",
          "143859.697500",
          "143901.187500",
          "143902.677500",
          "143904.167500",
          "143905.657500",
          "143907.147500",
          "143908.637500",
          "143910.127500",
          "143911.617500",
          "143913.107500",
          "143914.597500",
          "143916.087500",
          "143917.577500",
          "143919.067500",
          "143920.557500",
          "143922.047500",
          "143923.537500",
          "143925.027500",
          "143926.517500",
          "143928.007500",
          "143929.497500",
          "143930.987500",
          "143932.477500",
          "143933.967500",
          "143935.457500",
          "143936.947500",
          "143938.437500",
          "143939.927500"
        ],
        "ContentTime": [
          "143058.244000",
          "143058.248000",
          "143058.251000",
          "143058.254000",
          "143058.257000",
          "143058.260000",
          "143058.263000",
          "143058.266000",
          "143058.269000",
          "143058.272000",
          "143058.274000",
          "143058.277000",
          "143058.280000",
          "143058.283000",
          "143058.286000",
          "143058.289000",
          "143058.291000",
          "143058.294000",
          "143058.297000",
          "143058.300000",
          "143058.303000",
          "143058.306000",
          "143058.308000",
          "143058.311000",
          "143058.314000",
          "143058.317000",
          "143058.320000",
          "143058.323000",
          "143058.325000",
          "143058.328000",
          "143118.217000",
          "143118.220000",
          "143118.223000",
          "143118.226000",
          "143118.229000",
          "143118.231000",
          "143118.234000",
          "143118.237000",
          "143118.240000",
          "143118.243000",
          "143118.246000",
          "143118.248000",
          "143118.251000",
          "143118.254000",
          "143118.257000",
          "143118.260000",
          "143118.262000",
          "143118.265000",
          "143118.268000",
          "143118.271000",
          "143138.216000",
          "143138.219000",
          "143138.222000",
          "143138.224000",
          "143138.227000",
          "143138.230000",
          "143138.233000",
          "143138.236000",
          "143138.239000",
          "143138.241000",
          "143138.244000",
          "143138.247000",
          "143138.250000",
          "143138.253000",
          "143138.256000",
          "143138.259000",
          "143138.261000",
          "143138.264000",
          "143138.267000",
          "143138.270000",
          "143158.216000",
          "143158.219000",
          "143158.222000",
          "143158.224000",
          "143158.227000",
          "143158.230000",
          "143158.233000",
          "143158.236000",
          "143158.239000",
          "143158.242000",
          "143158.244000",
          "143158.247000",
          "143158.250000",
          "143158.253000",
          "143158.256000",
          "143158.259000",
          "143158.262000",
          "143158.271000",
          "143158.274000",
          "143158.277000",
          "143238.217000",
          "143238.230000",
          "143238.233000",
          "143238.236000",
          "143238.239000",
          "143238.241000",
          "143238.244000",
          "143238.247000",
          "143238.250000",
          "143238.253000",
          "143238.256000",
          "143238.258000",
          "143238.261000",
          "143238.264000",
          "143238.267000",
          "143238.270000",
          "143238.273000",
          "143238.276000",
          "143238.278000",
          "143238.281000",
          "143238.284000",
          "143238.287000",
          "143238.290000",
          "143238.293000",
          "143238.295000",
          "143238.298000",
          "143238.301000",
          "143238.304000",
          "143238.307000",
          "143238.310000",
          "143238.313000",
          "143238.316000",
          "143318.217000",
          "143318.220000",
          "143318.223000",
          "143318.226000",
          "143318.229000",
          "143318.231000",
          "143318.234000",
          "143318.248000",
          "143318.251000",
          "143318.253000",
          "143318.256000",
          "143318.259000",
          "143318.262000",
          "143318.265000",
          "143318.268000",
          "143318.271000",
          "143318.273000",
          "143318.276000",
          "143318.279000",
          "143318.282000",
          "143318.285000",
          "143318.288000",
          "143318.290000",
          "143318.293000",
          "143318.296000",
          "143318.299000",
          "143318.302000",
          "143358.216000",
          "143358.219000",
          "143358.222000",
          "143358.225000",
          "143358.228000",
          "143358.230000",
          "143358.233000",
          "143358.236000",
          "143358.239000",
          "143358.242000",
          "143358.245000",
          "143358.248000",
          "143358.251000",
          "143358.253000",
          "143358.256000",
          "143358.259000",
          "143358.262000",
          "143358.265000",
          "143358.274000",
          "143358.277000",
          "143358.280000",
          "143358.283000",
          "143358.286000",
          "143358.289000",
          "143358.291000",
          "143358.294000",
          "143358.297000",
          "143438.217000",
          "143438.220000",
          "143438.223000",
          "143438.226000",
          "143438.228000",
          "143438.231000",
          "143438.234000",
          "143438.237000",
          "143438.240000",
          "143438.243000",
          "143438.246000",
          "143438.248000",
          "143438.251000",
          "143438.254000",
          "143438.257000",
          "143438.260000",
          "143438.263000",
          "143438.266000",
          "143438.268000",
          "143438.271000",
          "143438.274000",
          "143438.277000",
          "143438.280000",
          "143438.283000",
          "143438.285000",
          "143438.288000",
          "143438.291000",
          "143518.218000",
          "143518.221000",
          "143518.224000",
          "143518.227000",
          "143518.230000",
          "143518.233000",
          "143518.236000",
          "143518.239000",
          "143518.241000",
          "143518.244000",
          "143518.247000",
          "143518.250000",
          "143518.253000",
          "143518.256000",
          "143518.259000",
          "143518.261000",
          "143518.264000",
          "143518.275000",
          "143518.277000",
          "143518.280000",
