{
  "aor": 0.0003072345679012346,
  "aqi": 0.007830407185185186,
  "bids_meta": {
    "AcquisitionMatrixPE": 104,
    "AcquisitionNumber": 1,
    "AcquisitionTime": "14:40:26.812500",
    "BandwidthPerPixelPhaseEncode": 17.17,
    "BaseResolution": 104,
    "BodyPartExamined": "BRAIN",
    "CogAtlasID": "trm_4c898da401420",
    "ConsistencyInfo": "N4_VE11C_LATEST_20160120",
    "ConversionSoftware": "dcm2niix",
    "ConversionSoftwareVersion": "v1.0.20171215 (OpenJPEG build) GCC7.3.0",
    "DerivedVendorReportedEchoSpacing": 0.000560011,
    "DeviceSerialNumber": "167006",
    "DwellTime": 2.1e-06,
    "EchoTime": 0.037,
    "EchoTrainLength": 104,
    "EffectiveEchoSpacing": 0.000560011,
    "FlipAngle": 52,
    "ImageComments": "Unaliased_MB4_PE3_LB",
    "ImageOrientationPatientDICOM": [
      0.99967,
      0.0172059,
      -0.019067,
      -0.0246059,
      0.854355,
      -0.519108
    ],
    "ImageType": [
      "ORIGINAL",
      "PRIMARY",
      "M",
      "MB",
      "ND",
      "MOSAIC"
    ],
    "InPlanePhaseEncodingDirectionDICOM": "COL",
    "InstitutionAddress": "Chemin_Queen-Mary_4565_Montreal_District_CA_H3W_1W5",
    "InstitutionName": "IUGM",
    "InstitutionalDepartmentName": "Department",
    "MRAcquisitionType": "2D",
    "MagneticFieldStrength": 3,
    "Manufacturer": "Siemens",
    "ManufacturersModelName": "Prisma_fit",
    "Modality": "MR",
    "MultibandAccelerationFactor": 4,
    "PartialFourier": 1,
    "PatientPosition": "HFS",
    "PercentPhaseFOV": 100,
    "PhaseEncodingDirection": "j-",
    "PhaseEncodingSteps": 104,
    "PhaseResolution": 1,
    "PixelBandwidth": 2290,
    "ProcedureStepDescription": "video5_generic",
    "ProtocolName": "func_task-wolf10",
    "PulseSequenceDetails": "%CustomerSeq%_cmrr_mbep2d_bold",
    "ReceiveCoilActiveElements": "HC1-7;NC1,2",
    "ReceiveCoilName": "HeadNeck_64",
    "ReconMatrixPE": 104,
    "RepetitionTime": 1.49,
    "SAR": 0.0358486,
    "ScanOptions": "FS",
    "ScanningSequence": "EP",
    "SequenceName": "epfid2d1_104",
    "SequenceVariant": "SK_SS",
    "SeriesDescription": "func_task-wolf10",
    "SeriesNumber": 15,
    "ShimSetting": [
      615,
      -7176,
      -8873,
      351,
      -25,
      -165,
      31,
      -26
    ],
    "SliceThickness": 2,
    "SliceTiming": [
      0,
      0.785,
      0.0975,
      0.8825,
      0.1975,
      0.98,
      0.295,
      1.0775,
      0.3925,
      1.1775,
      0.49,
      1.275,
      0.5875,
      1.3725,
      0.6875,
      0,
      0.785,
      0.0975,
      0.8825,
      0.1975,
      0.98,
      0.295,
      1.0775,
      0.3925,
      1.1775,
      0.49,
      1.275,
      0.5875,
      1.3725,
      0.6875,
      0,
      0.785,
      0.0975,
      0.8825,
      0.1975,
      0.98,
      0.295,
      1.0775,
      0.3925,
      1.1775,
      0.49,
      1.275,
      0.5875,
      1.3725,
      0.6875,
      0,
      0.785,
      0.0975,
      0.8825,
      0.1975,
      0.98,
      0.295,
      1.0775,
      0.3925,
      1.1775,
      0.49,
      1.275,
      0.5875,
      1.3725,
      0.6875
    ],
    "SoftwareVersions": "syngo_MR_E11",
    "SpacingBetweenSlices": 2,
    "StationName": "MRC35049",
    "TaskName": "wolf10",
    "TotalReadoutTime": 0.0576811,
    "TxRefAmp": 248.699,
    "dataset": "<unset>",
    "dcmmeta_affine": [
      [
        -1.999340295791626,
        -0.049211833626031876,
        -0.014716582372784615,
        108.1201400756836
      ],
      [
        -0.034411825239658356,
        1.7087090015411377,
        -1.0388115644454956,
        -53.61195373535156
      ],
      [
        -0.03813409060239792,
        1.0382156372070312,
        1.7089921236038208,
        -96.60211944580078
      ],
      [
        0.0,
        0.0,
        0.0,
        1.0
      ]
    ],
    "dcmmeta_reorient_transform": [
      [
        0.0,
        -1.0,
        0.0,
        103.0
      ],
      [
        1.0,
        0.0,
        0.0,
        0.0
      ],
      [
        0.0,
        0.0,
        1.0,
        0.0
      ],
      [
        0.0,
        0.0,
        0.0,
        1.0
      ]
    ],
    "dcmmeta_shape": [
      104,
      104,
      60,
      407
    ],
    "dcmmeta_slice_dim": 2,
    "dcmmeta_version": 0.6,
    "global": {
      "const": {
        "AcquisitionMatrix": [
          104,
          0,
          0,
          104
        ],
        "AngioFlag": "N",
        "BitsAllocated": 16,
        "BitsStored": 16,
        "BodyPartExamined": "BRAIN",
        "Columns": 832,
        "EchoNumbers": 1,
        "EchoTime": 37.0,
        "EchoTrainLength": 104,
        "FlipAngle": 52.0,
        "HighBit": 15,
        "ImageOrientationPatient": [
          0.99967014780142,
          0.01720591202208,
          -0.0190670445057,
          -0.0246059169053,
          0.85435448833494,
          -0.5191078472873
        ],
        "ImagePositionPatient": [
          -812.89807888239,
          -756.88104141186,
          402.12541683211
        ],
        "ImageType": [
          "ORIGINAL",
          "PRIMARY",
          "M",
          "MB",
          "ND",
          "MOSAIC"
        ],
        "ImagedNucleus": "1H",
        "ImagingFrequency": 123.259515,
        "InPlanePhaseEncodingDirection": "COL",
        "MRAcquisitionType": "2D",
        "MagneticFieldStrength": 3.0,
        "Manufacturer": "SIEMENS",
        "ManufacturerModelName": "Prisma_fit",
        "Modality": "MR",
        "NumberOfAverages": 1.0,
        "NumberOfPhaseEncodingSteps": 104,
        "PercentPhaseFieldOfView": 100.0,
        "PercentSampling": 100.0,
        "PerformedProcedureStepStartTime": "134814.649000",
        "PhotometricInterpretation": "MONOCHROME2",
        "PixelBandwidth": 2290.0,
        "PixelRepresentation": 0,
        "PixelSpacing": [
          2.0,
          2.0
        ],
        "ProtocolName": "func_task-wolf10",
        "RepetitionTime": 1490.0,
        "Rows": 832,
        "SAR": 0.03584862166348,
        "SamplesPerPixel": 1,
        "ScanOptions": "FS",
        "ScanningSequence": "EP",
        "SequenceName": "epfid2d1_104",
        "SequenceVariant": [
          "SK",
          "SS"
        ],
        "SeriesDescription": "func_task-wolf10",
        "SeriesNumber": 15,
        "SeriesTime": "144202.185000",
        "SliceLocation": -55.495350563054,
        "SliceThickness": 2.0,
        "SmallestImagePixelValue": 0,
        "SoftwareVersions": "syngo MR E11",
        "SpacingBetweenSlices": 1.9999999871074,
        "SpecificCharacterSet": "ISO_IR 100",
        "StudyID": "1",
        "StudyTime": "134814.552000",
        "TransmitCoilName": "Body",
        "VariableFlipAngleFlag": "N",
        "WindowCenterWidthExplanation": "Algo1",
        "dBdt": 0.0
      },
      "slices": {}
    },
    "modality": "bold",
    "session_id": "007",
    "subject_id": "02",
    "task_id": "wolf10",
    "time": {
      "samples": {
        "AcquisitionNumber": [
          1,
          2,
          3,
          4,
          5,
          6,
          7,
          8,
          9,
          10,
          11,
          12,
          13,
          14,
          15,
          16,
          17,
          18,
          19,
          20,
          21,
          22,
          23,
          24,
          25,
          26,
          27,
          28,
          29,
          30,
          31,
          32,
          33,
          34,
          35,
          36,
          37,
          38,
          39,
          40,
          41,
          42,
          43,
          44,
          45,
          46,
          47,
          48,
          49,
          50,
          51,
          52,
          53,
          54,
          55,
          56,
          57,
          58,
          59,
          60,
          61,
          62,
          63,
          64,
          65,
          66,
          67,
          68,
          69,
          70,
          71,
          72,
          73,
          74,
          75,
          76,
          77,
          78,
          79,
          80,
          81,
          82,
          83,
          84,
          85,
          86,
          87,
          88,
          89,
          90,
          91,
          92,
          93,
          94,
          95,
          96,
          97,
          98,
          99,
          100,
          101,
          102,
          103,
          104,
          105,
          106,
          107,
          108,
          109,
          110,
          111,
          112,
          113,
          114,
          115,
          116,
          117,
          118,
          119,
          120,
          121,
          122,
          123,
          124,
          125,
          126,
          127,
          128,
          129,
          130,
          131,
          132,
          133,
          134,
          135,
          136,
          137,
          138,
          139,
          140,
          141,
          142,
          143,
          144,
          145,
          146,
          147,
          148,
          149,
          150,
          151,
          152,
          153,
          154,
          155,
          156,
          157,
          158,
          159,
          160,
          161,
          162,
          163,
          164,
          165,
          166,
          167,
          168,
          169,
          170,
          171,
          172,
          173,
          174,
          175,
          176,
          177,
          178,
          179,
          180,
          181,
          182,
          183,
          184,
          185,
          186,
          187,
          188,
          189,
          190,
          191,
          192,
          193,
          194,
          195,
          196,
          197,
          198,
          199,
          200,
          201,
          202,
          203,
          204,
          205,
          206,
          207,
          208,
          209,
          210,
          211,
          212,
          213,
          214,
          215,
          216,
          217,
          218,
          219,
          220,
          221,
          222,
          223,
          224,
          225,
          226,
          227,
          228,
          229,
          230,
          231,
          232,
          233,
          234,
          235,
          236,
          237,
          238,
          239,
          240,
          241,
          242,
          243,
          244,
          245,
          246,
          247,
          248,
          249,
          250,
          251,
          252,
          253,
          254,
          255,
          256,
          257,
          258,
          259,
          260,
          261,
          262,
          263,
          264,
          265,
          266,
          267,
          268,
          269,
          270,
          271,
          272,
          273,
          274,
          275,
          276,
          277,
          278,
          279,
          280,
          281,
          282,
          283,
          284,
          285,
          286,
          287,
          288,
          289,
          290,
          291,
          292,
          293,
          294,
          295,
          296,
          297,
          298,
          299,
          300,
          301,
          302,
          303,
          304,
          305,
          306,
          307,
          308,
          309,
          310,
          311,
          312,
          313,
          314,
          315,
          316,
          317,
          318,
          319,
          320,
          321,
          322,
          323,
          324,
          325,
          326,
          327,
          328,
          329,
          330,
          331,
          332,
          333,
          334,
          335,
          336,
          337,
          338,
          339,
          340,
          341,
          342,
          343,
          344,
          345,
          346,
          347,
          348,
          349,
          350,
          351,
          352,
          353,
          354,
          355,
          356,
          357,
          358,
          359,
          360,
          361,
          362,
          363,
          364,
          365,
          366,
          367,
          368,
          369,
          370,
          371,
          372,
          373,
          374,
          375,
          376,
          377,
          378,
          379,
          380,
          381,
          382,
          383,
          384,
          385,
          386,
          387,
          388,
          389,
          390,
          391,
          392,
          393,
          394,
          395,
          396,
          397,
          398,
          399,
          400,
          401,
          402,
          403,
          404,
          405,
          406,
          407
        ],
        "AcquisitionTime": [
          "144026.812500",
          "144028.302500",
          "144029.792500",
          "144031.282500",
          "144032.772500",
          "144034.262500",
          "144035.752500",
          "144037.242500",
          "144038.732500",
          "144040.222500",
          "144041.712500",
          "144043.202500",
          "144044.692500",
          "144046.182500",
          "144047.672500",
          "144049.162500",
          "144050.652500",
          "144052.142500",
          "144053.632500",
          "144055.122500",
          "144056.612500",
          "144058.102500",
          "144059.592500",
          "144101.082500",
          "144102.572500",
          "144104.062500",
          "144105.552500",
          "144107.042500",
          "144108.532500",
          "144110.022500",
          "144111.512500",
          "144113.002500",
          "144114.492500",
          "144115.982500",
          "144117.472500",
          "144118.962500",
          "144120.452500",
          "144121.942500",
          "144123.432500",
          "144124.922500",
          "144126.412500",
          "144127.902500",
          "144129.392500",
          "144130.882500",
          "144132.372500",
          "144133.862500",
          "144135.352500",
          "144136.842500",
          "144138.332500",
          "144139.822500",
          "144141.312500",
          "144142.802500",
          "144144.292500",
          "144145.782500",
          "144147.272500",
          "144148.762500",
          "144150.252500",
          "144151.742500",
          "144153.232500",
          "144154.722500",
          "144156.212500",
          "144157.702500",
          "144159.192500",
          "144200.682500",
          "144202.172500",
          "144203.662500",
          "144205.152500",
          "144206.642500",
          "144208.132500",
          "144209.622500",
          "144211.112500",
          "144212.602500",
          "144214.092500",
          "144215.582500",
          "144217.072500",
          "144218.562500",
          "144220.052500",
          "144221.542500",
          "144223.032500",
          "144224.522500",
          "144226.012500",
          "144227.502500",
          "144228.992500",
          "144230.482500",
          "144231.972500",
          "144233.462500",
          "144234.952500",
          "144236.442500",
          "144237.932500",
          "144239.422500",
          "144240.912500",
          "144242.402500",
          "144243.892500",
          "144245.382500",
          "144246.872500",
          "144248.362500",
          "144249.852500",
          "144251.342500",
          "144252.832500",
          "144254.322500",
          "144255.812500",
          "144257.302500",
          "144258.792500",
          "144300.282500",
          "144301.772500",
          "144303.262500",
          "144304.752500",
          "144306.242500",
          "144307.732500",
          "144309.222500",
          "144310.712500",
          "144312.202500",
          "144313.692500",
          "144315.182500",
          "144316.672500",
          "144318.162500",
          "144319.652500",
          "144321.142500",
          "144322.632500",
          "144324.122500",
          "144325.612500",
          "144327.102500",
          "144328.592500",
          "144330.082500",
          "144331.572500",
          "144333.062500",
          "144334.552500",
          "144336.042500",
          "144337.532500",
          "144339.022500",
          "144340.512500",
          "144342.002500",
          "144343.492500",
          "144344.982500",
          "144346.472500",
          "144347.962500",
          "144349.452500",
          "144350.942500",
          "144352.432500",
          "144353.922500",
          "144355.412500",
          "144356.902500",
          "144358.392500",
          "144359.882500",
          "144401.372500",
          "144402.862500",
          "144404.352500",
          "144405.842500",
          "144407.332500",
          "144408.822500",
          "144410.312500",
          "144411.802500",
          "144413.292500",
          "144414.782500",
          "144416.272500",
          "144417.762500",
          "144419.252500",
          "144420.742500",
          "144422.232500",
          "144423.722500",
          "144425.212500",
          "144426.702500",
          "144428.192500",
          "144429.682500",
          "144431.172500",
          "144432.662500",
          "144434.152500",
          "144435.642500",
          "144437.132500",
          "144438.622500",
          "144440.112500",
          "144441.602500",
          "144443.092500",
          "144444.582500",
          "144446.072500",
          "144447.562500",
          "144449.052500",
          "144450.542500",
          "144452.032500",
          "144453.522500",
          "144455.012500",
          "144456.502500",
          "144457.992500",
          "144459.482500",
          "144500.972500",
          "144502.462500",
          "144503.952500",
          "144505.442500",
          "144506.932500",
          "144508.422500",
          "144509.912500",
          "144511.402500",
          "144512.892500",
          "144514.382500",
          "144515.872500",
          "144517.362500",
          "144518.852500",
          "144520.342500",
          "144521.832500",
          "144523.322500",
          "144524.812500",
          "144526.302500",
          "144527.792500",
          "144529.282500",
          "144530.772500",
          "144532.262500",
          "144533.752500",
          "144535.242500",
          "144536.732500",
          "144538.222500",
          "144539.712500",
          "144541.202500",
          "144542.692500",
          "144544.182500",
          "144545.672500",
          "144547.162500",
          "144548.652500",
          "144550.142500",
          "144551.632500",
          "144553.122500",
          "144554.612500",
          "144556.102500",
          "144557.592500",
          "144559.082500",
          "144600.572500",
          "144602.062500",
          "144603.552500",
          "144605.042500",
          "144606.532500",
          "144608.022500",
          "144609.512500",
          "144611.002500",
          "144612.492500",
          "144613.982500",
          "144615.472500",
          "144616.962500",
          "144618.452500",
          "144619.942500",
          "144621.432500",
          "144622.922500",
          "144624.412500",
          "144625.902500",
          "144627.392500",
          "144628.882500",
          "144630.372500",
          "144631.862500",
          "144633.352500",
          "144634.842500",
          "144636.332500",
          "144637.822500",
          "144639.312500",
          "144640.802500",
          "144642.292500",
          "144643.782500",
          "144645.272500",
          "144646.762500",
          "144648.252500",
          "144649.742500",
          "144651.232500",
          "144652.722500",
          "144654.212500",
          "144655.702500",
          "144657.192500",
          "144658.682500",
          "144700.172500",
          "144701.662500",
          "144703.152500",
          "144704.642500",
          "144706.132500",
          "144707.622500",
          "144709.112500",
          "144710.602500",
          "144712.092500",
          "144713.582500",
          "144715.072500",
          "144716.562500",
          "144718.052500",
          "144719.542500",
          "144721.032500",
          "144722.522500",
          "144724.012500",
          "144725.502500",
          "144726.992500",
          "144728.482500",
          "144729.972500",
          "144731.462500",
          "144732.952500",
          "144734.442500",
          "144735.932500",
          "144737.422500",
          "144738.912500",
          "144740.402500",
          "144741.892500",
          "144743.382500",
          "144744.872500",
          "144746.362500",
          "144747.852500",
          "144749.342500",
          "144750.832500",
          "144752.322500",
          "144753.812500",
          "144755.302500",
          "144756.792500",
          "144758.282500",
          "144759.772500",
          "144801.262500",
          "144802.752500",
          "144804.242500",
          "144805.732500",
          "144807.222500",
          "144808.712500",
          "144810.202500",
          "144811.692500",
          "144813.182500",
          "144814.672500",
          "144816.162500",
          "144817.652500",
          "144819.142500",
          "144820.632500",
          "144822.122500",
          "144823.612500",
          "144825.102500",
          "144826.592500",
          "144828.082500",
          "144829.572500",
          "144831.062500",
          "144832.552500",
          "144834.042500",
          "144835.532500",
          "144837.022500",
          "144838.512500",
          "144840.002500",
          "144841.492500",
          "144842.982500",
          "144844.472500",
          "144845.962500",
          "144847.452500",
          "144848.942500",
          "144850.432500",
          "144851.922500",
          "144853.412500",
          "144854.902500",
          "144856.392500",
          "144857.882500",
          "144859.372500",
          "144900.862500",
          "144902.352500",
          "144903.842500",
          "144905.332500",
          "144906.822500",
          "144908.312500",
          "144909.802500",
          "144911.292500",
          "144912.782500",
          "144914.272500",
          "144915.762500",
          "144917.252500",
          "144918.742500",
          "144920.232500",
          "144921.722500",
          "144923.212500",
          "144924.702500",
          "144926.192500",
          "144927.682500",
          "144929.172500",
          "144930.662500",
          "144932.152500",
          "144933.642500",
          "144935.132500",
          "144936.622500",
          "144938.112500",
          "144939.602500",
          "144941.092500",
          "144942.582500",
          "144944.072500",
          "144945.562500",
          "144947.052500",
          "144948.542500",
          "144950.032500",
          "144951.522500",
          "144953.012500",
          "144954.502500",
          "144955.992500",
          "144957.482500",
          "144958.972500",
          "145000.462500",
          "145001.952500",
          "145003.442500",
          "145004.932500",
          "145006.422500",
          "145007.912500",
          "145009.402500",
          "145010.892500",
          "145012.382500",
          "145013.872500",
          "145015.362500",
          "145016.852500",
          "145018.342500",
          "145019.832500",
          "145021.322500",
          "145022.812500",
          "145024.302500",
          "145025.792500",
          "145027.282500",
          "145028.772500",
          "145030.262500",
          "145031.752500"
        ],
        "ContentTime": [
          "144202.187000",
          "144202.191000",
          "144202.194000",
          "144202.197000",
          "144202.200000",
          "144202.203000",
          "144202.206000",
          "144202.209000",
          "144202.211000",
          "144202.214000",
          "144202.217000",
          "144202.220000",
          "144202.223000",
          "144202.226000",
          "144202.235000",
          "144202.238000",
          "144202.241000",
          "144202.244000",
          "144202.247000",
          "144202.249000",
          "144202.252000",
          "144202.255000",
          "144202.259000",
          "144202.262000",
          "144202.264000",
          "144202.267000",
          "144202.270000",
          "144202.273000",
          "144202.276000",
          "144202.286000",
          "144202.288000",
          "144202.291000",
          "144202.294000",
          "144202.297000",
          "144202.300000",
          "144202.302000",
          "144202.305000",
          "144202.308000",
          "144202.311000",
          "144222.150000",
          "144222.153000",
          "144222.156000",
          "144222.158000",
          "144222.161000",
          "144222.164000",
          "144222.167000",
          "144222.170000",
          "144222.172000",
          "144222.175000",
          "144222.178000",
          "144222.181000",
          "144222.184000",
          "144222.187000",
          "144222.189000",
          "144222.192000",
          "144222.195000",
          "144222.198000",
          "144222.201000",
          "144222.203000",
          "144222.206000",
          "144242.149000",
          "144242.152000",
          "144242.155000",
          "144242.158000",
          "144242.161000",
          "144242.163000",
          "144242.166000",
          "144242.169000",
          "144242.172000",
          "144242.175000",
          "144242.178000",
          "144242.180000",
          "144242.183000",
          "144242.186000",
          "144242.189000",
          "144242.192000",
          "144242.194000",
          "144242.197000",
          "144242.200000",
          "144242.203000",
          "144302.149000",
          "144302.152000",
          "144302.155000",
          "144302.157000",
          "144302.160000",
          "144302.163000",
          "144302.166000",
          "144302.169000",
          "144302.172000",
          "144302.174000",
          "144302.186000",
          "144302.189000",
          "144302.192000",
          "144302.195000",
          "144302.198000",
          "144302.201000",
          "144302.203000",
          "144302.206000",
          "144302.209000",
          "144302.212000",
          "144342.150000",
          "144342.153000",
          "144342.156000",
          "144342.159000",
          "144342.162000",
          "144342.164000",
          "144342.167000",
          "144342.170000",
          "144342.173000",
          "144342.176000",
          "144342.179000",
          "144342.181000",
          "144342.184000",
          "144342.187000",
          "144342.190000",
          "144342.193000",
          "144342.196000",
          "144342.199000",
          "144342.201000",
          "144342.204000",
          "144342.207000",
          "144342.210000",
          "144342.213000",
          "144342.216000",
          "144342.218000",
          "144342.221000",
          "144342.224000",
          "144342.227000",
          "144342.230000",
          "144342.233000",
          "144422.150000",
          "144422.153000",
          "144422.156000",
          "144422.159000",
          "144422.162000",
          "144422.164000",
          "144422.167000",
          "144422.170000",
          "144422.173000",
          "144422.176000",
          "144422.179000",
          "144422.181000",
          "144422.184000",
          "144422.187000",
          "144422.190000",
          "144422.193000",
          "144422.196000",
          "144422.198000",
          "144422.201000",
          "144422.204000",
          "144422.207000",
          "144422.210000",
          "144422.213000",
          "144422.215000",
          "144422.218000",
          "144422.221000",
          "144422.224000",
          "144502.149000",
          "144502.152000",
          "144502.155000",
          "144502.158000",
          "144502.293000",
          "144502.296000",
          "144502.299000",
          "144502.302000",
          "144502.304000",
          "144502.307000",
          "144502.310000",
          "144502.313000",
          "144502.316000",
          "144502.319000",
          "144502.322000",
          "144502.324000",
          "144502.327000",
          "144502.330000",
          "144502.333000",
          "144502.336000",
          "144502.339000",
          "144502.342000",
          "144502.345000",
          "144502.348000",
          "144502.350000",
          "144502.353000",
          "144502.356000",
          "144542.150000",
          "144542.153000",
          "144542.160000",
          "144542.163000",
          "144542.166000",
          "144542.169000",
          "144542.172000",
          "144542.175000",
          "144542.178000",
          "144542.181000",
          "144542.184000",
          "144542.187000",
          "144542.190000",
          "144542.192000",
          "144542.195000",
          "144542.198000",
          "144542.201000",
          "144542.204000",
          "144542.207000",
          "144542.210000",
          "144542.212000",
          "144542.215000",
          "144542.218000",
          "144542.221000",
          "144542.224000",
          "144542.227000",
          "144542.229000",
          "144622.150000",
          "144622.153000",
          "144622.156000",
          "144622.159000",
          "144622.161000",
          "144622.164000",
          "144622.167000",
          "144622.170000",
          "144622.173000",
          "144622.176000",
          "144622.179000",
