{
  "aor": 0.0009568965517241378,
  "aqi": 0.008654678128078817,
  "bids_meta": {
    "AcquisitionMatrixPE": 104,
    "AcquisitionNumber": 1,
    "AcquisitionTime": "16:10:21.810000",
    "BandwidthPerPixelPhaseEncode": 17.17,
    "BaseResolution": 104,
    "BodyPartExamined": "BRAIN",
    "CogAtlasID": "trm_4c898da401420",
    "ConsistencyInfo": "N4_VE11C_LATEST_20160120",
    "ConversionSoftware": "dcm2niix",
    "ConversionSoftwareVersion": "v1.0.20171215 (OpenJPEG build) GCC7.3.0",
    "DerivedVendorReportedEchoSpacing": 0.000560011,
    "DeviceSerialNumber": "167006",
    "DwellTime": 2.1e-06,
    "EchoTime": 0.037,
    "EchoTrainLength": 104,
    "EffectiveEchoSpacing": 0.000560011,
    "FlipAngle": 52,
    "ImageComments": "Unaliased_MB4_PE3_LB",
    "ImageOrientationPatientDICOM": [
      0.999146,
      0.0411703,
      -0.00353457,
      -0.0404792,
      0.958,
      -0.283897
    ],
    "ImageType": [
      "ORIGINAL",
      "PRIMARY",
      "M",
      "MB",
      "ND",
      "MOSAIC"
    ],
    "InPlanePhaseEncodingDirectionDICOM": "COL",
    "InstitutionAddress": "Chemin_Queen-Mary_4565_Montreal_District_CA_H3W_1W5",
    "InstitutionName": "IUGM",
    "InstitutionalDepartmentName": "Department",
    "MRAcquisitionType": "2D",
    "MagneticFieldStrength": 3,
    "Manufacturer": "Siemens",
    "ManufacturersModelName": "Prisma_fit",
    "Modality": "MR",
    "MultibandAccelerationFactor": 4,
    "PartialFourier": 1,
    "PatientPosition": "HFS",
    "PercentPhaseFOV": 100,
    "PhaseEncodingDirection": "j-",
    "PhaseEncodingSteps": 104,
    "PhaseResolution": 1,
    "PixelBandwidth": 2290,
    "ProcedureStepDescription": "video5_generic",
    "ProtocolName": "func_task-wolf15",
    "PulseSequenceDetails": "%CustomerSeq%_cmrr_mbep2d_bold",
    "ReceiveCoilActiveElements": "HC1-7;NC1,2",
    "ReceiveCoilName": "HeadNeck_64",
    "ReconMatrixPE": 104,
    "RepetitionTime": 1.49,
    "SAR": 0.0303564,
    "ScanOptions": "FS",
    "ScanningSequence": "EP",
    "SequenceName": "epfid2d1_104",
    "SequenceVariant": "SK_SS",
    "SeriesDescription": "func_task-wolf15",
    "SeriesNumber": 11,
    "ShimSetting": [
      628,
      -7156,
      -8817,
      647,
      37,
      101,
      10,
      5
    ],
    "SliceThickness": 2,
    "SliceTiming": [
      0,
      0.7825,
      0.0975,
      0.88,
      0.195,
      0.98,
      0.2925,
      1.0775,
      0.39,
      1.175,
      0.49,
      1.2725,
      0.5875,
      1.37,
      0.685,
      0,
      0.7825,
      0.0975,
      0.88,
      0.195,
      0.98,
      0.2925,
      1.0775,
      0.39,
      1.175,
      0.49,
      1.2725,
      0.5875,
      1.37,
      0.685,
      0,
      0.7825,
      0.0975,
      0.88,
      0.195,
      0.98,
      0.2925,
      1.0775,
      0.39,
      1.175,
      0.49,
      1.2725,
      0.5875,
      1.37,
      0.685,
      0,
      0.7825,
      0.0975,
      0.88,
      0.195,
      0.98,
      0.2925,
      1.0775,
      0.39,
      1.175,
      0.49,
      1.2725,
      0.5875,
      1.37,
      0.685
    ],
    "SoftwareVersions": "syngo_MR_E11",
    "SpacingBetweenSlices": 2,
    "StationName": "MRC35049",
    "TaskName": "wolf15",
    "TotalReadoutTime": 0.0576811,
    "TxRefAmp": 209.672,
    "dataset": "<unset>",
    "dcmmeta_affine": [
      [
        -1.9982917308807373,
        -0.08095840364694595,
        0.016604073345661163,
        111.6005630493164
      ],
      [
        -0.08234066516160965,
        1.9159996509552002,
        -0.5675960779190063,
        -65.45606231689453
      ],
      [
        -0.00706913648173213,
        0.5677948594093323,
        1.917696237564087,
        -64.03435516357422
      ],
      [
        0.0,
        0.0,
        0.0,
        1.0
      ]
    ],
    "dcmmeta_reorient_transform": [
      [
        0.0,
        -1.0,
        0.0,
        103.0
      ],
      [
        1.0,
        0.0,
        0.0,
        0.0
      ],
      [
        0.0,
        0.0,
        1.0,
        0.0
      ],
      [
        0.0,
        0.0,
        0.0,
        1.0
      ]
    ],
    "dcmmeta_shape": [
      104,
      104,
      60,
      406
    ],
    "dcmmeta_slice_dim": 2,
    "dcmmeta_version": 0.6,
    "global": {
      "const": {
        "AcquisitionMatrix": [
          104,
          0,
          0,
          104
        ],
        "AngioFlag": "N",
        "BitsAllocated": 16,
        "BitsStored": 16,
        "BodyPartExamined": "BRAIN",
        "Columns": 832,
        "EchoNumbers": 1,
        "EchoTime": 37.0,
        "EchoTrainLength": 104,
        "FlipAngle": 52.0,
        "HighBit": 15,
        "ImageOrientationPatient": [
          0.99914589045681,
          0.04117033411278,
          -0.0035345681921,
          -0.040479201705,
          0.95799983233681,
          -0.2838974382977
        ],
        "ImagePositionPatient": [
          -801.17119353111,
          -859.28778512058,
          203.69902098277
        ],
        "ImageType": [
          "ORIGINAL",
          "PRIMARY",
          "M",
          "MB",
          "ND",
          "MOSAIC"
        ],
        "ImagedNucleus": "1H",
        "ImagingFrequency": 123.258007,
        "InPlanePhaseEncodingDirection": "COL",
        "MRAcquisitionType": "2D",
        "MagneticFieldStrength": 3.0,
        "Manufacturer": "SIEMENS",
        "ManufacturerModelName": "Prisma_fit",
        "Modality": "MR",
        "NumberOfAverages": 1.0,
        "NumberOfPhaseEncodingSteps": 104,
        "PercentPhaseFieldOfView": 100.0,
        "PercentSampling": 100.0,
        "PerformedProcedureStepStartTime": "152039.399000",
        "PhotometricInterpretation": "MONOCHROME2",
        "PixelBandwidth": 2290.0,
        "PixelRepresentation": 0,
        "PixelSpacing": [
          2.0,
          2.0
        ],
        "ProtocolName": "func_task-wolf15",
        "RepetitionTime": 1490.0,
        "Rows": 832,
        "SAR": 0.03035635390208,
        "SamplesPerPixel": 1,
        "ScanOptions": "FS",
        "ScanningSequence": "EP",
        "SequenceName": "epfid2d1_104",
        "SequenceVariant": [
          "SK",
          "SS"
        ],
        "SeriesDescription": "func_task-wolf15",
        "SeriesNumber": 11,
        "SeriesTime": "161142.768000",
        "SliceLocation": -41.89640560739,
        "SliceThickness": 2.0,
        "SmallestImagePixelValue": 0,
        "SoftwareVersions": "syngo MR E11",
        "SpacingBetweenSlices": 1.9999999499054,
        "SpecificCharacterSet": "ISO_IR 100",
        "StudyID": "1",
        "StudyTime": "152039.261000",
        "TransmitCoilName": "Body",
        "VariableFlipAngleFlag": "N",
        "WindowCenterWidthExplanation": "Algo1",
        "dBdt": 0.0
      },
      "slices": {}
    },
    "modality": "bold",
    "session_id": "005",
    "subject_id": "03",
    "task_id": "wolf15",
    "time": {
      "samples": {
        "AcquisitionNumber": [
          1,
          2,
          3,
          4,
          5,
          6,
          7,
          8,
          9,
          10,
          11,
          12,
          13,
          14,
          15,
          16,
          17,
          18,
          19,
          20,
          21,
          22,
          23,
          24,
          25,
          26,
          27,
          28,
          29,
          30,
          31,
          32,
          33,
          34,
          35,
          36,
          37,
          38,
          39,
          40,
          41,
          42,
          43,
          44,
          45,
          46,
          47,
          48,
          49,
          50,
          51,
          52,
          53,
          54,
          55,
          56,
          57,
          58,
          59,
          60,
          61,
          62,
          63,
          64,
          65,
          66,
          67,
          68,
          69,
          70,
          71,
          72,
          73,
          74,
          75,
          76,
          77,
          78,
          79,
          80,
          81,
          82,
          83,
          84,
          85,
          86,
          87,
          88,
          89,
          90,
          91,
          92,
          93,
          94,
          95,
          96,
          97,
          98,
          99,
          100,
          101,
          102,
          103,
          104,
          105,
          106,
          107,
          108,
          109,
          110,
          111,
          112,
          113,
          114,
          115,
          116,
          117,
          118,
          119,
          120,
          121,
          122,
          123,
          124,
          125,
          126,
          127,
          128,
          129,
          130,
          131,
          132,
          133,
          134,
          135,
          136,
          137,
          138,
          139,
          140,
          141,
          142,
          143,
          144,
          145,
          146,
          147,
          148,
          149,
          150,
          151,
          152,
          153,
          154,
          155,
          156,
          157,
          158,
          159,
          160,
          161,
          162,
          163,
          164,
          165,
          166,
          167,
          168,
          169,
          170,
          171,
          172,
          173,
          174,
          175,
          176,
          177,
          178,
          179,
          180,
          181,
          182,
          183,
          184,
          185,
          186,
          187,
          188,
          189,
          190,
          191,
          192,
          193,
          194,
          195,
          196,
          197,
          198,
          199,
          200,
          201,
          202,
          203,
          204,
          205,
          206,
          207,
          208,
          209,
          210,
          211,
          212,
          213,
          214,
          215,
          216,
          217,
          218,
          219,
          220,
          221,
          222,
          223,
          224,
          225,
          226,
          227,
          228,
          229,
          230,
          231,
          232,
          233,
          234,
          235,
          236,
          237,
          238,
          239,
          240,
          241,
          242,
          243,
          244,
          245,
          246,
          247,
          248,
          249,
          250,
          251,
          252,
          253,
          254,
          255,
          256,
          257,
          258,
          259,
          260,
          261,
          262,
          263,
          264,
          265,
          266,
          267,
          268,
          269,
          270,
          271,
          272,
          273,
          274,
          275,
          276,
          277,
          278,
          279,
          280,
          281,
          282,
          283,
          284,
          285,
          286,
          287,
          288,
          289,
          290,
          291,
          292,
          293,
          294,
          295,
          296,
          297,
          298,
          299,
          300,
          301,
          302,
          303,
          304,
          305,
          306,
          307,
          308,
          309,
          310,
          311,
          312,
          313,
          314,
          315,
          316,
          317,
          318,
          319,
          320,
          321,
          322,
          323,
          324,
          325,
          326,
          327,
          328,
          329,
          330,
          331,
          332,
          333,
          334,
          335,
          336,
          337,
          338,
          339,
          340,
          341,
          342,
          343,
          344,
          345,
          346,
          347,
          348,
          349,
          350,
          351,
          352,
          353,
          354,
          355,
          356,
          357,
          358,
          359,
          360,
          361,
          362,
          363,
          364,
          365,
          366,
          367,
          368,
          369,
          370,
          371,
          372,
          373,
          374,
          375,
          376,
          377,
          378,
          379,
          380,
          381,
          382,
          383,
          384,
          385,
          386,
          387,
          388,
          389,
          390,
          391,
          392,
          393,
          394,
          395,
          396,
          397,
          398,
          399,
          400,
          401,
          402,
          403,
          404,
          405,
          406
        ],
        "AcquisitionTime": [
          "161021.810000",
          "161023.300000",
          "161024.790000",
          "161026.280000",
          "161027.770000",
          "161029.260000",
          "161030.750000",
          "161032.240000",
          "161033.730000",
          "161035.220000",
          "161036.710000",
          "161038.200000",
          "161039.690000",
          "161041.180000",
          "161042.670000",
          "161044.160000",
          "161045.650000",
          "161047.140000",
          "161048.630000",
          "161050.120000",
          "161051.610000",
          "161053.100000",
          "161054.590000",
          "161056.080000",
          "161057.570000",
          "161059.060000",
          "161100.550000",
          "161102.040000",
          "161103.530000",
          "161105.020000",
          "161106.510000",
          "161108.000000",
          "161109.490000",
          "161110.980000",
          "161112.470000",
          "161113.960000",
          "161115.450000",
          "161116.940000",
          "161118.430000",
          "161119.920000",
          "161121.410000",
          "161122.900000",
          "161124.390000",
          "161125.880000",
          "161127.370000",
          "161128.860000",
          "161130.350000",
          "161131.840000",
          "161133.330000",
          "161134.820000",
          "161136.310000",
          "161137.800000",
          "161139.290000",
          "161140.780000",
          "161142.270000",
          "161143.760000",
          "161145.250000",
          "161146.740000",
          "161148.230000",
          "161149.720000",
          "161151.210000",
          "161152.700000",
          "161154.190000",
          "161155.680000",
          "161157.170000",
          "161158.660000",
          "161200.150000",
          "161201.640000",
          "161203.130000",
          "161204.620000",
          "161206.110000",
          "161207.600000",
          "161209.090000",
          "161210.580000",
          "161212.070000",
          "161213.560000",
          "161215.050000",
          "161216.540000",
          "161218.030000",
          "161219.520000",
          "161221.010000",
          "161222.500000",
          "161223.990000",
          "161225.480000",
          "161226.970000",
          "161228.460000",
          "161229.950000",
          "161231.440000",
          "161232.930000",
          "161234.420000",
          "161235.910000",
          "161237.400000",
          "161238.890000",
          "161240.380000",
          "161241.870000",
          "161243.360000",
          "161244.850000",
          "161246.340000",
          "161247.830000",
          "161249.320000",
          "161250.810000",
          "161252.300000",
          "161253.790000",
          "161255.280000",
          "161256.770000",
          "161258.260000",
          "161259.750000",
          "161301.240000",
          "161302.730000",
          "161304.220000",
          "161305.710000",
          "161307.200000",
          "161308.690000",
          "161310.180000",
          "161311.670000",
          "161313.160000",
          "161314.650000",
          "161316.140000",
          "161317.630000",
          "161319.120000",
          "161320.610000",
          "161322.100000",
          "161323.590000",
          "161325.080000",
          "161326.570000",
          "161328.060000",
          "161329.550000",
          "161331.040000",
          "161332.530000",
          "161334.020000",
          "161335.510000",
          "161337.000000",
          "161338.490000",
          "161339.980000",
          "161341.470000",
          "161342.960000",
          "161344.450000",
          "161345.940000",
          "161347.430000",
          "161348.920000",
          "161350.410000",
          "161351.900000",
          "161353.390000",
          "161354.880000",
          "161356.370000",
          "161357.860000",
          "161359.350000",
          "161400.840000",
          "161402.330000",
          "161403.820000",
          "161405.310000",
          "161406.800000",
          "161408.290000",
          "161409.780000",
          "161411.270000",
          "161412.760000",
          "161414.250000",
          "161415.740000",
          "161417.230000",
          "161418.720000",
          "161420.210000",
          "161421.700000",
          "161423.190000",
          "161424.680000",
          "161426.170000",
          "161427.660000",
          "161429.150000",
          "161430.640000",
          "161432.130000",
          "161433.620000",
          "161435.110000",
          "161436.600000",
          "161438.090000",
          "161439.580000",
          "161441.070000",
          "161442.560000",
          "161444.050000",
          "161445.540000",
          "161447.030000",
          "161448.520000",
          "161450.010000",
          "161451.500000",
          "161452.990000",
          "161454.480000",
          "161455.970000",
          "161457.460000",
          "161458.950000",
          "161500.440000",
          "161501.930000",
          "161503.420000",
          "161504.910000",
          "161506.400000",
          "161507.890000",
          "161509.380000",
          "161510.870000",
          "161512.360000",
          "161513.850000",
          "161515.340000",
          "161516.830000",
          "161518.320000",
          "161519.810000",
          "161521.300000",
          "161522.790000",
          "161524.280000",
          "161525.770000",
          "161527.260000",
          "161528.750000",
          "161530.240000",
          "161531.730000",
          "161533.220000",
          "161534.710000",
          "161536.200000",
          "161537.690000",
          "161539.180000",
          "161540.670000",
          "161542.160000",
          "161543.650000",
          "161545.140000",
          "161546.630000",
          "161548.120000",
          "161549.610000",
          "161551.100000",
          "161552.590000",
          "161554.080000",
          "161555.570000",
          "161557.060000",
          "161558.550000",
          "161600.040000",
          "161601.530000",
          "161603.020000",
          "161604.510000",
          "161606.000000",
          "161607.490000",
          "161608.980000",
          "161610.470000",
          "161611.960000",
          "161613.450000",
          "161614.940000",
          "161616.430000",
          "161617.920000",
          "161619.410000",
          "161620.900000",
          "161622.390000",
          "161623.880000",
          "161625.370000",
          "161626.860000",
          "161628.350000",
          "161629.840000",
          "161631.330000",
          "161632.820000",
          "161634.310000",
          "161635.800000",
          "161637.290000",
          "161638.780000",
          "161640.270000",
          "161641.760000",
          "161643.250000",
          "161644.740000",
          "161646.230000",
          "161647.720000",
          "161649.210000",
          "161650.700000",
          "161652.190000",
          "161653.680000",
          "161655.170000",
          "161656.660000",
          "161658.150000",
          "161659.640000",
          "161701.130000",
          "161702.620000",
          "161704.110000",
          "161705.600000",
          "161707.090000",
          "161708.580000",
          "161710.070000",
          "161711.560000",
          "161713.050000",
          "161714.540000",
          "161716.030000",
          "161717.520000",
          "161719.010000",
          "161720.500000",
          "161721.990000",
          "161723.480000",
          "161724.970000",
          "161726.460000",
          "161727.950000",
          "161729.440000",
          "161730.930000",
          "161732.420000",
          "161733.910000",
          "161735.400000",
          "161736.890000",
          "161738.380000",
          "161739.870000",
          "161741.360000",
          "161742.850000",
          "161744.340000",
          "161745.830000",
          "161747.320000",
          "161748.810000",
          "161750.300000",
          "161751.790000",
          "161753.280000",
          "161754.770000",
          "161756.260000",
          "161757.750000",
          "161759.240000",
          "161800.730000",
          "161802.220000",
          "161803.710000",
          "161805.200000",
          "161806.690000",
          "161808.180000",
          "161809.670000",
          "161811.160000",
          "161812.650000",
          "161814.140000",
          "161815.630000",
          "161817.120000",
          "161818.610000",
          "161820.100000",
          "161821.590000",
          "161823.080000",
          "161824.570000",
          "161826.060000",
          "161827.550000",
          "161829.040000",
          "161830.530000",
          "161832.020000",
          "161833.510000",
          "161835.000000",
          "161836.490000",
          "161837.980000",
          "161839.470000",
          "161840.960000",
          "161842.450000",
          "161843.940000",
          "161845.430000",
          "161846.920000",
          "161848.410000",
          "161849.900000",
          "161851.390000",
          "161852.880000",
          "161854.370000",
          "161855.860000",
          "161857.350000",
          "161858.840000",
          "161900.330000",
          "161901.820000",
          "161903.310000",
          "161904.800000",
          "161906.290000",
          "161907.780000",
          "161909.270000",
          "161910.760000",
          "161912.250000",
          "161913.740000",
          "161915.230000",
          "161916.720000",
          "161918.210000",
          "161919.700000",
          "161921.190000",
          "161922.680000",
          "161924.170000",
          "161925.660000",
          "161927.150000",
          "161928.640000",
          "161930.130000",
          "161931.620000",
          "161933.110000",
          "161934.600000",
          "161936.090000",
          "161937.580000",
          "161939.070000",
          "161940.560000",
          "161942.050000",
          "161943.540000",
          "161945.030000",
          "161946.520000",
          "161948.010000",
          "161949.500000",
          "161950.990000",
          "161952.480000",
          "161953.970000",
          "161955.460000",
          "161956.950000",
          "161958.440000",
          "161959.930000",
          "162001.420000",
          "162002.910000",
          "162004.400000",
          "162005.890000",
          "162007.380000",
          "162008.870000",
          "162010.360000",
          "162011.850000",
          "162013.340000",
          "162014.830000",
          "162016.320000",
          "162017.810000",
          "162019.300000",
          "162020.790000",
          "162022.280000",
          "162023.770000",
          "162025.260000"
        ],
        "ContentTime": [
          "161142.770000",
          "161142.774000",
          "161142.777000",
          "161142.780000",
          "161142.790000",
          "161142.793000",
          "161142.796000",
          "161142.799000",
          "161142.802000",
          "161142.805000",
          "161142.808000",
          "161142.811000",
          "161142.814000",
          "161142.817000",
          "161142.820000",
          "161142.822000",
          "161142.825000",
          "161142.828000",
          "161142.831000",
          "161142.834000",
          "161142.837000",
          "161142.840000",
          "161142.843000",
          "161142.846000",
          "161142.849000",
          "161142.852000",
          "161142.855000",
          "161202.731000",
          "161202.734000",
          "161202.737000",
          "161202.740000",
          "161202.743000",
          "161202.746000",
          "161202.749000",
          "161202.752000",
          "161202.755000",
          "161202.758000",
          "161202.761000",
          "161202.763000",
          "161202.766000",
          "161202.770000",
          "161202.772000",
          "161202.775000",
          "161202.778000",
          "161202.781000",
          "161202.784000",
          "161202.787000",
          "161222.731000",
          "161222.734000",
          "161222.737000",
          "161222.740000",
          "161222.743000",
          "161222.746000",
          "161222.749000",
          "161222.752000",
          "161222.755000",
          "161222.758000",
          "161222.760000",
          "161222.763000",
          "161222.766000",
          "161222.769000",
          "161222.772000",
          "161222.775000",
          "161222.778000",
          "161222.781000",
          "161222.784000",
          "161222.787000",
          "161242.731000",
          "161242.734000",
          "161242.737000",
          "161242.740000",
          "161242.743000",
          "161242.746000",
          "161242.749000",
          "161242.752000",
          "161242.755000",
          "161242.758000",
          "161242.761000",
          "161242.764000",
          "161242.767000",
          "161242.770000",
          "161242.773000",
          "161242.776000",
          "161242.779000",
          "161242.782000",
          "161242.785000",
          "161242.788000",
          "161242.790000",
          "161322.731000",
          "161322.734000",
          "161322.738000",
          "161322.741000",
          "161322.749000",
          "161322.751000",
          "161322.754000",
          "161322.757000",
          "161322.760000",
          "161322.763000",
          "161322.766000",
          "161322.769000",
          "161322.772000",
          "161322.775000",
          "161322.778000",
          "161322.781000",
          "161322.784000",
          "161322.787000",
          "161322.791000",
          "161322.794000",
          "161322.797000",
          "161322.800000",
          "161322.803000",
          "161322.806000",
          "161322.809000",
          "161322.812000",
          "161322.815000",
          "161322.818000",
          "161322.821000",
          "161322.824000",
          "161322.828000",
          "161322.831000",
          "161402.731000",
          "161402.734000",
          "161402.737000",
          "161402.740000",
          "161402.743000",
          "161402.746000",
          "161402.749000",
          "161402.752000",
          "161402.755000",
          "161402.758000",
          "161402.761000",
          "161402.764000",
          "161402.767000",
          "161402.781000",
          "161402.784000",
          "161402.787000",
          "161402.790000",
          "161402.793000",
          "161402.796000",
          "161402.799000",
          "161402.802000",
          "161402.805000",
          "161402.808000",
          "161402.811000",
          "161402.814000",
          "161402.817000",
          "161402.820000",
          "161442.731000",
          "161442.734000",
          "161442.737000",
          "161442.740000",
          "161442.743000",
          "161442.746000",
          "161442.749000",
          "161442.752000",
          "161442.755000",
          "161442.758000",
          "161442.761000",
          "161442.764000",
          "161442.767000",
          "161442.770000",
          "161442.773000",
          "161442.781000",
          "161442.784000",
          "161442.787000",
          "161442.790000",
          "161442.793000",
          "161442.796000",
          "161442.799000",
          "161442.802000",
          "161442.805000",
          "161442.807000",
          "161442.810000",
          "161442.813000",
          "161522.731000",
          "161522.734000",
          "161522.737000",
          "161522.740000",
          "161522.743000",
          "161522.746000",
          "161522.749000",
          "161522.752000",
          "161522.755000",
          "161522.758000",
          "161522.761000",
          "161522.764000",
          "161522.767000",
          "161522.770000",
          "161522.773000",
          "161522.776000",
          "161522.779000",
          "161522.782000",
          "161522.786000",
          "161522.789000",
          "161522.792000",
          "161522.795000",
          "161522.798000",
          "161522.801000",
          "161522.804000",
          "161522.808000",
          "161522.812000",
          "161602.731000",
          "161602.734000",
          "161602.737000",
          "161602.740000",
          "161602.743000",
          "161602.746000",
          "161602.749000",
          "161602.752000",
          "161602.755000",
          "161602.758000",
          "161602.761000",
          "161602.764000",
          "161602.767000",
          "161602.770000",
          "161602.773000",
          "161602.776000",
          "161602.779000",
          "161602.782000",
          "161602.785000",
          "161602.788000",
          "161602.791000",
          "161602.793000",
          "161602.796000",
