{
  "aor": 0.0005687871287128713,
  "aqi": 0.007075615470297031,
  "bids_meta": {
    "AcquisitionMatrixPE": 104,
    "AcquisitionNumber": 1,
    "AcquisitionTime": "15:47:31.110000",
    "BandwidthPerPixelPhaseEncode": 17.17,
    "BaseResolution": 104,
    "BodyPartExamined": "BRAIN",
    "CogAtlasID": "trm_4c898da401420",
    "ConsistencyInfo": "N4_VE11C_LATEST_20160120",
    "ConversionSoftware": "dcm2niix",
    "ConversionSoftwareVersion": "v1.0.20171215 (OpenJPEG build) GCC7.3.0",
    "DerivedVendorReportedEchoSpacing": 0.000560011,
    "DeviceSerialNumber": "167006",
    "DwellTime": 2.1e-06,
    "EchoTime": 0.037,
    "EchoTrainLength": 104,
    "EffectiveEchoSpacing": 0.000560011,
    "FlipAngle": 52,
    "ImageComments": "Unaliased_MB4_PE3_LB",
    "ImageOrientationPatientDICOM": [
      0.999146,
      0.0411703,
      -0.00353457,
      -0.0404792,
      0.958,
      -0.283897
    ],
    "ImageType": [
      "ORIGINAL",
      "PRIMARY",
      "M",
      "MB",
      "ND",
      "MOSAIC"
    ],
    "InPlanePhaseEncodingDirectionDICOM": "COL",
    "InstitutionAddress": "Chemin_Queen-Mary_4565_Montreal_District_CA_H3W_1W5",
    "InstitutionName": "IUGM",
    "InstitutionalDepartmentName": "Department",
    "MRAcquisitionType": "2D",
    "MagneticFieldStrength": 3,
    "Manufacturer": "Siemens",
    "ManufacturersModelName": "Prisma_fit",
    "Modality": "MR",
    "MultibandAccelerationFactor": 4,
    "PartialFourier": 1,
    "PatientPosition": "HFS",
    "PercentPhaseFOV": 100,
    "PhaseEncodingDirection": "j-",
    "PhaseEncodingSteps": 104,
    "PhaseResolution": 1,
    "PixelBandwidth": 2290,
    "ProcedureStepDescription": "video5_generic",
    "ProtocolName": "func_task-wolf13",
    "PulseSequenceDetails": "%CustomerSeq%_cmrr_mbep2d_bold",
    "ReceiveCoilActiveElements": "HC1-7;NC1,2",
    "ReceiveCoilName": "HeadNeck_64",
    "ReconMatrixPE": 104,
    "RepetitionTime": 1.49,
    "SAR": 0.0303564,
    "ScanOptions": "FS",
    "ScanningSequence": "EP",
    "SequenceName": "epfid2d1_104",
    "SequenceVariant": "SK_SS",
    "SeriesDescription": "func_task-wolf13",
    "SeriesNumber": 7,
    "ShimSetting": [
      628,
      -7156,
      -8817,
      646,
      36,
      102,
      10,
      5
    ],
    "SliceThickness": 2,
    "SliceTiming": [
      0,
      0.7825,
      0.0975,
      0.8825,
      0.195,
      0.98,
      0.2925,
      1.0775,
      0.3925,
      1.175,
      0.49,
      1.2725,
      0.5875,
      1.3725,
      0.685,
      0,
      0.7825,
      0.0975,
      0.8825,
      0.195,
      0.98,
      0.2925,
      1.0775,
      0.3925,
      1.175,
      0.49,
      1.2725,
      0.5875,
      1.3725,
      0.685,
      0,
      0.7825,
      0.0975,
      0.8825,
      0.195,
      0.98,
      0.2925,
      1.0775,
      0.3925,
      1.175,
      0.49,
      1.2725,
      0.5875,
      1.3725,
      0.685,
      0,
      0.7825,
      0.0975,
      0.8825,
      0.195,
      0.98,
      0.2925,
      1.0775,
      0.3925,
      1.175,
      0.49,
      1.2725,
      0.5875,
      1.3725,
      0.685
    ],
    "SoftwareVersions": "syngo_MR_E11",
    "SpacingBetweenSlices": 2,
    "StationName": "MRC35049",
    "TaskName": "wolf13",
    "TotalReadoutTime": 0.0576811,
    "TxRefAmp": 209.672,
    "dataset": "<unset>",
    "dcmmeta_affine": [
      [
        -1.9982917308807373,
        -0.08095840364694595,
        0.016604073345661163,
        111.6005630493164
      ],
      [
        -0.08234066516160965,
        1.9159996509552002,
        -0.5675960779190063,
        -65.45606231689453
      ],
      [
        -0.00706913648173213,
        0.5677948594093323,
        1.917696237564087,
        -64.03435516357422
      ],
      [
        0.0,
        0.0,
        0.0,
        1.0
      ]
    ],
    "dcmmeta_reorient_transform": [
      [
        0.0,
        -1.0,
        0.0,
        103.0
      ],
      [
        1.0,
        0.0,
        0.0,
        0.0
      ],
      [
        0.0,
        0.0,
        1.0,
        0.0
      ],
      [
        0.0,
        0.0,
        0.0,
        1.0
      ]
    ],
    "dcmmeta_shape": [
      104,
      104,
      60,
      406
    ],
    "dcmmeta_slice_dim": 2,
    "dcmmeta_version": 0.6,
    "global": {
      "const": {
        "AcquisitionMatrix": [
          104,
          0,
          0,
          104
        ],
        "AngioFlag": "N",
        "BitsAllocated": 16,
        "BitsStored": 16,
        "BodyPartExamined": "BRAIN",
        "Columns": 832,
        "EchoNumbers": 1,
        "EchoTime": 37.0,
        "EchoTrainLength": 104,
        "FlipAngle": 52.0,
        "HighBit": 15,
        "ImageOrientationPatient": [
          0.99914589045681,
          0.04117033411278,
          -0.0035345681921,
          -0.040479201705,
          0.95799983233681,
          -0.2838974382977
        ],
        "ImagePositionPatient": [
          -801.17119353111,
          -859.28778512058,
          203.69902098277
        ],
        "ImageType": [
          "ORIGINAL",
          "PRIMARY",
          "M",
          "MB",
          "ND",
          "MOSAIC"
        ],
        "ImagedNucleus": "1H",
        "ImagingFrequency": 123.257991,
        "InPlanePhaseEncodingDirection": "COL",
        "MRAcquisitionType": "2D",
        "MagneticFieldStrength": 3.0,
        "Manufacturer": "SIEMENS",
        "ManufacturerModelName": "Prisma_fit",
        "Modality": "MR",
        "NumberOfAverages": 1.0,
        "NumberOfPhaseEncodingSteps": 104,
        "PercentPhaseFieldOfView": 100.0,
        "PercentSampling": 100.0,
        "PerformedProcedureStepStartTime": "152039.399000",
        "PhotometricInterpretation": "MONOCHROME2",
        "PixelBandwidth": 2290.0,
        "PixelRepresentation": 0,
        "PixelSpacing": [
          2.0,
          2.0
        ],
        "ProtocolName": "func_task-wolf13",
        "RepetitionTime": 1490.0,
        "Rows": 832,
        "SAR": 0.03035635390208,
        "SamplesPerPixel": 1,
        "ScanOptions": "FS",
        "ScanningSequence": "EP",
        "SequenceName": "epfid2d1_104",
        "SequenceVariant": [
          "SK",
          "SS"
        ],
        "SeriesDescription": "func_task-wolf13",
        "SeriesNumber": 7,
        "SeriesTime": "154851.677000",
        "SliceLocation": -41.89640560739,
        "SliceThickness": 2.0,
        "SmallestImagePixelValue": 0,
        "SoftwareVersions": "syngo MR E11",
        "SpacingBetweenSlices": 1.9999999499054,
        "SpecificCharacterSet": "ISO_IR 100",
        "StudyID": "1",
        "StudyTime": "152039.261000",
        "TransmitCoilName": "Body",
        "VariableFlipAngleFlag": "N",
        "WindowCenterWidthExplanation": "Algo1",
        "dBdt": 0.0
      },
      "slices": {}
    },
    "modality": "bold",
    "session_id": "005",
    "subject_id": "03",
    "task_id": "wolf13",
    "time": {
      "samples": {
        "AcquisitionNumber": [
          1,
          2,
          3,
          4,
          5,
          6,
          7,
          8,
          9,
          10,
          11,
          12,
          13,
          14,
          15,
          16,
          17,
          18,
          19,
          20,
          21,
          22,
          23,
          24,
          25,
          26,
          27,
          28,
          29,
          30,
          31,
          32,
          33,
          34,
          35,
          36,
          37,
          38,
          39,
          40,
          41,
          42,
          43,
          44,
          45,
          46,
          47,
          48,
          49,
          50,
          51,
          52,
          53,
          54,
          55,
          56,
          57,
          58,
          59,
          60,
          61,
          62,
          63,
          64,
          65,
          66,
          67,
          68,
          69,
          70,
          71,
          72,
          73,
          74,
          75,
          76,
          77,
          78,
          79,
          80,
          81,
          82,
          83,
          84,
          85,
          86,
          87,
          88,
          89,
          90,
          91,
          92,
          93,
          94,
          95,
          96,
          97,
          98,
          99,
          100,
          101,
          102,
          103,
          104,
          105,
          106,
          107,
          108,
          109,
          110,
          111,
          112,
          113,
          114,
          115,
          116,
          117,
          118,
          119,
          120,
          121,
          122,
          123,
          124,
          125,
          126,
          127,
          128,
          129,
          130,
          131,
          132,
          133,
          134,
          135,
          136,
          137,
          138,
          139,
          140,
          141,
          142,
          143,
          144,
          145,
          146,
          147,
          148,
          149,
          150,
          151,
          152,
          153,
          154,
          155,
          156,
          157,
          158,
          159,
          160,
          161,
          162,
          163,
          164,
          165,
          166,
          167,
          168,
          169,
          170,
          171,
          172,
          173,
          174,
          175,
          176,
          177,
          178,
          179,
          180,
          181,
          182,
          183,
          184,
          185,
          186,
          187,
          188,
          189,
          190,
          191,
          192,
          193,
          194,
          195,
          196,
          197,
          198,
          199,
          200,
          201,
          202,
          203,
          204,
          205,
          206,
          207,
          208,
          209,
          210,
          211,
          212,
          213,
          214,
          215,
          216,
          217,
          218,
          219,
          220,
          221,
          222,
          223,
          224,
          225,
          226,
          227,
          228,
          229,
          230,
          231,
          232,
          233,
          234,
          235,
          236,
          237,
          238,
          239,
          240,
          241,
          242,
          243,
          244,
          245,
          246,
          247,
          248,
          249,
          250,
          251,
          252,
          253,
          254,
          255,
          256,
          257,
          258,
          259,
          260,
          261,
          262,
          263,
          264,
          265,
          266,
          267,
          268,
          269,
          270,
          271,
          272,
          273,
          274,
          275,
          276,
          277,
          278,
          279,
          280,
          281,
          282,
          283,
          284,
          285,
          286,
          287,
          288,
          289,
          290,
          291,
          292,
          293,
          294,
          295,
          296,
          297,
          298,
          299,
          300,
          301,
          302,
          303,
          304,
          305,
          306,
          307,
          308,
          309,
          310,
          311,
          312,
          313,
          314,
          315,
          316,
          317,
          318,
          319,
          320,
          321,
          322,
          323,
          324,
          325,
          326,
          327,
          328,
          329,
          330,
          331,
          332,
          333,
          334,
          335,
          336,
          337,
          338,
          339,
          340,
          341,
          342,
          343,
          344,
          345,
          346,
          347,
          348,
          349,
          350,
          351,
          352,
          353,
          354,
          355,
          356,
          357,
          358,
          359,
          360,
          361,
          362,
          363,
          364,
          365,
          366,
          367,
          368,
          369,
          370,
          371,
          372,
          373,
          374,
          375,
          376,
          377,
          378,
          379,
          380,
          381,
          382,
          383,
          384,
          385,
          386,
          387,
          388,
          389,
          390,
          391,
          392,
          393,
          394,
          395,
          396,
          397,
          398,
          399,
          400,
          401,
          402,
          403,
          404,
          405,
          406
        ],
        "AcquisitionTime": [
          "154731.110000",
          "154732.600000",
          "154734.090000",
          "154735.580000",
          "154737.070000",
          "154738.560000",
          "154740.050000",
          "154741.540000",
          "154743.030000",
          "154744.520000",
          "154746.010000",
          "154747.500000",
          "154748.990000",
          "154750.480000",
          "154751.970000",
          "154753.460000",
          "154754.950000",
          "154756.440000",
          "154757.930000",
          "154759.420000",
          "154800.910000",
          "154802.400000",
          "154803.890000",
          "154805.380000",
          "154806.870000",
          "154808.360000",
          "154809.850000",
          "154811.340000",
          "154812.830000",
          "154814.320000",
          "154815.810000",
          "154817.300000",
          "154818.790000",
          "154820.280000",
          "154821.770000",
          "154823.260000",
          "154824.750000",
          "154826.240000",
          "154827.730000",
          "154829.220000",
          "154830.710000",
          "154832.200000",
          "154833.690000",
          "154835.180000",
          "154836.670000",
          "154838.160000",
          "154839.650000",
          "154841.140000",
          "154842.630000",
          "154844.120000",
          "154845.610000",
          "154847.100000",
          "154848.590000",
          "154850.080000",
          "154851.570000",
          "154853.060000",
          "154854.550000",
          "154856.040000",
          "154857.530000",
          "154859.020000",
          "154900.510000",
          "154902.000000",
          "154903.490000",
          "154904.980000",
          "154906.470000",
          "154907.960000",
          "154909.450000",
          "154910.940000",
          "154912.430000",
          "154913.920000",
          "154915.410000",
          "154916.900000",
          "154918.390000",
          "154919.880000",
          "154921.370000",
          "154922.860000",
          "154924.350000",
          "154925.840000",
          "154927.330000",
          "154928.820000",
          "154930.310000",
          "154931.800000",
          "154933.290000",
          "154934.780000",
          "154936.270000",
          "154937.760000",
          "154939.250000",
          "154940.740000",
          "154942.230000",
          "154943.720000",
          "154945.210000",
          "154946.700000",
          "154948.190000",
          "154949.680000",
          "154951.170000",
          "154952.660000",
          "154954.150000",
          "154955.640000",
          "154957.130000",
          "154958.620000",
          "155000.110000",
          "155001.600000",
          "155003.090000",
          "155004.580000",
          "155006.070000",
          "155007.560000",
          "155009.050000",
          "155010.540000",
          "155012.030000",
          "155013.520000",
          "155015.010000",
          "155016.500000",
          "155017.990000",
          "155019.480000",
          "155020.970000",
          "155022.460000",
          "155023.950000",
          "155025.440000",
          "155026.930000",
          "155028.420000",
          "155029.910000",
          "155031.400000",
          "155032.890000",
          "155034.380000",
          "155035.870000",
          "155037.360000",
          "155038.850000",
          "155040.340000",
          "155041.830000",
          "155043.320000",
          "155044.810000",
          "155046.300000",
          "155047.790000",
          "155049.280000",
          "155050.770000",
          "155052.260000",
          "155053.750000",
          "155055.240000",
          "155056.730000",
          "155058.220000",
          "155059.710000",
          "155101.200000",
          "155102.690000",
          "155104.180000",
          "155105.670000",
          "155107.160000",
          "155108.650000",
          "155110.140000",
          "155111.630000",
          "155113.120000",
          "155114.610000",
          "155116.100000",
          "155117.590000",
          "155119.080000",
          "155120.570000",
          "155122.060000",
          "155123.550000",
          "155125.040000",
          "155126.530000",
          "155128.020000",
          "155129.510000",
          "155131.000000",
          "155132.490000",
          "155133.980000",
          "155135.470000",
          "155136.960000",
          "155138.450000",
          "155139.940000",
          "155141.430000",
          "155142.920000",
          "155144.410000",
          "155145.900000",
          "155147.390000",
          "155148.880000",
          "155150.370000",
          "155151.860000",
          "155153.350000",
          "155154.840000",
          "155156.330000",
          "155157.820000",
          "155159.310000",
          "155200.800000",
          "155202.290000",
          "155203.780000",
          "155205.270000",
          "155206.760000",
          "155208.250000",
          "155209.740000",
          "155211.230000",
          "155212.720000",
          "155214.210000",
          "155215.700000",
          "155217.190000",
          "155218.680000",
          "155220.170000",
          "155221.660000",
          "155223.150000",
          "155224.640000",
          "155226.130000",
          "155227.620000",
          "155229.110000",
          "155230.600000",
          "155232.090000",
          "155233.580000",
          "155235.070000",
          "155236.560000",
          "155238.050000",
          "155239.540000",
          "155241.030000",
          "155242.520000",
          "155244.010000",
          "155245.500000",
          "155246.990000",
          "155248.480000",
          "155249.970000",
          "155251.460000",
          "155252.950000",
          "155254.440000",
          "155255.930000",
          "155257.420000",
          "155258.910000",
          "155300.400000",
          "155301.890000",
          "155303.380000",
          "155304.870000",
          "155306.360000",
          "155307.850000",
          "155309.340000",
          "155310.830000",
          "155312.320000",
          "155313.810000",
          "155315.300000",
          "155316.790000",
          "155318.280000",
          "155319.770000",
          "155321.260000",
          "155322.750000",
          "155324.240000",
          "155325.730000",
          "155327.220000",
          "155328.710000",
          "155330.200000",
          "155331.690000",
          "155333.180000",
          "155334.670000",
          "155336.160000",
          "155337.650000",
          "155339.140000",
          "155340.630000",
          "155342.120000",
          "155343.610000",
          "155345.100000",
          "155346.590000",
          "155348.080000",
          "155349.570000",
          "155351.060000",
          "155352.550000",
          "155354.040000",
          "155355.530000",
          "155357.020000",
          "155358.510000",
          "155400.000000",
          "155401.490000",
          "155402.980000",
          "155404.470000",
          "155405.960000",
          "155407.450000",
          "155408.940000",
          "155410.430000",
          "155411.920000",
          "155413.410000",
          "155414.900000",
          "155416.390000",
          "155417.880000",
          "155419.370000",
          "155420.860000",
          "155422.350000",
          "155423.840000",
          "155425.330000",
          "155426.820000",
          "155428.310000",
          "155429.800000",
          "155431.290000",
          "155432.780000",
          "155434.270000",
          "155435.760000",
          "155437.250000",
          "155438.740000",
          "155440.230000",
          "155441.720000",
          "155443.210000",
          "155444.700000",
          "155446.190000",
          "155447.680000",
          "155449.170000",
          "155450.660000",
          "155452.150000",
          "155453.640000",
          "155455.130000",
          "155456.620000",
          "155458.110000",
          "155459.600000",
          "155501.090000",
          "155502.580000",
          "155504.070000",
          "155505.560000",
          "155507.050000",
          "155508.540000",
          "155510.030000",
          "155511.520000",
          "155513.010000",
          "155514.500000",
          "155515.990000",
          "155517.480000",
          "155518.970000",
          "155520.460000",
          "155521.950000",
          "155523.440000",
          "155524.930000",
          "155526.420000",
          "155527.910000",
          "155529.400000",
          "155530.890000",
          "155532.380000",
          "155533.870000",
          "155535.360000",
          "155536.850000",
          "155538.340000",
          "155539.830000",
          "155541.320000",
          "155542.810000",
          "155544.300000",
          "155545.790000",
          "155547.280000",
          "155548.770000",
          "155550.260000",
          "155551.750000",
          "155553.240000",
          "155554.730000",
          "155556.220000",
          "155557.710000",
          "155559.200000",
          "155600.690000",
          "155602.180000",
          "155603.670000",
          "155605.160000",
          "155606.650000",
          "155608.140000",
          "155609.630000",
          "155611.120000",
          "155612.610000",
          "155614.100000",
          "155615.590000",
          "155617.080000",
          "155618.570000",
          "155620.060000",
          "155621.550000",
          "155623.040000",
          "155624.530000",
          "155626.020000",
          "155627.510000",
          "155629.000000",
          "155630.490000",
          "155631.980000",
          "155633.470000",
          "155634.960000",
          "155636.450000",
          "155637.940000",
          "155639.430000",
          "155640.920000",
          "155642.410000",
          "155643.900000",
          "155645.390000",
          "155646.880000",
          "155648.370000",
          "155649.860000",
          "155651.350000",
          "155652.840000",
          "155654.330000",
          "155655.820000",
          "155657.310000",
          "155658.800000",
          "155700.290000",
          "155701.780000",
          "155703.270000",
          "155704.760000",
          "155706.250000",
          "155707.740000",
          "155709.230000",
          "155710.720000",
          "155712.210000",
          "155713.700000",
          "155715.190000",
          "155716.680000",
          "155718.170000",
          "155719.660000",
          "155721.150000",
          "155722.640000",
          "155724.130000",
          "155725.620000",
          "155727.110000",
          "155728.600000",
          "155730.090000",
          "155731.580000",
          "155733.070000",
          "155734.560000"
        ],
        "ContentTime": [
          "154851.680000",
          "154851.684000",
          "154851.687000",
          "154851.690000",
          "154851.693000",
          "154851.696000",
          "154851.699000",
          "154851.702000",
          "154851.705000",
          "154851.708000",
          "154851.711000",
          "154851.714000",
          "154851.724000",
          "154851.727000",
          "154851.730000",
          "154851.733000",
          "154851.736000",
          "154851.739000",
          "154851.742000",
          "154851.745000",
          "154851.748000",
          "154851.751000",
          "154851.754000",
          "154851.757000",
          "154851.760000",
          "154851.763000",
          "154851.770000",
          "154911.645000",
          "154911.648000",
          "154911.651000",
          "154911.654000",
          "154911.657000",
          "154911.660000",
          "154911.663000",
          "154911.675000",
          "154911.678000",
          "154911.681000",
          "154911.683000",
          "154911.687000",
          "154911.690000",
          "154911.693000",
          "154911.696000",
          "154911.699000",
          "154911.702000",
          "154911.705000",
          "154911.708000",
          "154911.711000",
          "154931.644000",
          "154931.647000",
          "154931.650000",
          "154931.653000",
          "154931.656000",
          "154931.659000",
          "154931.662000",
          "154931.665000",
          "154931.674000",
          "154931.677000",
          "154931.680000",
          "154931.683000",
          "154931.686000",
          "154931.689000",
          "154931.692000",
          "154931.695000",
          "154931.698000",
          "154931.715000",
          "154931.718000",
          "154931.721000",
          "154931.724000",
          "154951.644000",
          "154951.647000",
          "154951.650000",
          "154951.653000",
          "154951.656000",
          "154951.659000",
          "154951.662000",
          "154951.665000",
          "154951.668000",
          "154951.671000",
          "154951.674000",
          "154951.677000",
          "154951.680000",
          "154951.684000",
          "154951.687000",
          "154951.690000",
          "154951.693000",
          "154951.696000",
          "154951.699000",
          "154951.702000",
          "155031.644000",
          "155031.647000",
          "155031.650000",
          "155031.653000",
          "155031.656000",
          "155031.659000",
          "155031.662000",
          "155031.666000",
          "155031.669000",
          "155031.672000",
          "155031.675000",
          "155031.678000",
          "155031.681000",
          "155031.684000",
          "155031.687000",
          "155031.690000",
          "155031.693000",
          "155031.705000",
          "155031.708000",
          "155031.711000",
          "155031.714000",
          "155031.717000",
          "155031.720000",
          "155031.723000",
          "155031.726000",
          "155031.729000",
          "155031.732000",
          "155031.735000",
          "155031.738000",
          "155031.741000",
          "155031.744000",
          "155031.747000",
          "155111.645000",
          "155111.648000",
          "155111.651000",
          "155111.654000",
          "155111.657000",
          "155111.660000",
          "155111.663000",
          "155111.666000",
          "155111.669000",
          "155111.672000",
          "155111.675000",
          "155111.678000",
          "155111.681000",
          "155111.684000",
          "155111.687000",
          "155111.690000",
          "155111.693000",
          "155111.697000",
          "155111.699000",
          "155111.702000",
          "155111.706000",
          "155111.709000",
          "155111.712000",
          "155111.715000",
          "155111.718000",
          "155111.721000",
          "155111.724000",
          "155131.645000",
          "155131.648000",
          "155131.651000",
          "155131.654000",
          "155131.657000",
          "155131.660000",
          "155131.663000",
          "155131.666000",
          "155131.669000",
          "155131.672000",
          "155131.675000",
          "155131.678000",
          "155131.681000",
          "155211.644000",
          "155211.647000",
          "155211.650000",
          "155211.653000",
          "155211.656000",
          "155211.659000",
          "155211.662000",
          "155211.665000",
          "155211.668000",
          "155211.671000",
          "155211.674000",
          "155211.677000",
          "155211.680000",
          "155211.683000",
          "155211.686000",
          "155211.689000",
          "155211.692000",
          "155211.695000",
          "155211.698000",
          "155211.701000",
          "155211.704000",
          "155211.707000",
          "155211.710000",
          "155211.713000",
          "155211.716000",
          "155211.719000",
          "155211.722000",
          "155251.644000",
          "155251.647000",
          "155251.650000",
          "155251.653000",
          "155251.656000",
          "155251.659000",
          "155251.662000",
          "155251.665000",
          "155251.669000",
          "155251.671000",
          "155251.674000",
          "155251.677000",
          "155251.680000",
          "155251.683000",
          "155251.686000",
          "155251.689000",
          "155251.692000",
          "155251.695000",
          "155251.698000",
          "155251.701000",
          "155251.705000",
          "155251.708000",
          "155251.711000",
          "155251.713000",
          "155251.717000",
          "155251.719000",
          "155251.722000",
          "155331.645000",
          "155331.648000",
          "155331.651000",
          "155331.655000",
          "155331.658000",
          "155331.661000",
          "155331.664000",
          "155331.667000",
          "155331.670000",
