{
  "aor": 0.0007037192118226601,
  "aqi": 0.005751757068965517,
  "bids_meta": {
    "AcquisitionMatrixPE": 104,
    "AcquisitionNumber": 1,
    "AcquisitionTime": "15:58:44.132500",
    "BandwidthPerPixelPhaseEncode": 17.17,
    "BaseResolution": 104,
    "BodyPartExamined": "BRAIN",
    "CogAtlasID": "trm_4c898da401420",
    "ConsistencyInfo": "N4_VE11C_LATEST_20160120",
    "ConversionSoftware": "dcm2niix",
    "ConversionSoftwareVersion": "v1.0.20171215 (OpenJPEG build) GCC7.3.0",
    "DerivedVendorReportedEchoSpacing": 0.000560011,
    "DeviceSerialNumber": "167006",
    "DwellTime": 2.1e-06,
    "EchoTime": 0.037,
    "EchoTrainLength": 104,
    "EffectiveEchoSpacing": 0.000560011,
    "FlipAngle": 52,
    "ImageComments": "Unaliased_MB4_PE3_LB",
    "ImageOrientationPatientDICOM": [
      0.999146,
      0.0411703,
      -0.00353457,
      -0.0404792,
      0.958,
      -0.283897
    ],
    "ImageType": [
      "ORIGINAL",
      "PRIMARY",
      "M",
      "MB",
      "ND",
      "MOSAIC"
    ],
    "InPlanePhaseEncodingDirectionDICOM": "COL",
    "InstitutionAddress": "Chemin_Queen-Mary_4565_Montreal_District_CA_H3W_1W5",
    "InstitutionName": "IUGM",
    "InstitutionalDepartmentName": "Department",
    "MRAcquisitionType": "2D",
    "MagneticFieldStrength": 3,
    "Manufacturer": "Siemens",
    "ManufacturersModelName": "Prisma_fit",
    "Modality": "MR",
    "MultibandAccelerationFactor": 4,
    "PartialFourier": 1,
    "PatientPosition": "HFS",
    "PercentPhaseFOV": 100,
    "PhaseEncodingDirection": "j-",
    "PhaseEncodingSteps": 104,
    "PhaseResolution": 1,
    "PixelBandwidth": 2290,
    "ProcedureStepDescription": "video5_generic",
    "ProtocolName": "func_task-wolf14",
    "PulseSequenceDetails": "%CustomerSeq%_cmrr_mbep2d_bold",
    "ReceiveCoilActiveElements": "HC1-7;NC1,2",
    "ReceiveCoilName": "HeadNeck_64",
    "ReconMatrixPE": 104,
    "RepetitionTime": 1.49,
    "SAR": 0.0303564,
    "ScanOptions": "FS",
    "ScanningSequence": "EP",
    "SequenceName": "epfid2d1_104",
    "SequenceVariant": "SK_SS",
    "SeriesDescription": "func_task-wolf14",
    "SeriesNumber": 9,
    "ShimSetting": [
      628,
      -7156,
      -8817,
      647,
      37,
      101,
      10,
      5
    ],
    "SliceThickness": 2,
    "SliceTiming": [
      0,
      0.7825,
      0.0975,
      0.8825,
      0.195,
      0.98,
      0.2925,
      1.0775,
      0.3925,
      1.175,
      0.49,
      1.2725,
      0.5875,
      1.3725,
      0.685,
      0,
      0.7825,
      0.0975,
      0.8825,
      0.195,
      0.98,
      0.2925,
      1.0775,
      0.3925,
      1.175,
      0.49,
      1.2725,
      0.5875,
      1.3725,
      0.685,
      0,
      0.7825,
      0.0975,
      0.8825,
      0.195,
      0.98,
      0.2925,
      1.0775,
      0.3925,
      1.175,
      0.49,
      1.2725,
      0.5875,
      1.3725,
      0.685,
      0,
      0.7825,
      0.0975,
      0.8825,
      0.195,
      0.98,
      0.2925,
      1.0775,
      0.3925,
      1.175,
      0.49,
      1.2725,
      0.5875,
      1.3725,
      0.685
    ],
    "SoftwareVersions": "syngo_MR_E11",
    "SpacingBetweenSlices": 2,
    "StationName": "MRC35049",
    "TaskName": "wolf14",
    "TotalReadoutTime": 0.0576811,
    "TxRefAmp": 209.672,
    "dataset": "<unset>",
    "dcmmeta_affine": [
      [
        -1.9982917308807373,
        -0.08095840364694595,
        0.016604073345661163,
        111.6005630493164
      ],
      [
        -0.08234066516160965,
        1.9159996509552002,
        -0.5675960779190063,
        -65.45606231689453
      ],
      [
        -0.00706913648173213,
        0.5677948594093323,
        1.917696237564087,
        -64.03435516357422
      ],
      [
        0.0,
        0.0,
        0.0,
        1.0
      ]
    ],
    "dcmmeta_reorient_transform": [
      [
        0.0,
        -1.0,
        0.0,
        103.0
      ],
      [
        1.0,
        0.0,
        0.0,
        0.0
      ],
      [
        0.0,
        0.0,
        1.0,
        0.0
      ],
      [
        0.0,
        0.0,
        0.0,
        1.0
      ]
    ],
    "dcmmeta_shape": [
      104,
      104,
      60,
      406
    ],
    "dcmmeta_slice_dim": 2,
    "dcmmeta_version": 0.6,
    "global": {
      "const": {
        "AcquisitionMatrix": [
          104,
          0,
          0,
          104
        ],
        "AngioFlag": "N",
        "BitsAllocated": 16,
        "BitsStored": 16,
        "BodyPartExamined": "BRAIN",
        "Columns": 832,
        "EchoNumbers": 1,
        "EchoTime": 37.0,
        "EchoTrainLength": 104,
        "FlipAngle": 52.0,
        "HighBit": 15,
        "ImageOrientationPatient": [
          0.99914589045681,
          0.04117033411278,
          -0.0035345681921,
          -0.040479201705,
          0.95799983233681,
          -0.2838974382977
        ],
        "ImagePositionPatient": [
          -801.17119353111,
          -859.28778512058,
          203.69902098277
        ],
        "ImageType": [
          "ORIGINAL",
          "PRIMARY",
          "M",
          "MB",
          "ND",
          "MOSAIC"
        ],
        "ImagedNucleus": "1H",
        "ImagingFrequency": 123.257999,
        "InPlanePhaseEncodingDirection": "COL",
        "MRAcquisitionType": "2D",
        "MagneticFieldStrength": 3.0,
        "Manufacturer": "SIEMENS",
        "ManufacturerModelName": "Prisma_fit",
        "Modality": "MR",
        "NumberOfAverages": 1.0,
        "NumberOfPhaseEncodingSteps": 104,
        "PercentPhaseFieldOfView": 100.0,
        "PercentSampling": 100.0,
        "PerformedProcedureStepStartTime": "152039.399000",
        "PhotometricInterpretation": "MONOCHROME2",
        "PixelBandwidth": 2290.0,
        "PixelRepresentation": 0,
        "PixelSpacing": [
          2.0,
          2.0
        ],
        "ProtocolName": "func_task-wolf14",
        "RepetitionTime": 1490.0,
        "Rows": 832,
        "SAR": 0.03035635390208,
        "SamplesPerPixel": 1,
        "ScanOptions": "FS",
        "ScanningSequence": "EP",
        "SequenceName": "epfid2d1_104",
        "SequenceVariant": [
          "SK",
          "SS"
        ],
        "SeriesDescription": "func_task-wolf14",
        "SeriesNumber": 9,
        "SeriesTime": "160011.071000",
        "SliceLocation": -41.89640560739,
        "SliceThickness": 2.0,
        "SmallestImagePixelValue": 0,
        "SoftwareVersions": "syngo MR E11",
        "SpacingBetweenSlices": 1.9999999499054,
        "SpecificCharacterSet": "ISO_IR 100",
        "StudyID": "1",
        "StudyTime": "152039.261000",
        "TransmitCoilName": "Body",
        "VariableFlipAngleFlag": "N",
        "WindowCenterWidthExplanation": "Algo1",
        "dBdt": 0.0
      },
      "slices": {}
    },
    "modality": "bold",
    "session_id": "005",
    "subject_id": "03",
    "task_id": "wolf14",
    "time": {
      "samples": {
        "AcquisitionNumber": [
          1,
          2,
          3,
          4,
          5,
          6,
          7,
          8,
          9,
          10,
          11,
          12,
          13,
          14,
          15,
          16,
          17,
          18,
          19,
          20,
          21,
          22,
          23,
          24,
          25,
          26,
          27,
          28,
          29,
          30,
          31,
          32,
          33,
          34,
          35,
          36,
          37,
          38,
          39,
          40,
          41,
          42,
          43,
          44,
          45,
          46,
          47,
          48,
          49,
          50,
          51,
          52,
          53,
          54,
          55,
          56,
          57,
          58,
          59,
          60,
          61,
          62,
          63,
          64,
          65,
          66,
          67,
          68,
          69,
          70,
          71,
          72,
          73,
          74,
          75,
          76,
          77,
          78,
          79,
          80,
          81,
          82,
          83,
          84,
          85,
          86,
          87,
          88,
          89,
          90,
          91,
          92,
          93,
          94,
          95,
          96,
          97,
          98,
          99,
          100,
          101,
          102,
          103,
          104,
          105,
          106,
          107,
          108,
          109,
          110,
          111,
          112,
          113,
          114,
          115,
          116,
          117,
          118,
          119,
          120,
          121,
          122,
          123,
          124,
          125,
          126,
          127,
          128,
          129,
          130,
          131,
          132,
          133,
          134,
          135,
          136,
          137,
          138,
          139,
          140,
          141,
          142,
          143,
          144,
          145,
          146,
          147,
          148,
          149,
          150,
          151,
          152,
          153,
          154,
          155,
          156,
          157,
          158,
          159,
          160,
          161,
          162,
          163,
          164,
          165,
          166,
          167,
          168,
          169,
          170,
          171,
          172,
          173,
          174,
          175,
          176,
          177,
          178,
          179,
          180,
          181,
          182,
          183,
          184,
          185,
          186,
          187,
          188,
          189,
          190,
          191,
          192,
          193,
          194,
          195,
          196,
          197,
          198,
          199,
          200,
          201,
          202,
          203,
          204,
          205,
          206,
          207,
          208,
          209,
          210,
          211,
          212,
          213,
          214,
          215,
          216,
          217,
          218,
          219,
          220,
          221,
          222,
          223,
          224,
          225,
          226,
          227,
          228,
          229,
          230,
          231,
          232,
          233,
          234,
          235,
          236,
          237,
          238,
          239,
          240,
          241,
          242,
          243,
          244,
          245,
          246,
          247,
          248,
          249,
          250,
          251,
          252,
          253,
          254,
          255,
          256,
          257,
          258,
          259,
          260,
          261,
          262,
          263,
          264,
          265,
          266,
          267,
          268,
          269,
          270,
          271,
          272,
          273,
          274,
          275,
          276,
          277,
          278,
          279,
          280,
          281,
          282,
          283,
          284,
          285,
          286,
          287,
          288,
          289,
          290,
          291,
          292,
          293,
          294,
          295,
          296,
          297,
          298,
          299,
          300,
          301,
          302,
          303,
          304,
          305,
          306,
          307,
          308,
          309,
          310,
          311,
          312,
          313,
          314,
          315,
          316,
          317,
          318,
          319,
          320,
          321,
          322,
          323,
          324,
          325,
          326,
          327,
          328,
          329,
          330,
          331,
          332,
          333,
          334,
          335,
          336,
          337,
          338,
          339,
          340,
          341,
          342,
          343,
          344,
          345,
          346,
          347,
          348,
          349,
          350,
          351,
          352,
          353,
          354,
          355,
          356,
          357,
          358,
          359,
          360,
          361,
          362,
          363,
          364,
          365,
          366,
          367,
          368,
          369,
          370,
          371,
          372,
          373,
          374,
          375,
          376,
          377,
          378,
          379,
          380,
          381,
          382,
          383,
          384,
          385,
          386,
          387,
          388,
          389,
          390,
          391,
          392,
          393,
          394,
          395,
          396,
          397,
          398,
          399,
          400,
          401,
          402,
          403,
          404,
          405,
          406
        ],
        "AcquisitionTime": [
          "155844.132500",
          "155845.622500",
          "155847.112500",
          "155848.602500",
          "155850.092500",
          "155851.582500",
          "155853.072500",
          "155854.562500",
          "155856.052500",
          "155857.542500",
          "155859.032500",
          "155900.522500",
          "155902.012500",
          "155903.502500",
          "155904.992500",
          "155906.482500",
          "155907.972500",
          "155909.462500",
          "155910.952500",
          "155912.442500",
          "155913.932500",
          "155915.422500",
          "155916.912500",
          "155918.402500",
          "155919.892500",
          "155921.382500",
          "155922.872500",
          "155924.362500",
          "155925.852500",
          "155927.342500",
          "155928.832500",
          "155930.322500",
          "155931.812500",
          "155933.302500",
          "155934.792500",
          "155936.282500",
          "155937.772500",
          "155939.262500",
          "155940.752500",
          "155942.242500",
          "155943.732500",
          "155945.222500",
          "155946.712500",
          "155948.202500",
          "155949.692500",
          "155951.182500",
          "155952.672500",
          "155954.162500",
          "155955.652500",
          "155957.142500",
          "155958.632500",
          "160000.122500",
          "160001.612500",
          "160003.102500",
          "160004.592500",
          "160006.082500",
          "160007.572500",
          "160009.062500",
          "160010.552500",
          "160012.042500",
          "160013.532500",
          "160015.022500",
          "160016.512500",
          "160018.002500",
          "160019.492500",
          "160020.982500",
          "160022.472500",
          "160023.962500",
          "160025.452500",
          "160026.942500",
          "160028.432500",
          "160029.922500",
          "160031.412500",
          "160032.902500",
          "160034.392500",
          "160035.882500",
          "160037.372500",
          "160038.862500",
          "160040.352500",
          "160041.842500",
          "160043.332500",
          "160044.822500",
          "160046.312500",
          "160047.802500",
          "160049.292500",
          "160050.782500",
          "160052.272500",
          "160053.762500",
          "160055.252500",
          "160056.742500",
          "160058.232500",
          "160059.722500",
          "160101.212500",
          "160102.702500",
          "160104.192500",
          "160105.682500",
          "160107.172500",
          "160108.662500",
          "160110.152500",
          "160111.642500",
          "160113.132500",
          "160114.622500",
          "160116.112500",
          "160117.602500",
          "160119.092500",
          "160120.582500",
          "160122.072500",
          "160123.562500",
          "160125.052500",
          "160126.542500",
          "160128.032500",
          "160129.522500",
          "160131.012500",
          "160132.502500",
          "160133.992500",
          "160135.482500",
          "160136.972500",
          "160138.462500",
          "160139.952500",
          "160141.442500",
          "160142.932500",
          "160144.422500",
          "160145.912500",
          "160147.402500",
          "160148.892500",
          "160150.382500",
          "160151.872500",
          "160153.362500",
          "160154.852500",
          "160156.342500",
          "160157.832500",
          "160159.322500",
          "160200.812500",
          "160202.302500",
          "160203.792500",
          "160205.282500",
          "160206.772500",
          "160208.262500",
          "160209.752500",
          "160211.242500",
          "160212.732500",
          "160214.222500",
          "160215.712500",
          "160217.202500",
          "160218.692500",
          "160220.182500",
          "160221.672500",
          "160223.162500",
          "160224.652500",
          "160226.142500",
          "160227.632500",
          "160229.122500",
          "160230.612500",
          "160232.102500",
          "160233.592500",
          "160235.082500",
          "160236.572500",
          "160238.062500",
          "160239.552500",
          "160241.042500",
          "160242.532500",
          "160244.022500",
          "160245.512500",
          "160247.002500",
          "160248.492500",
          "160249.982500",
          "160251.472500",
          "160252.962500",
          "160254.452500",
          "160255.942500",
          "160257.432500",
          "160258.922500",
          "160300.412500",
          "160301.902500",
          "160303.392500",
          "160304.882500",
          "160306.372500",
          "160307.862500",
          "160309.352500",
          "160310.842500",
          "160312.332500",
          "160313.822500",
          "160315.312500",
          "160316.802500",
          "160318.292500",
          "160319.782500",
          "160321.272500",
          "160322.762500",
          "160324.252500",
          "160325.742500",
          "160327.232500",
          "160328.722500",
          "160330.212500",
          "160331.702500",
          "160333.192500",
          "160334.682500",
          "160336.172500",
          "160337.662500",
          "160339.152500",
          "160340.642500",
          "160342.132500",
          "160343.622500",
          "160345.112500",
          "160346.602500",
          "160348.092500",
          "160349.582500",
          "160351.072500",
          "160352.562500",
          "160354.052500",
          "160355.542500",
          "160357.032500",
          "160358.522500",
          "160400.012500",
          "160401.502500",
          "160402.992500",
          "160404.482500",
          "160405.972500",
          "160407.462500",
          "160408.952500",
          "160410.442500",
          "160411.932500",
          "160413.422500",
          "160414.912500",
          "160416.402500",
          "160417.892500",
          "160419.382500",
          "160420.872500",
          "160422.362500",
          "160423.852500",
          "160425.342500",
          "160426.832500",
          "160428.322500",
          "160429.812500",
          "160431.302500",
          "160432.792500",
          "160434.282500",
          "160435.772500",
          "160437.262500",
          "160438.752500",
          "160440.242500",
          "160441.732500",
          "160443.222500",
          "160444.712500",
          "160446.202500",
          "160447.692500",
          "160449.182500",
          "160450.672500",
          "160452.162500",
          "160453.652500",
          "160455.142500",
          "160456.632500",
          "160458.122500",
          "160459.612500",
          "160501.102500",
          "160502.592500",
          "160504.082500",
          "160505.572500",
          "160507.062500",
          "160508.552500",
          "160510.042500",
          "160511.532500",
          "160513.022500",
          "160514.512500",
          "160516.002500",
          "160517.492500",
          "160518.982500",
          "160520.472500",
          "160521.962500",
          "160523.452500",
          "160524.942500",
          "160526.432500",
          "160527.922500",
          "160529.412500",
          "160530.902500",
          "160532.392500",
          "160533.882500",
          "160535.372500",
          "160536.862500",
          "160538.352500",
          "160539.842500",
          "160541.332500",
          "160542.822500",
          "160544.312500",
          "160545.802500",
          "160547.292500",
          "160548.782500",
          "160550.272500",
          "160551.762500",
          "160553.252500",
          "160554.742500",
          "160556.232500",
          "160557.722500",
          "160559.212500",
          "160600.702500",
          "160602.192500",
          "160603.682500",
          "160605.172500",
          "160606.662500",
          "160608.152500",
          "160609.642500",
          "160611.132500",
          "160612.622500",
          "160614.112500",
          "160615.602500",
          "160617.092500",
          "160618.582500",
          "160620.072500",
          "160621.562500",
          "160623.052500",
          "160624.542500",
          "160626.032500",
          "160627.522500",
          "160629.012500",
          "160630.502500",
          "160631.992500",
          "160633.482500",
          "160634.972500",
          "160636.462500",
          "160637.952500",
          "160639.442500",
          "160640.932500",
          "160642.422500",
          "160643.912500",
          "160645.402500",
          "160646.892500",
          "160648.382500",
          "160649.872500",
          "160651.362500",
          "160652.852500",
          "160654.342500",
          "160655.832500",
          "160657.322500",
          "160658.812500",
          "160700.302500",
          "160701.792500",
          "160703.282500",
          "160704.772500",
          "160706.262500",
          "160707.752500",
          "160709.242500",
          "160710.732500",
          "160712.222500",
          "160713.712500",
          "160715.202500",
          "160716.692500",
          "160718.182500",
          "160719.672500",
          "160721.162500",
          "160722.652500",
          "160724.142500",
          "160725.632500",
          "160727.122500",
          "160728.612500",
          "160730.102500",
          "160731.592500",
          "160733.082500",
          "160734.572500",
          "160736.062500",
          "160737.552500",
          "160739.042500",
          "160740.532500",
          "160742.022500",
          "160743.512500",
          "160745.002500",
          "160746.492500",
          "160747.982500",
          "160749.472500",
          "160750.962500",
          "160752.452500",
          "160753.942500",
          "160755.432500",
          "160756.922500",
          "160758.412500",
          "160759.902500",
          "160801.392500",
          "160802.882500",
          "160804.372500",
          "160805.862500",
          "160807.352500",
          "160808.842500",
          "160810.332500",
          "160811.822500",
          "160813.312500",
          "160814.802500",
          "160816.292500",
          "160817.782500",
          "160819.272500",
          "160820.762500",
          "160822.252500",
          "160823.742500",
          "160825.232500",
          "160826.722500",
          "160828.212500",
          "160829.702500",
          "160831.192500",
          "160832.682500",
          "160834.172500",
          "160835.662500",
          "160837.152500",
          "160838.642500",
          "160840.132500",
          "160841.622500",
          "160843.112500",
          "160844.602500",
          "160846.092500",
          "160847.582500"
        ],
        "ContentTime": [
          "160011.073000",
          "160011.077000",
          "160011.080000",
          "160011.083000",
          "160011.086000",
          "160011.089000",
          "160011.092000",
          "160011.095000",
          "160011.098000",
          "160011.101000",
          "160011.104000",
          "160011.107000",
          "160011.110000",
          "160011.113000",
          "160011.116000",
          "160011.118000",
          "160011.121000",
          "160011.131000",
          "160011.134000",
          "160011.137000",
          "160011.140000",
          "160011.142000",
          "160011.145000",
          "160011.148000",
          "160011.151000",
          "160011.154000",
          "160011.157000",
          "160011.161000",
          "160011.164000",
          "160011.167000",
          "160011.170000",
          "160011.175000",
          "160011.178000",
          "160031.029000",
          "160031.032000",
          "160031.035000",
          "160031.038000",
          "160031.041000",
          "160031.044000",
          "160031.047000",
          "160031.050000",
          "160031.053000",
          "160031.056000",
          "160031.059000",
          "160031.065000",
          "160031.068000",
          "160031.071000",
          "160031.073000",
          "160031.076000",
          "160031.079000",
          "160031.082000",
          "160031.085000",
          "160031.088000",
          "160051.029000",
          "160051.032000",
          "160051.035000",
          "160051.038000",
          "160051.041000",
          "160051.044000",
          "160051.047000",
          "160051.050000",
          "160051.053000",
          "160051.056000",
          "160051.059000",
          "160051.062000",
          "160051.065000",
          "160051.068000",
          "160051.071000",
          "160051.074000",
          "160051.077000",
          "160051.080000",
          "160051.082000",
          "160051.085000",
          "160111.029000",
          "160111.032000",
          "160111.035000",
          "160111.038000",
          "160111.041000",
          "160111.044000",
          "160111.047000",
          "160111.050000",
          "160111.053000",
          "160111.056000",
          "160111.059000",
          "160111.062000",
          "160111.065000",
          "160111.068000",
          "160111.071000",
          "160111.074000",
          "160111.077000",
          "160111.080000",
          "160111.082000",
          "160111.085000",
          "160151.029000",
          "160151.032000",
          "160151.035000",
          "160151.038000",
          "160151.041000",
          "160151.044000",
          "160151.047000",
          "160151.050000",
          "160151.053000",
          "160151.056000",
          "160151.059000",
          "160151.062000",
          "160151.065000",
          "160151.068000",
          "160151.071000",
          "160151.074000",
          "160151.077000",
          "160151.080000",
          "160151.083000",
          "160151.086000",
          "160151.089000",
          "160151.092000",
          "160151.095000",
          "160151.098000",
          "160151.101000",
          "160151.104000",
          "160151.107000",
          "160151.110000",
          "160151.112000",
          "160151.115000",
          "160151.126000",
          "160231.029000",
          "160231.032000",
          "160231.035000",
          "160231.039000",
          "160231.042000",
          "160231.045000",
          "160231.048000",
          "160231.051000",
          "160231.053000",
          "160231.057000",
          "160231.060000",
          "160231.063000",
          "160231.066000",
          "160231.069000",
          "160231.072000",
          "160231.075000",
          "160231.078000",
          "160231.081000",
          "160231.084000",
          "160231.087000",
          "160231.090000",
          "160231.093000",
          "160231.096000",
          "160231.099000",
          "160231.102000",
          "160231.105000",
          "160231.108000",
          "160311.029000",
          "160311.032000",
          "160311.035000",
          "160311.038000",
          "160311.041000",
          "160311.044000",
          "160311.047000",
          "160311.050000",
          "160311.053000",
          "160311.056000",
          "160311.059000",
          "160311.062000",
          "160311.065000",
          "160311.068000",
          "160311.071000",
          "160311.074000",
          "160311.077000",
          "160311.080000",
          "160311.083000",
          "160311.086000",
          "160311.089000",
          "160311.092000",
          "160311.095000",
          "160311.098000",
          "160311.101000",
          "160311.104000",
          "160311.107000",
          "160351.029000",
          "160351.032000",
          "160351.035000",
          "160351.038000",
          "160351.041000",
          "160351.044000",
          "160351.047000",
          "160351.050000",
          "160351.053000",
          "160351.056000",
          "160351.059000",
          "160351.062000",
          "160351.065000",
          "160351.068000",
          "160351.071000",
          "160351.074000",
          "160351.077000",
          "160351.080000",
          "160351.083000",
          "160351.086000",
          "160351.089000",
          "160351.092000",
          "160351.105000",
          "160351.108000",
          "160351.111000",
          "160351.114000",
          "160351.117000",
          "160431.029000",
          "160431.032000",
          "160431.035000",
          "160431.038000",
          "160431.041000",
          "160431.044000",
          "160431.047000",
          "160431.050000",
          "160431.053000",
          "160431.056000",
          "160431.059000",
          "160431.062000",
          "160431.065000",
          "160431.068000",
          "160431.071000",
          "160431.074000",
          "160431.077000",
          "160431.080000",
