{
  "aor": 0.000361847389558233,
  "aqi": 0.009573755883534138,
  "bids_meta": {
    "AcquisitionMatrixPE": 104,
    "AcquisitionNumber": 1,
    "AcquisitionTime": "16:31:24.797500",
    "BandwidthPerPixelPhaseEncode": 17.17,
    "BaseResolution": 104,
    "BodyPartExamined": "BRAIN",
    "CogAtlasID": "trm_4c898da401420",
    "ConsistencyInfo": "N4_VE11C_LATEST_20160120",
    "ConversionSoftware": "dcm2niix",
    "ConversionSoftwareVersion": "v1.0.20171215 (OpenJPEG build) GCC7.3.0",
    "DerivedVendorReportedEchoSpacing": 0.000560011,
    "DeviceSerialNumber": "167006",
    "DwellTime": 2.1e-06,
    "EchoTime": 0.037,
    "EchoTrainLength": 104,
    "EffectiveEchoSpacing": 0.000560011,
    "FlipAngle": 52,
    "ImageComments": "Unaliased_MB4_PE3_LB",
    "ImageOrientationPatientDICOM": [
      0.999146,
      0.0411703,
      -0.00353457,
      -0.0404792,
      0.958,
      -0.283897
    ],
    "ImageType": [
      "ORIGINAL",
      "PRIMARY",
      "M",
      "MB",
      "ND",
      "MOSAIC"
    ],
    "InPlanePhaseEncodingDirectionDICOM": "COL",
    "InstitutionAddress": "Chemin_Queen-Mary_4565_Montreal_District_CA_H3W_1W5",
    "InstitutionName": "IUGM",
    "InstitutionalDepartmentName": "Department",
    "MRAcquisitionType": "2D",
    "MagneticFieldStrength": 3,
    "Manufacturer": "Siemens",
    "ManufacturersModelName": "Prisma_fit",
    "Modality": "MR",
    "MultibandAccelerationFactor": 4,
    "PartialFourier": 1,
    "PatientPosition": "HFS",
    "PercentPhaseFOV": 100,
    "PhaseEncodingDirection": "j-",
    "PhaseEncodingSteps": 104,
    "PhaseResolution": 1,
    "PixelBandwidth": 2290,
    "ProcedureStepDescription": "video5_generic",
    "ProtocolName": "func_task-wolf17",
    "PulseSequenceDetails": "%CustomerSeq%_cmrr_mbep2d_bold",
    "ReceiveCoilActiveElements": "HC1-7;NC1,2",
    "ReceiveCoilName": "HeadNeck_64",
    "ReconMatrixPE": 104,
    "RepetitionTime": 1.49,
    "SAR": 0.0303836,
    "ScanOptions": "FS",
    "ScanningSequence": "EP",
    "SequenceName": "epfid2d1_104",
    "SequenceVariant": "SK_SS",
    "SeriesDescription": "func_task-wolf17",
    "SeriesNumber": 15,
    "ShimSetting": [
      628,
      -7156,
      -8817,
      646,
      36,
      102,
      10,
      5
    ],
    "SliceThickness": 2,
    "SliceTiming": [
      0,
      0.785,
      0.1,
      0.8825,
      0.1975,
      0.98,
      0.295,
      1.0775,
      0.3925,
      1.1775,
      0.49,
      1.275,
      0.59,
      1.3725,
      0.6875,
      0,
      0.785,
      0.1,
      0.8825,
      0.1975,
      0.98,
      0.295,
      1.0775,
      0.3925,
      1.1775,
      0.49,
      1.275,
      0.59,
      1.3725,
      0.6875,
      0,
      0.785,
      0.1,
      0.8825,
      0.1975,
      0.98,
      0.295,
      1.0775,
      0.3925,
      1.1775,
      0.49,
      1.275,
      0.59,
      1.3725,
      0.6875,
      0,
      0.785,
      0.1,
      0.8825,
      0.1975,
      0.98,
      0.295,
      1.0775,
      0.3925,
      1.1775,
      0.49,
      1.275,
      0.59,
      1.3725,
      0.6875
    ],
    "SoftwareVersions": "syngo_MR_E11",
    "SpacingBetweenSlices": 2,
    "StationName": "MRC35049",
    "TaskName": "wolf17",
    "TotalReadoutTime": 0.0576811,
    "TxRefAmp": 209.672,
    "dataset": "<unset>",
    "dcmmeta_affine": [
      [
        -1.9982917308807373,
        -0.08095840364694595,
        0.016604073345661163,
        111.6005630493164
      ],
      [
        -0.08234066516160965,
        1.9159996509552002,
        -0.5675960779190063,
        -65.45606231689453
      ],
      [
        -0.00706913648173213,
        0.5677948594093323,
        1.917696237564087,
        -64.03435516357422
      ],
      [
        0.0,
        0.0,
        0.0,
        1.0
      ]
    ],
    "dcmmeta_reorient_transform": [
      [
        0.0,
        -1.0,
        0.0,
        103.0
      ],
      [
        1.0,
        0.0,
        0.0,
        0.0
      ],
      [
        0.0,
        0.0,
        1.0,
        0.0
      ],
      [
        0.0,
        0.0,
        0.0,
        1.0
      ]
    ],
    "dcmmeta_shape": [
      104,
      104,
      60,
      498
    ],
    "dcmmeta_slice_dim": 2,
    "dcmmeta_version": 0.6,
    "global": {
      "const": {
        "AcquisitionMatrix": [
          104,
          0,
          0,
          104
        ],
        "AngioFlag": "N",
        "BitsAllocated": 16,
        "BitsStored": 16,
        "BodyPartExamined": "BRAIN",
        "Columns": 832,
        "EchoNumbers": 1,
        "EchoTime": 37.0,
        "EchoTrainLength": 104,
        "FlipAngle": 52.0,
        "HighBit": 15,
        "ImageOrientationPatient": [
          0.99914589045681,
          0.04117033411278,
          -0.0035345681921,
          -0.040479201705,
          0.95799983233681,
          -0.2838974382977
        ],
        "ImagePositionPatient": [
          -801.17119353111,
          -859.28778512058,
          203.69902098277
        ],
        "ImageType": [
          "ORIGINAL",
          "PRIMARY",
          "M",
          "MB",
          "ND",
          "MOSAIC"
        ],
        "ImagedNucleus": "1H",
        "ImagingFrequency": 123.258013,
        "InPlanePhaseEncodingDirection": "COL",
        "MRAcquisitionType": "2D",
        "MagneticFieldStrength": 3.0,
        "Manufacturer": "SIEMENS",
        "ManufacturerModelName": "Prisma_fit",
        "Modality": "MR",
        "NumberOfAverages": 1.0,
        "NumberOfPhaseEncodingSteps": 104,
        "PercentPhaseFieldOfView": 100.0,
        "PercentSampling": 100.0,
        "PerformedProcedureStepStartTime": "152039.399000",
        "PhotometricInterpretation": "MONOCHROME2",
        "PixelBandwidth": 2290.0,
        "PixelRepresentation": 0,
        "PixelSpacing": [
          2.0,
          2.0
        ],
        "ProtocolName": "func_task-wolf17",
        "RepetitionTime": 1490.0,
        "Rows": 832,
        "SAR": 0.0303836214504,
        "SamplesPerPixel": 1,
        "ScanOptions": "FS",
        "ScanningSequence": "EP",
        "SequenceName": "epfid2d1_104",
        "SequenceVariant": [
          "SK",
          "SS"
        ],
        "SeriesDescription": "func_task-wolf17",
        "SeriesNumber": 15,
        "SeriesTime": "163231.059000",
        "SliceLocation": -41.89640560739,
        "SliceThickness": 2.0,
        "SmallestImagePixelValue": 0,
        "SoftwareVersions": "syngo MR E11",
        "SpacingBetweenSlices": 1.9999999499054,
        "SpecificCharacterSet": "ISO_IR 100",
        "StudyID": "1",
        "StudyTime": "152039.261000",
        "TransmitCoilName": "Body",
        "VariableFlipAngleFlag": "N",
        "WindowCenterWidthExplanation": "Algo1",
        "dBdt": 0.0
      },
      "slices": {}
    },
    "modality": "bold",
    "session_id": "005",
    "subject_id": "03",
    "task_id": "wolf17",
    "time": {
      "samples": {
        "AcquisitionNumber": [
          1,
          2,
          3,
          4,
          5,
          6,
          7,
          8,
          9,
          10,
          11,
          12,
          13,
          14,
          15,
          16,
          17,
          18,
          19,
          20,
          21,
          22,
          23,
          24,
          25,
          26,
          27,
          28,
          29,
          30,
          31,
          32,
          33,
          34,
          35,
          36,
          37,
          38,
          39,
          40,
          41,
          42,
          43,
          44,
          45,
          46,
          47,
          48,
          49,
          50,
          51,
          52,
          53,
          54,
          55,
          56,
          57,
          58,
          59,
          60,
          61,
          62,
          63,
          64,
          65,
          66,
          67,
          68,
          69,
          70,
          71,
          72,
          73,
          74,
          75,
          76,
          77,
          78,
          79,
          80,
          81,
          82,
          83,
          84,
          85,
          86,
          87,
          88,
          89,
          90,
          91,
          92,
          93,
          94,
          95,
          96,
          97,
          98,
          99,
          100,
          101,
          102,
          103,
          104,
          105,
          106,
          107,
          108,
          109,
          110,
          111,
          112,
          113,
          114,
          115,
          116,
          117,
          118,
          119,
          120,
          121,
          122,
          123,
          124,
          125,
          126,
          127,
          128,
          129,
          130,
          131,
          132,
          133,
          134,
          135,
          136,
          137,
          138,
          139,
          140,
          141,
          142,
          143,
          144,
          145,
          146,
          147,
          148,
          149,
          150,
          151,
          152,
          153,
          154,
          155,
          156,
          157,
          158,
          159,
          160,
          161,
          162,
          163,
          164,
          165,
          166,
          167,
          168,
          169,
          170,
          171,
          172,
          173,
          174,
          175,
          176,
          177,
          178,
          179,
          180,
          181,
          182,
          183,
          184,
          185,
          186,
          187,
          188,
          189,
          190,
          191,
          192,
          193,
          194,
          195,
          196,
          197,
          198,
          199,
          200,
          201,
          202,
          203,
          204,
          205,
          206,
          207,
          208,
          209,
          210,
          211,
          212,
          213,
          214,
          215,
          216,
          217,
          218,
          219,
          220,
          221,
          222,
          223,
          224,
          225,
          226,
          227,
          228,
          229,
          230,
          231,
          232,
          233,
          234,
          235,
          236,
          237,
          238,
          239,
          240,
          241,
          242,
          243,
          244,
          245,
          246,
          247,
          248,
          249,
          250,
          251,
          252,
          253,
          254,
          255,
          256,
          257,
          258,
          259,
          260,
          261,
          262,
          263,
          264,
          265,
          266,
          267,
          268,
          269,
          270,
          271,
          272,
          273,
          274,
          275,
          276,
          277,
          278,
          279,
          280,
          281,
          282,
          283,
          284,
          285,
          286,
          287,
          288,
          289,
          290,
          291,
          292,
          293,
          294,
          295,
          296,
          297,
          298,
          299,
          300,
          301,
          302,
          303,
          304,
          305,
          306,
          307,
          308,
          309,
          310,
          311,
          312,
          313,
          314,
          315,
          316,
          317,
          318,
          319,
          320,
          321,
          322,
          323,
          324,
          325,
          326,
          327,
          328,
          329,
          330,
          331,
          332,
          333,
          334,
          335,
          336,
          337,
          338,
          339,
          340,
          341,
          342,
          343,
          344,
          345,
          346,
          347,
          348,
          349,
          350,
          351,
          352,
          353,
          354,
          355,
          356,
          357,
          358,
          359,
          360,
          361,
          362,
          363,
          364,
          365,
          366,
          367,
          368,
          369,
          370,
          371,
          372,
          373,
          374,
          375,
          376,
          377,
          378,
          379,
          380,
          381,
          382,
          383,
          384,
          385,
          386,
          387,
          388,
          389,
          390,
          391,
          392,
          393,
          394,
          395,
          396,
          397,
          398,
          399,
          400,
          401,
          402,
          403,
          404,
          405,
          406,
          407,
          408,
          409,
          410,
          411,
          412,
          413,
          414,
          415,
          416,
          417,
          418,
          419,
          420,
          421,
          422,
          423,
          424,
          425,
          426,
          427,
          428,
          429,
          430,
          431,
          432,
          433,
          434,
          435,
          436,
          437,
          438,
          439,
          440,
          441,
          442,
          443,
          444,
          445,
          446,
          447,
          448,
          449,
          450,
          451,
          452,
          453,
          454,
          455,
          456,
          457,
          458,
          459,
          460,
          461,
          462,
          463,
          464,
          465,
          466,
          467,
          468,
          469,
          470,
          471,
          472,
          473,
          474,
          475,
          476,
          477,
          478,
          479,
          480,
          481,
          482,
          483,
          484,
          485,
          486,
          487,
          488,
          489,
          490,
          491,
          492,
          493,
          494,
          495,
          496,
          497,
          498
        ],
        "AcquisitionTime": [
          "163124.797500",
          "163126.287500",
          "163127.777500",
          "163129.267500",
          "163130.757500",
          "163132.247500",
          "163133.737500",
          "163135.227500",
          "163136.717500",
          "163138.207500",
          "163139.697500",
          "163141.187500",
          "163142.677500",
          "163144.167500",
          "163145.657500",
          "163147.147500",
          "163148.637500",
          "163150.127500",
          "163151.617500",
          "163153.107500",
          "163154.597500",
          "163156.087500",
          "163157.577500",
          "163159.067500",
          "163200.557500",
          "163202.047500",
          "163203.537500",
          "163205.027500",
          "163206.517500",
          "163208.007500",
          "163209.497500",
          "163210.987500",
          "163212.477500",
          "163213.967500",
          "163215.457500",
          "163216.947500",
          "163218.437500",
          "163219.927500",
          "163221.417500",
          "163222.907500",
          "163224.397500",
          "163225.887500",
          "163227.377500",
          "163228.867500",
          "163230.357500",
          "163231.847500",
          "163233.337500",
          "163234.827500",
          "163236.317500",
          "163237.807500",
          "163239.297500",
          "163240.787500",
          "163242.277500",
          "163243.767500",
          "163245.257500",
          "163246.747500",
          "163248.237500",
          "163249.727500",
          "163251.217500",
          "163252.707500",
          "163254.197500",
          "163255.687500",
          "163257.177500",
          "163258.667500",
          "163300.157500",
          "163301.647500",
          "163303.137500",
          "163304.627500",
          "163306.117500",
          "163307.607500",
          "163309.097500",
          "163310.587500",
          "163312.077500",
          "163313.567500",
          "163315.057500",
          "163316.547500",
          "163318.037500",
          "163319.527500",
          "163321.017500",
          "163322.507500",
          "163323.997500",
          "163325.487500",
          "163326.977500",
          "163328.467500",
          "163329.957500",
          "163331.447500",
          "163332.937500",
          "163334.427500",
          "163335.917500",
          "163337.407500",
          "163338.897500",
          "163340.387500",
          "163341.877500",
          "163343.367500",
          "163344.857500",
          "163346.347500",
          "163347.837500",
          "163349.327500",
          "163350.817500",
          "163352.307500",
          "163353.797500",
          "163355.287500",
          "163356.777500",
          "163358.267500",
          "163359.757500",
          "163401.247500",
          "163402.737500",
          "163404.227500",
          "163405.717500",
          "163407.207500",
          "163408.697500",
          "163410.187500",
          "163411.677500",
          "163413.167500",
          "163414.657500",
          "163416.147500",
          "163417.637500",
          "163419.127500",
          "163420.617500",
          "163422.107500",
          "163423.597500",
          "163425.087500",
          "163426.577500",
          "163428.067500",
          "163429.557500",
          "163431.047500",
          "163432.537500",
          "163434.027500",
          "163435.517500",
          "163437.007500",
          "163438.497500",
          "163439.987500",
          "163441.477500",
          "163442.967500",
          "163444.457500",
          "163445.947500",
          "163447.437500",
          "163448.927500",
          "163450.417500",
          "163451.907500",
          "163453.397500",
          "163454.887500",
          "163456.377500",
          "163457.867500",
          "163459.357500",
          "163500.847500",
          "163502.337500",
          "163503.827500",
          "163505.317500",
          "163506.807500",
          "163508.297500",
          "163509.787500",
          "163511.277500",
          "163512.767500",
          "163514.257500",
          "163515.747500",
          "163517.237500",
          "163518.727500",
          "163520.217500",
          "163521.707500",
          "163523.197500",
          "163524.687500",
          "163526.177500",
          "163527.667500",
          "163529.157500",
          "163530.647500",
          "163532.137500",
          "163533.627500",
          "163535.117500",
          "163536.607500",
          "163538.097500",
          "163539.587500",
          "163541.077500",
          "163542.567500",
          "163544.057500",
          "163545.547500",
          "163547.037500",
          "163548.527500",
          "163550.017500",
          "163551.507500",
          "163552.997500",
          "163554.487500",
          "163555.977500",
          "163557.467500",
          "163558.957500",
          "163600.447500",
          "163601.937500",
          "163603.427500",
          "163604.917500",
          "163606.407500",
          "163607.897500",
          "163609.387500",
          "163610.877500",
          "163612.367500",
          "163613.857500",
          "163615.347500",
          "163616.837500",
          "163618.327500",
          "163619.817500",
          "163621.307500",
          "163622.797500",
          "163624.287500",
          "163625.777500",
          "163627.267500",
          "163628.757500",
          "163630.247500",
          "163631.737500",
          "163633.227500",
          "163634.717500",
          "163636.207500",
          "163637.697500",
          "163639.187500",
          "163640.677500",
          "163642.167500",
          "163643.657500",
          "163645.147500",
          "163646.637500",
          "163648.127500",
          "163649.617500",
          "163651.107500",
          "163652.597500",
          "163654.087500",
          "163655.577500",
          "163657.067500",
          "163658.557500",
          "163700.047500",
          "163701.537500",
          "163703.027500",
          "163704.517500",
          "163706.007500",
          "163707.497500",
          "163708.987500",
          "163710.477500",
          "163711.967500",
          "163713.457500",
          "163714.947500",
          "163716.437500",
          "163717.927500",
          "163719.417500",
          "163720.907500",
          "163722.397500",
          "163723.887500",
          "163725.377500",
          "163726.867500",
          "163728.357500",
          "163729.847500",
          "163731.337500",
          "163732.827500",
          "163734.317500",
          "163735.807500",
          "163737.297500",
          "163738.787500",
          "163740.277500",
          "163741.767500",
          "163743.257500",
          "163744.747500",
          "163746.237500",
          "163747.727500",
          "163749.217500",
          "163750.707500",
          "163752.197500",
          "163753.687500",
          "163755.177500",
          "163756.667500",
          "163758.157500",
          "163759.647500",
          "163801.137500",
          "163802.627500",
          "163804.117500",
          "163805.607500",
          "163807.097500",
          "163808.587500",
          "163810.077500",
          "163811.567500",
          "163813.057500",
          "163814.547500",
          "163816.037500",
          "163817.527500",
          "163819.017500",
          "163820.507500",
          "163821.997500",
          "163823.487500",
          "163824.977500",
          "163826.467500",
          "163827.957500",
          "163829.447500",
          "163830.937500",
          "163832.427500",
          "163833.917500",
          "163835.407500",
          "163836.897500",
          "163838.387500",
          "163839.877500",
          "163841.367500",
          "163842.857500",
          "163844.347500",
          "163845.837500",
          "163847.327500",
          "163848.817500",
          "163850.307500",
          "163851.797500",
          "163853.287500",
          "163854.777500",
          "163856.267500",
          "163857.757500",
          "163859.247500",
          "163900.737500",
          "163902.227500",
          "163903.717500",
          "163905.207500",
          "163906.697500",
          "163908.187500",
          "163909.677500",
          "163911.167500",
          "163912.657500",
          "163914.147500",
          "163915.637500",
          "163917.127500",
          "163918.617500",
          "163920.107500",
          "163921.597500",
          "163923.087500",
          "163924.577500",
          "163926.067500",
          "163927.557500",
          "163929.047500",
          "163930.537500",
          "163932.027500",
          "163933.517500",
          "163935.007500",
          "163936.497500",
          "163937.987500",
          "163939.477500",
          "163940.967500",
          "163942.457500",
          "163943.947500",
          "163945.437500",
          "163946.927500",
          "163948.417500",
          "163949.907500",
          "163951.397500",
          "163952.887500",
          "163954.377500",
          "163955.867500",
          "163957.357500",
          "163958.847500",
          "164000.337500",
          "164001.827500",
          "164003.317500",
          "164004.807500",
          "164006.297500",
          "164007.787500",
          "164009.277500",
          "164010.767500",
          "164012.257500",
          "164013.747500",
          "164015.237500",
          "164016.727500",
          "164018.217500",
          "164019.707500",
          "164021.197500",
          "164022.687500",
          "164024.177500",
          "164025.667500",
          "164027.157500",
          "164028.647500",
          "164030.137500",
          "164031.627500",
          "164033.117500",
          "164034.607500",
          "164036.097500",
          "164037.587500",
          "164039.077500",
          "164040.567500",
          "164042.057500",
          "164043.547500",
          "164045.037500",
          "164046.527500",
          "164048.017500",
          "164049.507500",
          "164050.997500",
          "164052.487500",
          "164053.977500",
          "164055.467500",
          "164056.957500",
          "164058.447500",
          "164059.937500",
          "164101.427500",
          "164102.917500",
          "164104.407500",
          "164105.897500",
          "164107.387500",
          "164108.877500",
          "164110.367500",
          "164111.857500",
          "164113.347500",
          "164114.837500",
          "164116.327500",
          "164117.817500",
          "164119.307500",
          "164120.797500",
          "164122.287500",
          "164123.777500",
          "164125.267500",
          "164126.757500",
          "164128.247500",
          "164129.737500",
          "164131.227500",
          "164132.717500",
          "164134.207500",
          "164135.697500",
          "164137.187500",
          "164138.677500",
          "164140.167500",
          "164141.657500",
          "164143.147500",
          "164144.637500",
          "164146.127500",
          "164147.617500",
          "164149.107500",
          "164150.597500",
          "164152.087500",
          "164153.577500",
          "164155.067500",
          "164156.557500",
          "164158.047500",
          "164159.537500",
          "164201.027500",
          "164202.517500",
          "164204.007500",
          "164205.497500",
          "164206.987500",
          "164208.477500",
          "164209.967500",
          "164211.457500",
          "164212.947500",
          "164214.437500",
          "164215.927500",
          "164217.417500",
          "164218.907500",
          "164220.397500",
          "164221.887500",
          "164223.377500",
          "164224.867500",
          "164226.357500",
          "164227.847500",
          "164229.337500",
          "164230.827500",
          "164232.317500",
          "164233.807500",
          "164235.297500",
          "164236.787500",
          "164238.277500",
          "164239.767500",
          "164241.257500",
          "164242.747500",
          "164244.237500",
          "164245.727500",
          "164247.217500",
          "164248.707500",
          "164250.197500",
          "164251.687500",
          "164253.177500",
          "164254.667500",
          "164256.157500",
          "164257.647500",
          "164259.137500",
          "164300.627500",
          "164302.117500",
          "164303.607500",
          "164305.097500",
          "164306.587500",
          "164308.077500",
          "164309.567500",
          "164311.057500",
          "164312.547500",
          "164314.037500",
          "164315.527500",
          "164317.017500",
          "164318.507500",
          "164319.997500",
          "164321.487500",
          "164322.977500",
          "164324.467500",
          "164325.957500",
          "164327.447500",
          "164328.937500",
          "164330.427500",
          "164331.917500",
          "164333.407500",
          "164334.897500",
          "164336.387500",
          "164337.877500",
          "164339.367500",
          "164340.857500",
          "164342.347500",
          "164343.837500",
          "164345.327500"
        ],
        "ContentTime": [
          "163231.062000",
          "163231.066000",
          "163231.069000",
          "163231.072000",
          "163231.075000",
          "163231.078000",
          "163231.081000",
          "163231.084000",
          "163231.087000",
          "163231.090000",
          "163231.093000",
          "163231.107000",
          "163231.110000",
          "163231.113000",
          "163251.029000",
          "163251.032000",
          "163251.035000",
          "163251.038000",
          "163251.041000",
          "163251.044000",
          "163251.047000",
          "163251.050000",
          "163251.053000",
          "163251.056000",
          "163251.059000",
          "163251.062000",
          "163251.065000",
          "163251.068000",
          "163251.071000",
          "163251.074000",
          "163251.077000",
          "163251.080000",
          "163251.083000",
          "163251.086000",
          "163311.029000",
          "163311.032000",
          "163311.035000",
          "163311.038000",
          "163311.041000",
          "163311.044000",
          "163311.047000",
          "163311.050000",
          "163311.053000",
          "163311.056000",
          "163311.059000",
          "163311.062000",
          "163311.065000",
          "163311.068000",
          "163311.071000",
          "163311.074000",
          "163311.077000",
          "163311.080000",
          "163311.083000",
          "163311.086000",
          "163331.029000",
          "163331.032000",
          "163331.035000",
          "163331.038000",
          "163331.041000",
          "163331.044000",
          "163331.047000",
          "163331.050000",
          "163331.053000",
          "163331.056000",
          "163331.066000",
          "163331.069000",
          "163331.072000",
          "163331.075000",
          "163331.078000",
          "163331.081000",
          "163331.084000",
          "163331.087000",
          "163331.090000",
          "163331.093000",
          "163331.096000",
          "163351.029000",
          "163351.032000",
          "163351.035000",
          "163351.038000",
          "163351.041000",
          "163351.044000",
