{
  "aor": 0.0004422850122850123,
  "aqi": 0.010026849189189188,
  "bids_meta": {
    "AcquisitionMatrixPE": 104,
    "AcquisitionNumber": 1,
    "AcquisitionTime": "15:44:47.012500",
    "BandwidthPerPixelPhaseEncode": 17.17,
    "BaseResolution": 104,
    "BodyPartExamined": "BRAIN",
    "CogAtlasID": "trm_4c898da401420",
    "ConsistencyInfo": "N4_VE11C_LATEST_20160120",
    "ConversionSoftware": "dcm2niix",
    "ConversionSoftwareVersion": "v1.0.20171215 (OpenJPEG build) GCC7.3.0",
    "DerivedVendorReportedEchoSpacing": 0.000560011,
    "DeviceSerialNumber": "167006",
    "DwellTime": 2.1e-06,
    "EchoTime": 0.037,
    "EchoTrainLength": 104,
    "EffectiveEchoSpacing": 0.000560011,
    "FlipAngle": 52,
    "ImageComments": "Unaliased_MB4_PE3_LB",
    "ImageOrientationPatientDICOM": [
      0.999763,
      0.0129229,
      -0.0175434,
      -0.0181492,
      0.939421,
      -0.342284
    ],
    "ImageType": [
      "ORIGINAL",
      "PRIMARY",
      "M",
      "MB",
      "ND",
      "MOSAIC"
    ],
    "InPlanePhaseEncodingDirectionDICOM": "COL",
    "InstitutionAddress": "Chemin_Queen-Mary_4565_Montreal_District_CA_H3W_1W5",
    "InstitutionName": "IUGM",
    "InstitutionalDepartmentName": "Department",
    "MRAcquisitionType": "2D",
    "MagneticFieldStrength": 3,
    "Manufacturer": "Siemens",
    "ManufacturersModelName": "Prisma_fit",
    "Modality": "MR",
    "MultibandAccelerationFactor": 4,
    "PartialFourier": 1,
    "PatientPosition": "HFS",
    "PercentPhaseFOV": 100,
    "PhaseEncodingDirection": "j-",
    "PhaseEncodingSteps": 104,
    "PhaseResolution": 1,
    "PixelBandwidth": 2290,
    "ProcedureStepDescription": "video5_generic",
    "ProtocolName": "func_task-figures5",
    "PulseSequenceDetails": "%CustomerSeq%_cmrr_mbep2d_bold",
    "ReceiveCoilActiveElements": "HC1-7;NC1,2",
    "ReceiveCoilName": "HeadNeck_64",
    "ReconMatrixPE": 104,
    "RepetitionTime": 1.49,
    "SAR": 0.0296694,
    "ScanOptions": "FS",
    "ScanningSequence": "EP",
    "SequenceName": "epfid2d1_104",
    "SequenceVariant": "SK_SS",
    "SeriesDescription": "func_task-figures5",
    "SeriesNumber": 17,
    "ShimSetting": [
      633,
      -7245,
      -8846,
      565,
      25,
      -234,
      -157,
      -13
    ],
    "SliceThickness": 2,
    "SliceTiming": [
      0,
      0.785,
      0.1,
      0.8825,
      0.1975,
      0.98,
      0.295,
      1.08,
      0.3925,
      1.1775,
      0.49,
      1.275,
      0.59,
      1.3725,
      0.6875,
      0,
      0.785,
      0.1,
      0.8825,
      0.1975,
      0.98,
      0.295,
      1.08,
      0.3925,
      1.1775,
      0.49,
      1.275,
      0.59,
      1.3725,
      0.6875,
      0,
      0.785,
      0.1,
      0.8825,
      0.1975,
      0.98,
      0.295,
      1.08,
      0.3925,
      1.1775,
      0.49,
      1.275,
      0.59,
      1.3725,
      0.6875,
      0,
      0.785,
      0.1,
      0.8825,
      0.1975,
      0.98,
      0.295,
      1.08,
      0.3925,
      1.1775,
      0.49,
      1.275,
      0.59,
      1.3725,
      0.6875
    ],
    "SoftwareVersions": "syngo_MR_E11",
    "SpacingBetweenSlices": 2,
    "StationName": "MRC35049",
    "TaskName": "figures05",
    "TotalReadoutTime": 0.0576811,
    "TxRefAmp": 220.342,
    "dataset": "<unset>",
    "dcmmeta_affine": [
      [
        -1.9995251893997192,
        -0.036298323422670364,
        -0.024114731699228287,
        107.220458984375
      ],
      [
        -0.025845756754279137,
        1.8788427114486694,
        -0.6850417852401733,
        -68.3341293334961
      ],
      [
        -0.03508682921528816,
        0.6845675110816956,
        1.8788657188415527,
        -70.3053207397461
      ],
      [
        0.0,
        0.0,
        0.0,
        1.0
      ]
    ],
    "dcmmeta_reorient_transform": [
      [
        0.0,
        -1.0,
        0.0,
        103.0
      ],
      [
        1.0,
        0.0,
        0.0,
        0.0
      ],
      [
        0.0,
        0.0,
        1.0,
        0.0
      ],
      [
        0.0,
        0.0,
        0.0,
        1.0
      ]
    ],
    "dcmmeta_shape": [
      104,
      104,
      60,
      408
    ],
    "dcmmeta_slice_dim": 2,
    "dcmmeta_version": 0.6,
    "global": {
      "const": {
        "AcquisitionMatrix": [
          104,
          0,
          0,
          104
        ],
        "AngioFlag": "N",
        "BitsAllocated": 16,
        "BitsStored": 16,
        "BodyPartExamined": "BRAIN",
        "Columns": 832,
        "EchoNumbers": 1,
        "EchoTime": 37.0,
        "EchoTrainLength": 104,
        "FlipAngle": 52.0,
        "HighBit": 15,
        "ImageOrientationPatient": [
          0.99976258573788,
          0.01292287853061,
          -0.0175434138408,
          -0.0181491622514,
          0.93942133043483,
          -0.3422837592315
        ],
        "ImagePositionPatient": [
          -818.09630473637,
          -818.49324799389,
          262.15931575371
        ],
        "ImageType": [
          "ORIGINAL",
          "PRIMARY",
          "M",
          "MB",
          "ND",
          "MOSAIC"
        ],
        "ImagedNucleus": "1H",
        "ImagingFrequency": 123.259535,
        "InPlanePhaseEncodingDirection": "COL",
        "MRAcquisitionType": "2D",
        "MagneticFieldStrength": 3.0,
        "Manufacturer": "SIEMENS",
        "ManufacturerModelName": "Prisma_fit",
        "Modality": "MR",
        "NumberOfAverages": 1.0,
        "NumberOfPhaseEncodingSteps": 104,
        "PercentPhaseFieldOfView": 100.0,
        "PercentSampling": 100.0,
        "PerformedProcedureStepStartTime": "145101.586000",
        "PhotometricInterpretation": "MONOCHROME2",
        "PixelBandwidth": 2290.0,
        "PixelRepresentation": 0,
        "PixelSpacing": [
          2.0,
          2.0
        ],
        "ProtocolName": "func_task-figures5",
        "RepetitionTime": 1490.0,
        "Rows": 832,
        "SAR": 0.02966940864634,
        "SamplesPerPixel": 1,
        "ScanOptions": "FS",
        "ScanningSequence": "EP",
        "SequenceName": "epfid2d1_104",
        "SequenceVariant": [
          "SK",
          "SS"
        ],
        "SeriesDescription": "func_task-figures5",
        "SeriesNumber": 17,
        "SeriesTime": "154617.962000",
        "SliceLocation": -43.934055787434,
        "SliceThickness": 2.0,
        "SmallestImagePixelValue": 0,
        "SoftwareVersions": "syngo MR E11",
        "SpacingBetweenSlices": 2.0000000309308,
        "SpecificCharacterSet": "ISO_IR 100",
        "StudyID": "1",
        "StudyTime": "145101.491000",
        "TransmitCoilName": "Body",
        "VariableFlipAngleFlag": "N",
        "WindowCenterWidthExplanation": "Algo1",
        "dBdt": 0.0
      },
      "slices": {}
    },
    "modality": "bold",
    "run_id": 1,
    "session_id": "002",
    "subject_id": "06",
    "task_id": "figures05",
    "time": {
      "samples": {
        "AcquisitionNumber": [
          1,
          2,
          3,
          4,
          5,
          6,
          7,
          8,
          9,
          10,
          11,
          12,
          13,
          14,
          15,
          16,
          17,
          18,
          19,
          20,
          21,
          22,
          23,
          24,
          25,
          26,
          27,
          28,
          29,
          30,
          31,
          32,
          33,
          34,
          35,
          36,
          37,
          38,
          39,
          40,
          41,
          42,
          43,
          44,
          45,
          46,
          47,
          48,
          49,
          50,
          51,
          52,
          53,
          54,
          55,
          56,
          57,
          58,
          59,
          60,
          61,
          62,
          63,
          64,
          65,
          66,
          67,
          68,
          69,
          70,
          71,
          72,
          73,
          74,
          75,
          76,
          77,
          78,
          79,
          80,
          81,
          82,
          83,
          84,
          85,
          86,
          87,
          88,
          89,
          90,
          91,
          92,
          93,
          94,
          95,
          96,
          97,
          98,
          99,
          100,
          101,
          102,
          103,
          104,
          105,
          106,
          107,
          108,
          109,
          110,
          111,
          112,
          113,
          114,
          115,
          116,
          117,
          118,
          119,
          120,
          121,
          122,
          123,
          124,
          125,
          126,
          127,
          128,
          129,
          130,
          131,
          132,
          133,
          134,
          135,
          136,
          137,
          138,
          139,
          140,
          141,
          142,
          143,
          144,
          145,
          146,
          147,
          148,
          149,
          150,
          151,
          152,
          153,
          154,
          155,
          156,
          157,
          158,
          159,
          160,
          161,
          162,
          163,
          164,
          165,
          166,
          167,
          168,
          169,
          170,
          171,
          172,
          173,
          174,
          175,
          176,
          177,
          178,
          179,
          180,
          181,
          182,
          183,
          184,
          185,
          186,
          187,
          188,
          189,
          190,
          191,
          192,
          193,
          194,
          195,
          196,
          197,
          198,
          199,
          200,
          201,
          202,
          203,
          204,
          205,
          206,
          207,
          208,
          209,
          210,
          211,
          212,
          213,
          214,
          215,
          216,
          217,
          218,
          219,
          220,
          221,
          222,
          223,
          224,
          225,
          226,
          227,
          228,
          229,
          230,
          231,
          232,
          233,
          234,
          235,
          236,
          237,
          238,
          239,
          240,
          241,
          242,
          243,
          244,
          245,
          246,
          247,
          248,
          249,
          250,
          251,
          252,
          253,
          254,
          255,
          256,
          257,
          258,
          259,
          260,
          261,
          262,
          263,
          264,
          265,
          266,
          267,
          268,
          269,
          270,
          271,
          272,
          273,
          274,
          275,
          276,
          277,
          278,
          279,
          280,
          281,
          282,
          283,
          284,
          285,
          286,
          287,
          288,
          289,
          290,
          291,
          292,
          293,
          294,
          295,
          296,
          297,
          298,
          299,
          300,
          301,
          302,
          303,
          304,
          305,
          306,
          307,
          308,
          309,
          310,
          311,
          312,
          313,
          314,
          315,
          316,
          317,
          318,
          319,
          320,
          321,
          322,
          323,
          324,
          325,
          326,
          327,
          328,
          329,
          330,
          331,
          332,
          333,
          334,
          335,
          336,
          337,
          338,
          339,
          340,
          341,
          342,
          343,
          344,
          345,
          346,
          347,
          348,
          349,
          350,
          351,
          352,
          353,
          354,
          355,
          356,
          357,
          358,
          359,
          360,
          361,
          362,
          363,
          364,
          365,
          366,
          367,
          368,
          369,
          370,
          371,
          372,
          373,
          374,
          375,
          376,
          377,
          378,
          379,
          380,
          381,
          382,
          383,
          384,
          385,
          386,
          387,
          388,
          389,
          390,
          391,
          392,
          393,
          394,
          395,
          396,
          397,
          398,
          399,
          400,
          401,
          402,
          403,
          404,
          405,
          406,
          407,
          408
        ],
        "AcquisitionTime": [
          "154447.012500",
          "154448.502500",
          "154449.992500",
          "154451.482500",
          "154452.972500",
          "154454.462500",
          "154455.952500",
          "154457.442500",
          "154458.932500",
          "154500.422500",
          "154501.912500",
          "154503.402500",
          "154504.892500",
          "154506.382500",
          "154507.872500",
          "154509.362500",
          "154510.852500",
          "154512.342500",
          "154513.832500",
          "154515.322500",
          "154516.812500",
          "154518.302500",
          "154519.792500",
          "154521.282500",
          "154522.772500",
          "154524.262500",
          "154525.752500",
          "154527.242500",
          "154528.732500",
          "154530.222500",
          "154531.712500",
          "154533.202500",
          "154534.692500",
          "154536.182500",
          "154537.672500",
          "154539.162500",
          "154540.652500",
          "154542.142500",
          "154543.632500",
          "154545.122500",
          "154546.612500",
          "154548.102500",
          "154549.592500",
          "154551.082500",
          "154552.572500",
          "154554.062500",
          "154555.552500",
          "154557.042500",
          "154558.532500",
          "154600.022500",
          "154601.512500",
          "154603.002500",
          "154604.492500",
          "154605.982500",
          "154607.472500",
          "154608.962500",
          "154610.452500",
          "154611.942500",
          "154613.432500",
          "154614.922500",
          "154616.412500",
          "154617.902500",
          "154619.392500",
          "154620.882500",
          "154622.372500",
          "154623.862500",
          "154625.352500",
          "154626.842500",
          "154628.332500",
          "154629.822500",
          "154631.312500",
          "154632.802500",
          "154634.292500",
          "154635.782500",
          "154637.272500",
          "154638.762500",
          "154640.252500",
          "154641.742500",
          "154643.232500",
          "154644.722500",
          "154646.212500",
          "154647.702500",
          "154649.192500",
          "154650.682500",
          "154652.172500",
          "154653.662500",
          "154655.152500",
          "154656.642500",
          "154658.132500",
          "154659.622500",
          "154701.112500",
          "154702.602500",
          "154704.092500",
          "154705.582500",
          "154707.072500",
          "154708.562500",
          "154710.052500",
          "154711.542500",
          "154713.032500",
          "154714.522500",
          "154716.012500",
          "154717.502500",
          "154718.992500",
          "154720.482500",
          "154721.972500",
          "154723.462500",
          "154724.952500",
          "154726.442500",
          "154727.932500",
          "154729.422500",
          "154730.912500",
          "154732.402500",
          "154733.892500",
          "154735.382500",
          "154736.872500",
          "154738.362500",
          "154739.852500",
          "154741.342500",
          "154742.832500",
          "154744.322500",
          "154745.812500",
          "154747.302500",
          "154748.792500",
          "154750.282500",
          "154751.772500",
          "154753.262500",
          "154754.752500",
          "154756.242500",
          "154757.732500",
          "154759.222500",
          "154800.712500",
          "154802.202500",
          "154803.692500",
          "154805.182500",
          "154806.672500",
          "154808.162500",
          "154809.652500",
          "154811.142500",
          "154812.632500",
          "154814.122500",
          "154815.612500",
          "154817.102500",
          "154818.592500",
          "154820.082500",
          "154821.572500",
          "154823.062500",
          "154824.552500",
          "154826.042500",
          "154827.532500",
          "154829.022500",
          "154830.512500",
          "154832.002500",
          "154833.492500",
          "154834.982500",
          "154836.472500",
          "154837.962500",
          "154839.452500",
          "154840.942500",
          "154842.432500",
          "154843.922500",
          "154845.412500",
          "154846.902500",
          "154848.392500",
          "154849.882500",
          "154851.372500",
          "154852.862500",
          "154854.352500",
          "154855.842500",
          "154857.332500",
          "154858.822500",
          "154900.312500",
          "154901.802500",
          "154903.292500",
          "154904.782500",
          "154906.272500",
          "154907.762500",
          "154909.252500",
          "154910.742500",
          "154912.232500",
          "154913.722500",
          "154915.212500",
          "154916.702500",
          "154918.192500",
          "154919.682500",
          "154921.172500",
          "154922.662500",
          "154924.152500",
          "154925.642500",
          "154927.132500",
          "154928.622500",
          "154930.112500",
          "154931.602500",
          "154933.092500",
          "154934.582500",
          "154936.072500",
          "154937.562500",
          "154939.052500",
          "154940.542500",
          "154942.032500",
          "154943.522500",
          "154945.012500",
          "154946.502500",
          "154947.992500",
          "154949.482500",
          "154950.972500",
          "154952.462500",
          "154953.952500",
          "154955.442500",
          "154956.932500",
          "154958.422500",
          "154959.912500",
          "155001.402500",
          "155002.892500",
          "155004.382500",
          "155005.872500",
          "155007.362500",
          "155008.852500",
          "155010.342500",
          "155011.832500",
          "155013.322500",
          "155014.812500",
          "155016.302500",
          "155017.792500",
          "155019.282500",
          "155020.772500",
          "155022.262500",
          "155023.752500",
          "155025.242500",
          "155026.732500",
          "155028.222500",
          "155029.712500",
          "155031.202500",
          "155032.692500",
          "155034.182500",
          "155035.672500",
          "155037.162500",
          "155038.652500",
          "155040.142500",
          "155041.632500",
          "155043.122500",
          "155044.612500",
          "155046.102500",
          "155047.592500",
          "155049.082500",
          "155050.572500",
          "155052.062500",
          "155053.552500",
          "155055.042500",
          "155056.532500",
          "155058.022500",
          "155059.512500",
          "155101.002500",
          "155102.492500",
          "155103.982500",
          "155105.472500",
          "155106.962500",
          "155108.452500",
          "155109.942500",
          "155111.432500",
          "155112.922500",
          "155114.412500",
          "155115.902500",
          "155117.392500",
          "155118.882500",
          "155120.372500",
          "155121.862500",
          "155123.352500",
          "155124.842500",
          "155126.332500",
          "155127.822500",
          "155129.312500",
          "155130.802500",
          "155132.292500",
          "155133.782500",
          "155135.272500",
          "155136.762500",
          "155138.252500",
          "155139.742500",
          "155141.232500",
          "155142.722500",
          "155144.212500",
          "155145.702500",
          "155147.192500",
          "155148.682500",
          "155150.172500",
          "155151.662500",
          "155153.152500",
          "155154.642500",
          "155156.132500",
          "155157.622500",
          "155159.112500",
          "155200.602500",
          "155202.092500",
          "155203.582500",
          "155205.072500",
          "155206.562500",
          "155208.052500",
          "155209.542500",
          "155211.032500",
          "155212.522500",
          "155214.012500",
          "155215.502500",
          "155216.992500",
          "155218.482500",
          "155219.972500",
          "155221.462500",
          "155222.952500",
          "155224.442500",
          "155225.932500",
          "155227.422500",
          "155228.912500",
          "155230.402500",
          "155231.892500",
          "155233.382500",
          "155234.872500",
          "155236.362500",
          "155237.852500",
          "155239.342500",
          "155240.832500",
          "155242.322500",
          "155243.812500",
          "155245.302500",
          "155246.792500",
          "155248.282500",
          "155249.772500",
          "155251.262500",
          "155252.752500",
          "155254.242500",
          "155255.732500",
          "155257.222500",
          "155258.712500",
          "155300.202500",
          "155301.692500",
          "155303.182500",
          "155304.672500",
          "155306.162500",
          "155307.652500",
          "155309.142500",
          "155310.632500",
          "155312.122500",
          "155313.612500",
          "155315.102500",
          "155316.592500",
          "155318.082500",
          "155319.572500",
          "155321.062500",
          "155322.552500",
          "155324.042500",
          "155325.532500",
          "155327.022500",
          "155328.512500",
          "155330.002500",
          "155331.492500",
          "155332.982500",
          "155334.472500",
          "155335.962500",
          "155337.452500",
          "155338.942500",
          "155340.432500",
          "155341.922500",
          "155343.412500",
          "155344.902500",
          "155346.392500",
          "155347.882500",
          "155349.372500",
          "155350.862500",
          "155352.352500",
          "155353.842500",
          "155355.332500",
          "155356.822500",
          "155358.312500",
          "155359.802500",
          "155401.292500",
          "155402.782500",
          "155404.272500",
          "155405.762500",
          "155407.252500",
          "155408.742500",
          "155410.232500",
          "155411.722500",
          "155413.212500",
          "155414.702500",
          "155416.192500",
          "155417.682500",
          "155419.172500",
          "155420.662500",
          "155422.152500",
          "155423.642500",
          "155425.132500",
          "155426.622500",
          "155428.112500",
          "155429.602500",
          "155431.092500",
          "155432.582500",
          "155434.072500",
          "155435.562500",
          "155437.052500",
          "155438.542500",
          "155440.032500",
          "155441.522500",
          "155443.012500",
          "155444.502500",
          "155445.992500",
          "155447.482500",
          "155448.972500",
          "155450.462500",
          "155451.952500",
          "155453.442500"
        ],
        "ContentTime": [
          "154617.965000",
          "154617.968000",
          "154617.971000",
          "154617.974000",
          "154617.977000",
          "154617.980000",
          "154618.000000",
          "154618.003000",
          "154618.006000",
          "154618.009000",
          "154618.012000",
          "154618.015000",
          "154618.018000",
          "154618.021000",
          "154618.024000",
          "154618.026000",
          "154618.029000",
          "154618.032000",
          "154618.035000",
          "154618.038000",
          "154618.041000",
          "154618.044000",
          "154618.047000",
          "154618.049000",
          "154618.052000",
          "154618.055000",
          "154618.058000",
          "154618.061000",
          "154618.064000",
          "154618.067000",
          "154618.070000",
          "154618.075000",
          "154618.078000",
          "154618.081000",
          "154618.084000",
          "154618.087000",
          "154637.937000",
          "154637.940000",
          "154637.943000",
          "154637.947000",
          "154637.950000",
          "154637.953000",
          "154637.956000",
          "154637.959000",
          "154637.962000",
          "154637.965000",
          "154637.968000",
          "154637.971000",
          "154637.974000",
          "154637.977000",
          "154637.980000",
          "154637.983000",
          "154637.993000",
          "154637.995000",
          "154637.998000",
          "154638.002000",
          "154657.937000",
          "154657.940000",
          "154657.943000",
          "154657.946000",
          "154657.949000",
          "154657.952000",
          "154657.955000",
          "154657.957000",
          "154657.960000",
          "154657.963000",
          "154657.966000",
          "154657.969000",
          "154657.972000",
          "154657.975000",
          "154657.978000",
          "154657.981000",
          "154657.984000",
          "154657.987000",
          "154657.990000",
          "154657.992000",
          "154717.937000",
          "154717.940000",
          "154717.943000",
          "154717.946000",
          "154717.949000",
          "154717.952000",
          "154717.955000",
          "154717.957000",
          "154717.960000",
          "154717.963000",
          "154717.966000",
          "154717.969000",
          "154717.972000",
          "154717.975000",
          "154717.993000",
          "154717.996000",
          "154718.000000",
          "154718.003000",
          "154718.006000",
          "154718.009000",
          "154757.937000",
          "154757.940000",
          "154757.943000",
          "154757.946000",
          "154757.949000",
          "154757.951000",
          "154757.954000",
          "154757.957000",
          "154757.960000",
          "154757.963000",
          "154757.966000",
          "154757.969000",
          "154757.972000",
          "154757.975000",
          "154757.978000",
          "154757.980000",
          "154757.983000",
          "154757.986000",
          "154757.989000",
          "154757.992000",
          "154757.995000",
          "154757.998000",
          "154758.002000",
          "154758.005000",
          "154758.008000",
          "154758.011000",
          "154758.013000",
          "154758.023000",
          "154758.026000",
          "154758.029000",
          "154758.031000",
          "154837.937000",
          "154837.940000",
          "154837.943000",
          "154837.946000",
          "154837.949000",
          "154837.952000",
          "154837.956000",
          "154837.959000",
          "154837.962000",
          "154837.965000",
          "154837.968000",
          "154837.971000",
          "154837.973000",
          "154837.976000",
          "154837.979000",
          "154837.982000",
          "154837.985000",
          "154837.988000",
          "154837.991000",
          "154837.994000",
          "154837.997000",
          "154838.000000",
          "154838.003000",
          "154838.005000",
          "154838.008000",
          "154838.011000",
          "154838.014000",
          "154917.937000",
          "154917.940000",
          "154917.943000",
          "154917.946000",
          "154917.949000",
          "154917.952000",
          "154917.955000",
          "154917.958000",
          "154917.960000",
          "154917.963000",
          "154917.966000",
          "154917.969000",
          "154917.972000",
          "154917.975000",
          "154917.978000",
          "154917.981000",
          "154917.984000",
          "154917.987000",
          "154917.990000",
          "154917.993000",
          "154917.995000",
          "154917.998000",
          "154918.002000",
          "154918.005000",
          "154918.008000",
          "154918.011000",
          "154918.014000",
          "154957.938000",
          "154957.941000",
          "154957.944000",
          "154957.947000",
          "154957.950000",
          "154957.953000",
          "154957.956000",
          "154957.959000",
          "154957.962000",
          "154957.964000",
          "154957.967000",
          "154957.970000",
          "154957.973000",
          "154957.976000",
          "154957.979000",
          "154957.982000",
          "154957.985000",
          "154957.988000",
          "154957.991000",
          "154957.994000",
          "154957.997000",
          "154958.001000",
          "154958.004000",
          "154958.006000",
          "154958.009000",
          "154958.012000",
          "154958.015000",
          "155037.937000",
          "155037.940000",
          "155037.943000",
          "155037.950000",
          "155037.953000",
          "155037.956000",
          "155037.959000",
          "155037.962000",
          "155037.964000",
          "155037.967000",
          "155037.970000",
          "155037.973000",
