{
  "aor": 0.00029641277641277643,
  "aqi": 0.007330078796068796,
  "bids_meta": {
    "AcquisitionMatrixPE": 104,
    "AcquisitionNumber": 1,
    "AcquisitionTime": "15:02:6.450000",
    "BandwidthPerPixelPhaseEncode": 17.17,
    "BaseResolution": 104,
    "BodyPartExamined": "BRAIN",
    "CogAtlasID": "trm_4c898da401420",
    "ConsistencyInfo": "N4_VE11C_LATEST_20160120",
    "ConversionSoftware": "dcm2niix",
    "ConversionSoftwareVersion": "v1.0.20171215 (OpenJPEG build) GCC7.3.0",
    "DerivedVendorReportedEchoSpacing": 0.000560011,
    "DeviceSerialNumber": "167006",
    "DwellTime": 2.1e-06,
    "EchoTime": 0.037,
    "EchoTrainLength": 104,
    "EffectiveEchoSpacing": 0.000560011,
    "FlipAngle": 52,
    "ImageComments": "Unaliased_MB4_PE3_LB",
    "ImageOrientationPatientDICOM": [
      0.999763,
      0.0129229,
      -0.0175434,
      -0.0181492,
      0.939421,
      -0.342284
    ],
    "ImageType": [
      "ORIGINAL",
      "PRIMARY",
      "M",
      "MB",
      "ND",
      "MOSAIC"
    ],
    "InPlanePhaseEncodingDirectionDICOM": "COL",
    "InstitutionAddress": "Chemin_Queen-Mary_4565_Montreal_District_CA_H3W_1W5",
    "InstitutionName": "IUGM",
    "InstitutionalDepartmentName": "Department",
    "MRAcquisitionType": "2D",
    "MagneticFieldStrength": 3,
    "Manufacturer": "Siemens",
    "ManufacturersModelName": "Prisma_fit",
    "Modality": "MR",
    "MultibandAccelerationFactor": 4,
    "PartialFourier": 1,
    "PatientPosition": "HFS",
    "PercentPhaseFOV": 100,
    "PhaseEncodingDirection": "j-",
    "PhaseEncodingSteps": 104,
    "PhaseResolution": 1,
    "PixelBandwidth": 2290,
    "ProcedureStepDescription": "video5_generic",
    "ProtocolName": "func_task-figures1",
    "PulseSequenceDetails": "%CustomerSeq%_cmrr_mbep2d_bold",
    "ReceiveCoilActiveElements": "HC1-7;NC1,2",
    "ReceiveCoilName": "HeadNeck_64",
    "ReconMatrixPE": 104,
    "RepetitionTime": 1.49,
    "SAR": 0.0296701,
    "ScanOptions": "FS",
    "ScanningSequence": "EP",
    "SequenceName": "epfid2d1_104",
    "SequenceVariant": "SK_SS",
    "SeriesDescription": "func_task-figures1",
    "SeriesNumber": 9,
    "ShimSetting": [
      633,
      -7245,
      -8846,
      565,
      25,
      -234,
      -157,
      -13
    ],
    "SliceThickness": 2,
    "SliceTiming": [
      0,
      0.7825,
      0.0975,
      0.8825,
      0.195,
      0.98,
      0.295,
      1.0775,
      0.3925,
      1.175,
      0.49,
      1.2725,
      0.5875,
      1.3725,
      0.685,
      0,
      0.7825,
      0.0975,
      0.8825,
      0.195,
      0.98,
      0.295,
      1.0775,
      0.3925,
      1.175,
      0.49,
      1.2725,
      0.5875,
      1.3725,
      0.685,
      0,
      0.7825,
      0.0975,
      0.8825,
      0.195,
      0.98,
      0.295,
      1.0775,
      0.3925,
      1.175,
      0.49,
      1.2725,
      0.5875,
      1.3725,
      0.685,
      0,
      0.7825,
      0.0975,
      0.8825,
      0.195,
      0.98,
      0.295,
      1.0775,
      0.3925,
      1.175,
      0.49,
      1.2725,
      0.5875,
      1.3725,
      0.685
    ],
    "SoftwareVersions": "syngo_MR_E11",
    "SpacingBetweenSlices": 2,
    "StationName": "MRC35049",
    "TaskName": "figures01",
    "TotalReadoutTime": 0.0576811,
    "TxRefAmp": 220.342,
    "dataset": "<unset>",
    "dcmmeta_affine": [
      [
        -1.9995251893997192,
        -0.036298323422670364,
        -0.024114731699228287,
        107.220458984375
      ],
      [
        -0.025845756754279137,
        1.8788427114486694,
        -0.6850417852401733,
        -68.3341293334961
      ],
      [
        -0.03508682921528816,
        0.6845675110816956,
        1.8788657188415527,
        -70.3053207397461
      ],
      [
        0.0,
        0.0,
        0.0,
        1.0
      ]
    ],
    "dcmmeta_reorient_transform": [
      [
        0.0,
        -1.0,
        0.0,
        103.0
      ],
      [
        1.0,
        0.0,
        0.0,
        0.0
      ],
      [
        0.0,
        0.0,
        1.0,
        0.0
      ],
      [
        0.0,
        0.0,
        0.0,
        1.0
      ]
    ],
    "dcmmeta_shape": [
      104,
      104,
      60,
      410
    ],
    "dcmmeta_slice_dim": 2,
    "dcmmeta_version": 0.6,
    "global": {
      "const": {
        "AcquisitionMatrix": [
          104,
          0,
          0,
          104
        ],
        "AngioFlag": "N",
        "BitsAllocated": 16,
        "BitsStored": 16,
        "BodyPartExamined": "BRAIN",
        "Columns": 832,
        "EchoNumbers": 1,
        "EchoTime": 37.0,
        "EchoTrainLength": 104,
        "FlipAngle": 52.0,
        "HighBit": 15,
        "ImageOrientationPatient": [
          0.99976258573788,
          0.01292287853061,
          -0.0175434138408,
          -0.0181491622514,
          0.93942133043483,
          -0.3422837592315
        ],
        "ImagePositionPatient": [
          -818.09630473637,
          -818.49324799389,
          262.15931575371
        ],
        "ImageType": [
          "ORIGINAL",
          "PRIMARY",
          "M",
          "MB",
          "ND",
          "MOSAIC"
        ],
        "ImagedNucleus": "1H",
        "ImagingFrequency": 123.259517,
        "InPlanePhaseEncodingDirection": "COL",
        "MRAcquisitionType": "2D",
        "MagneticFieldStrength": 3.0,
        "Manufacturer": "SIEMENS",
        "ManufacturerModelName": "Prisma_fit",
        "Modality": "MR",
        "NumberOfAverages": 1.0,
        "NumberOfPhaseEncodingSteps": 104,
        "PercentPhaseFieldOfView": 100.0,
        "PercentSampling": 100.0,
        "PerformedProcedureStepStartTime": "145101.586000",
        "PhotometricInterpretation": "MONOCHROME2",
        "PixelBandwidth": 2290.0,
        "PixelRepresentation": 0,
        "PixelSpacing": [
          2.0,
          2.0
        ],
        "ProtocolName": "func_task-figures1",
        "RepetitionTime": 1490.0,
        "Rows": 832,
        "SAR": 0.02967010711747,
        "SamplesPerPixel": 1,
        "ScanOptions": "FS",
        "ScanningSequence": "EP",
        "SequenceName": "epfid2d1_104",
        "SequenceVariant": [
          "SK",
          "SS"
        ],
        "SeriesDescription": "func_task-figures1",
        "SeriesNumber": 9,
        "SeriesTime": "150326.734000",
        "SliceLocation": -43.934055787434,
        "SliceThickness": 2.0,
        "SmallestImagePixelValue": 0,
        "SoftwareVersions": "syngo MR E11",
        "SpacingBetweenSlices": 2.0000000309308,
        "SpecificCharacterSet": "ISO_IR 100",
        "StudyID": "1",
        "StudyTime": "145101.491000",
        "TransmitCoilName": "Body",
        "VariableFlipAngleFlag": "N",
        "WindowCenterWidthExplanation": "Algo1",
        "dBdt": 0.0
      },
      "slices": {}
    },
    "modality": "bold",
    "run_id": 1,
    "session_id": "002",
    "subject_id": "06",
    "task_id": "figures01",
    "time": {
      "samples": {
        "AcquisitionNumber": [
          1,
          2,
          3,
          4,
          5,
          6,
          7,
          8,
          9,
          10,
          11,
          12,
          13,
          14,
          15,
          16,
          17,
          18,
          19,
          20,
          21,
          22,
          23,
          24,
          25,
          26,
          27,
          28,
          29,
          30,
          31,
          32,
          33,
          34,
          35,
          36,
          37,
          38,
          39,
          40,
          41,
          42,
          43,
          44,
          45,
          46,
          47,
          48,
          49,
          50,
          51,
          52,
          53,
          54,
          55,
          56,
          57,
          58,
          59,
          60,
          61,
          62,
          63,
          64,
          65,
          66,
          67,
          68,
          69,
          70,
          71,
          72,
          73,
          74,
          75,
          76,
          77,
          78,
          79,
          80,
          81,
          82,
          83,
          84,
          85,
          86,
          87,
          88,
          89,
          90,
          91,
          92,
          93,
          94,
          95,
          96,
          97,
          98,
          99,
          100,
          101,
          102,
          103,
          104,
          105,
          106,
          107,
          108,
          109,
          110,
          111,
          112,
          113,
          114,
          115,
          116,
          117,
          118,
          119,
          120,
          121,
          122,
          123,
          124,
          125,
          126,
          127,
          128,
          129,
          130,
          131,
          132,
          133,
          134,
          135,
          136,
          137,
          138,
          139,
          140,
          141,
          142,
          143,
          144,
          145,
          146,
          147,
          148,
          149,
          150,
          151,
          152,
          153,
          154,
          155,
          156,
          157,
          158,
          159,
          160,
          161,
          162,
          163,
          164,
          165,
          166,
          167,
          168,
          169,
          170,
          171,
          172,
          173,
          174,
          175,
          176,
          177,
          178,
          179,
          180,
          181,
          182,
          183,
          184,
          185,
          186,
          187,
          188,
          189,
          190,
          191,
          192,
          193,
          194,
          195,
          196,
          197,
          198,
          199,
          200,
          201,
          202,
          203,
          204,
          205,
          206,
          207,
          208,
          209,
          210,
          211,
          212,
          213,
          214,
          215,
          216,
          217,
          218,
          219,
          220,
          221,
          222,
          223,
          224,
          225,
          226,
          227,
          228,
          229,
          230,
          231,
          232,
          233,
          234,
          235,
          236,
          237,
          238,
          239,
          240,
          241,
          242,
          243,
          244,
          245,
          246,
          247,
          248,
          249,
          250,
          251,
          252,
          253,
          254,
          255,
          256,
          257,
          258,
          259,
          260,
          261,
          262,
          263,
          264,
          265,
          266,
          267,
          268,
          269,
          270,
          271,
          272,
          273,
          274,
          275,
          276,
          277,
          278,
          279,
          280,
          281,
          282,
          283,
          284,
          285,
          286,
          287,
          288,
          289,
          290,
          291,
          292,
          293,
          294,
          295,
          296,
          297,
          298,
          299,
          300,
          301,
          302,
          303,
          304,
          305,
          306,
          307,
          308,
          309,
          310,
          311,
          312,
          313,
          314,
          315,
          316,
          317,
          318,
          319,
          320,
          321,
          322,
          323,
          324,
          325,
          326,
          327,
          328,
          329,
          330,
          331,
          332,
          333,
          334,
          335,
          336,
          337,
          338,
          339,
          340,
          341,
          342,
          343,
          344,
          345,
          346,
          347,
          348,
          349,
          350,
          351,
          352,
          353,
          354,
          355,
          356,
          357,
          358,
          359,
          360,
          361,
          362,
          363,
          364,
          365,
          366,
          367,
          368,
          369,
          370,
          371,
          372,
          373,
          374,
          375,
          376,
          377,
          378,
          379,
          380,
          381,
          382,
          383,
          384,
          385,
          386,
          387,
          388,
          389,
          390,
          391,
          392,
          393,
          394,
          395,
          396,
          397,
          398,
          399,
          400,
          401,
          402,
          403,
          404,
          405,
          406,
          407,
          408,
          409,
          410
        ],
        "AcquisitionTime": [
          "150206.450000",
          "150207.940000",
          "150209.430000",
          "150210.920000",
          "150212.410000",
          "150213.900000",
          "150215.390000",
          "150216.880000",
          "150218.370000",
          "150219.860000",
          "150221.350000",
          "150222.840000",
          "150224.330000",
          "150225.820000",
          "150227.310000",
          "150228.800000",
          "150230.290000",
          "150231.780000",
          "150233.270000",
          "150234.760000",
          "150236.250000",
          "150237.740000",
          "150239.230000",
          "150240.720000",
          "150242.210000",
          "150243.700000",
          "150245.190000",
          "150246.680000",
          "150248.170000",
          "150249.660000",
          "150251.150000",
          "150252.640000",
          "150254.130000",
          "150255.620000",
          "150257.110000",
          "150258.600000",
          "150300.090000",
          "150301.580000",
          "150303.070000",
          "150304.560000",
          "150306.050000",
          "150307.540000",
          "150309.030000",
          "150310.520000",
          "150312.010000",
          "150313.500000",
          "150314.990000",
          "150316.480000",
          "150317.970000",
          "150319.460000",
          "150320.950000",
          "150322.440000",
          "150323.930000",
          "150325.420000",
          "150326.910000",
          "150328.400000",
          "150329.890000",
          "150331.380000",
          "150332.870000",
          "150334.360000",
          "150335.850000",
          "150337.340000",
          "150338.830000",
          "150340.320000",
          "150341.810000",
          "150343.300000",
          "150344.790000",
          "150346.280000",
          "150347.770000",
          "150349.260000",
          "150350.750000",
          "150352.240000",
          "150353.730000",
          "150355.220000",
          "150356.710000",
          "150358.200000",
          "150359.690000",
          "150401.180000",
          "150402.670000",
          "150404.160000",
          "150405.650000",
          "150407.140000",
          "150408.630000",
          "150410.120000",
          "150411.610000",
          "150413.100000",
          "150414.590000",
          "150416.080000",
          "150417.570000",
          "150419.060000",
          "150420.550000",
          "150422.040000",
          "150423.530000",
          "150425.020000",
          "150426.510000",
          "150428.000000",
          "150429.490000",
          "150430.980000",
          "150432.470000",
          "150433.960000",
          "150435.450000",
          "150436.940000",
          "150438.430000",
          "150439.920000",
          "150441.410000",
          "150442.900000",
          "150444.390000",
          "150445.880000",
          "150447.370000",
          "150448.860000",
          "150450.350000",
          "150451.840000",
          "150453.330000",
          "150454.820000",
          "150456.310000",
          "150457.800000",
          "150459.290000",
          "150500.780000",
          "150502.270000",
          "150503.760000",
          "150505.250000",
          "150506.740000",
          "150508.230000",
          "150509.720000",
          "150511.210000",
          "150512.700000",
          "150514.190000",
          "150515.680000",
          "150517.170000",
          "150518.660000",
          "150520.150000",
          "150521.640000",
          "150523.130000",
          "150524.620000",
          "150526.110000",
          "150527.600000",
          "150529.090000",
          "150530.580000",
          "150532.070000",
          "150533.560000",
          "150535.050000",
          "150536.540000",
          "150538.030000",
          "150539.520000",
          "150541.010000",
          "150542.500000",
          "150543.990000",
          "150545.480000",
          "150546.970000",
          "150548.460000",
          "150549.950000",
          "150551.440000",
          "150552.930000",
          "150554.420000",
          "150555.910000",
          "150557.400000",
          "150558.890000",
          "150600.380000",
          "150601.870000",
          "150603.360000",
          "150604.850000",
          "150606.340000",
          "150607.830000",
          "150609.320000",
          "150610.810000",
          "150612.300000",
          "150613.790000",
          "150615.280000",
          "150616.770000",
          "150618.260000",
          "150619.750000",
          "150621.240000",
          "150622.730000",
          "150624.220000",
          "150625.710000",
          "150627.200000",
          "150628.690000",
          "150630.180000",
          "150631.670000",
          "150633.160000",
          "150634.650000",
          "150636.140000",
          "150637.630000",
          "150639.120000",
          "150640.610000",
          "150642.100000",
          "150643.590000",
          "150645.080000",
          "150646.570000",
          "150648.060000",
          "150649.550000",
          "150651.040000",
          "150652.530000",
          "150654.020000",
          "150655.510000",
          "150657.000000",
          "150658.490000",
          "150659.980000",
          "150701.470000",
          "150702.960000",
          "150704.450000",
          "150705.940000",
          "150707.430000",
          "150708.920000",
          "150710.410000",
          "150711.900000",
          "150713.390000",
          "150714.880000",
          "150716.370000",
          "150717.860000",
          "150719.350000",
          "150720.840000",
          "150722.330000",
          "150723.820000",
          "150725.310000",
          "150726.800000",
          "150728.290000",
          "150729.780000",
          "150731.270000",
          "150732.760000",
          "150734.250000",
          "150735.740000",
          "150737.230000",
          "150738.720000",
          "150740.210000",
          "150741.700000",
          "150743.190000",
          "150744.680000",
          "150746.170000",
          "150747.660000",
          "150749.150000",
          "150750.640000",
          "150752.130000",
          "150753.620000",
          "150755.110000",
          "150756.600000",
          "150758.090000",
          "150759.580000",
          "150801.070000",
          "150802.560000",
          "150804.050000",
          "150805.540000",
          "150807.030000",
          "150808.520000",
          "150810.010000",
          "150811.500000",
          "150812.990000",
          "150814.480000",
          "150815.970000",
          "150817.460000",
          "150818.950000",
          "150820.440000",
          "150821.930000",
          "150823.420000",
          "150824.910000",
          "150826.400000",
          "150827.890000",
          "150829.380000",
          "150830.870000",
          "150832.360000",
          "150833.850000",
          "150835.340000",
          "150836.830000",
          "150838.320000",
          "150839.810000",
          "150841.300000",
          "150842.790000",
          "150844.280000",
          "150845.770000",
          "150847.260000",
          "150848.750000",
          "150850.240000",
          "150851.730000",
          "150853.220000",
          "150854.710000",
          "150856.200000",
          "150857.690000",
          "150859.180000",
          "150900.670000",
          "150902.160000",
          "150903.650000",
          "150905.140000",
          "150906.630000",
          "150908.120000",
          "150909.610000",
          "150911.100000",
          "150912.590000",
          "150914.080000",
          "150915.570000",
          "150917.060000",
          "150918.550000",
          "150920.040000",
          "150921.530000",
          "150923.020000",
          "150924.510000",
          "150926.000000",
          "150927.490000",
          "150928.980000",
          "150930.470000",
          "150931.960000",
          "150933.450000",
          "150934.940000",
          "150936.430000",
          "150937.920000",
          "150939.410000",
          "150940.900000",
          "150942.390000",
          "150943.880000",
          "150945.370000",
          "150946.860000",
          "150948.350000",
          "150949.840000",
          "150951.330000",
          "150952.820000",
          "150954.310000",
          "150955.800000",
          "150957.290000",
          "150958.780000",
          "151000.270000",
          "151001.760000",
          "151003.250000",
          "151004.740000",
          "151006.230000",
          "151007.720000",
          "151009.210000",
          "151010.700000",
          "151012.190000",
          "151013.680000",
          "151015.170000",
          "151016.660000",
          "151018.150000",
          "151019.640000",
          "151021.130000",
          "151022.620000",
          "151024.110000",
          "151025.600000",
          "151027.090000",
          "151028.580000",
          "151030.070000",
          "151031.560000",
          "151033.050000",
          "151034.540000",
          "151036.030000",
          "151037.520000",
          "151039.010000",
          "151040.500000",
          "151041.990000",
          "151043.480000",
          "151044.970000",
          "151046.460000",
          "151047.950000",
          "151049.440000",
          "151050.930000",
          "151052.420000",
          "151053.910000",
          "151055.400000",
          "151056.890000",
          "151058.380000",
          "151059.870000",
          "151101.360000",
          "151102.850000",
          "151104.340000",
          "151105.830000",
          "151107.320000",
          "151108.810000",
          "151110.300000",
          "151111.790000",
          "151113.280000",
          "151114.770000",
          "151116.260000",
          "151117.750000",
          "151119.240000",
          "151120.730000",
          "151122.220000",
          "151123.710000",
          "151125.200000",
          "151126.690000",
          "151128.180000",
          "151129.670000",
          "151131.160000",
          "151132.650000",
          "151134.140000",
          "151135.630000",
          "151137.120000",
          "151138.610000",
          "151140.100000",
          "151141.590000",
          "151143.080000",
          "151144.570000",
          "151146.060000",
          "151147.550000",
          "151149.040000",
          "151150.530000",
          "151152.020000",
          "151153.510000",
          "151155.000000",
          "151156.490000",
          "151157.980000",
          "151159.470000",
          "151200.960000",
          "151202.450000",
          "151203.940000",
          "151205.430000",
          "151206.920000",
          "151208.410000",
          "151209.900000",
          "151211.390000",
          "151212.880000",
          "151214.370000",
          "151215.860000"
        ],
        "ContentTime": [
          "150326.737000",
          "150326.740000",
          "150326.743000",
          "150326.746000",
          "150326.749000",
          "150326.752000",
          "150326.755000",
          "150326.758000",
          "150326.761000",
          "150326.764000",
          "150326.766000",
          "150326.769000",
          "150326.772000",
          "150326.775000",
          "150326.778000",
          "150326.781000",
          "150326.784000",
          "150326.787000",
          "150326.800000",
          "150326.803000",
          "150326.806000",
          "150326.809000",
          "150326.811000",
          "150326.814000",
          "150326.817000",
          "150346.710000",
          "150346.713000",
          "150346.716000",
          "150346.719000",
          "150346.722000",
          "150346.725000",
          "150346.728000",
          "150346.730000",
          "150346.733000",
          "150346.736000",
          "150346.739000",
          "150346.742000",
          "150346.745000",
          "150346.748000",
          "150346.752000",
          "150346.755000",
          "150346.757000",
          "150346.760000",
          "150346.763000",
          "150346.766000",
          "150406.710000",
          "150406.713000",
          "150406.716000",
          "150406.719000",
          "150406.731000",
          "150406.734000",
          "150406.737000",
          "150406.740000",
          "150406.743000",
          "150406.746000",
          "150406.749000",
          "150406.752000",
          "150406.755000",
          "150406.758000",
          "150406.760000",
          "150406.763000",
          "150406.766000",
          "150406.769000",
          "150406.772000",
          "150406.775000",
          "150426.709000",
          "150426.712000",
          "150426.715000",
          "150426.718000",
          "150426.720000",
          "150426.723000",
          "150426.726000",
          "150426.729000",
          "150426.732000",
          "150426.735000",
          "150426.738000",
          "150426.741000",
          "150426.744000",
          "150426.747000",
          "150426.750000",
          "150426.753000",
          "150426.756000",
          "150426.759000",
          "150426.762000",
          "150426.765000",
          "150446.710000",
          "150446.713000",
          "150446.716000",
          "150446.719000",
          "150446.722000",
          "150446.725000",
          "150446.727000",
          "150446.730000",
          "150446.733000",
          "150446.736000",
          "150446.739000",
          "150446.742000",
          "150446.745000",
          "150446.748000",
          "150446.750000",
          "150446.753000",
          "150446.756000",
          "150446.759000",
          "150446.762000",
          "150446.765000",
          "150446.768000",
          "150526.710000",
          "150526.713000",
          "150526.716000",
          "150526.719000",
          "150526.722000",
          "150526.725000",
          "150526.728000",
          "150526.731000",
          "150526.734000",
          "150526.737000",
          "150526.740000",
          "150526.742000",
          "150526.745000",
          "150526.748000",
          "150526.751000",
          "150526.754000",
          "150526.757000",
          "150526.760000",
          "150526.763000",
          "150526.766000",
          "150526.769000",
          "150526.771000",
          "150526.774000",
          "150526.777000",
          "150526.780000",
          "150526.783000",
          "150526.786000",
          "150606.710000",
          "150606.713000",
          "150606.716000",
          "150606.719000",
          "150606.722000",
          "150606.725000",
          "150606.728000",
          "150606.731000",
          "150606.733000",
          "150606.736000",
          "150606.739000",
          "150606.743000",
          "150606.746000",
          "150606.749000",
          "150606.752000",
          "150606.754000",
          "150606.757000",
          "150606.760000",
          "150606.763000",
          "150606.766000",
          "150606.769000",
          "150606.772000",
          "150606.775000",
          "150606.778000",
          "150606.780000",
          "150606.783000",
          "150606.786000",
          "150646.709000",
          "150646.712000",
          "150646.715000",
          "150646.718000",
          "150646.721000",
          "150646.724000",
          "150646.727000",
          "150646.730000",
          "150646.733000",
          "150646.736000",
          "150646.739000",
          "150646.741000",
          "150646.744000",
          "150646.747000",
          "150646.750000",
          "150646.753000",
          "150646.760000",
          "150646.763000",
          "150646.766000",
          "150646.769000",
          "150646.772000",
          "150646.775000",
          "150646.778000",
          "150646.781000",
          "150646.783000",
          "150646.786000",
          "150646.789000",
          "150726.710000",
          "150726.713000",
          "150726.716000",
          "150726.719000",
          "150726.722000",
          "150726.724000",
          "150726.727000",
          "150726.730000",
          "150726.733000",
          "150726.736000",
          "150726.739000",
          "150726.742000",
          "150726.745000",
          "150726.748000",
          "150726.751000",
          "150726.754000",
          "150726.756000",
          "150726.759000",
          "150726.762000",
          "150726.765000",
          "150726.768000",
          "150726.771000",
          "150726.774000",
          "150726.777000",
          "150726.780000",
          "150726.783000",
          "150726.786000",
          "150806.710000",
          "150806.713000",
