{
  "aor": 0.00045812345679012347,
  "aqi": 0.007313189629629629,
  "bids_meta": {
    "AcquisitionMatrixPE": 104,
    "AcquisitionNumber": 1,
    "AcquisitionTime": "15:12:49.092500",
    "BandwidthPerPixelPhaseEncode": 17.17,
    "BaseResolution": 104,
    "BodyPartExamined": "BRAIN",
    "CogAtlasID": "trm_4c898da401420",
    "ConsistencyInfo": "N4_VE11C_LATEST_20160120",
    "ConversionSoftware": "dcm2niix",
    "ConversionSoftwareVersion": "v1.0.20171215 (OpenJPEG build) GCC7.3.0",
    "DerivedVendorReportedEchoSpacing": 0.000560011,
    "DeviceSerialNumber": "167006",
    "DwellTime": 2.1e-06,
    "EchoTime": 0.037,
    "EchoTrainLength": 104,
    "EffectiveEchoSpacing": 0.000560011,
    "FlipAngle": 52,
    "ImageComments": "Unaliased_MB4_PE3_LB",
    "ImageOrientationPatientDICOM": [
      0.999763,
      0.0129229,
      -0.0175434,
      -0.0181492,
      0.939421,
      -0.342284
    ],
    "ImageType": [
      "ORIGINAL",
      "PRIMARY",
      "M",
      "MB",
      "ND",
      "MOSAIC"
    ],
    "InPlanePhaseEncodingDirectionDICOM": "COL",
    "InstitutionAddress": "Chemin_Queen-Mary_4565_Montreal_District_CA_H3W_1W5",
    "InstitutionName": "IUGM",
    "InstitutionalDepartmentName": "Department",
    "MRAcquisitionType": "2D",
    "MagneticFieldStrength": 3,
    "Manufacturer": "Siemens",
    "ManufacturersModelName": "Prisma_fit",
    "Modality": "MR",
    "MultibandAccelerationFactor": 4,
    "PartialFourier": 1,
    "PatientPosition": "HFS",
    "PercentPhaseFOV": 100,
    "PhaseEncodingDirection": "j-",
    "PhaseEncodingSteps": 104,
    "PhaseResolution": 1,
    "PixelBandwidth": 2290,
    "ProcedureStepDescription": "video5_generic",
    "ProtocolName": "func_task-figures2",
    "PulseSequenceDetails": "%CustomerSeq%_cmrr_mbep2d_bold",
    "ReceiveCoilActiveElements": "HC1-7;NC1,2",
    "ReceiveCoilName": "HeadNeck_64",
    "ReconMatrixPE": 104,
    "RepetitionTime": 1.49,
    "SAR": 0.0296701,
    "ScanOptions": "FS",
    "ScanningSequence": "EP",
    "SequenceName": "epfid2d1_104",
    "SequenceVariant": "SK_SS",
    "SeriesDescription": "func_task-figures2",
    "SeriesNumber": 11,
    "ShimSetting": [
      633,
      -7245,
      -8846,
      565,
      25,
      -234,
      -157,
      -13
    ],
    "SliceThickness": 2,
    "SliceTiming": [
      0,
      0.785,
      0.0975,
      0.8825,
      0.1975,
      0.98,
      0.295,
      1.0775,
      0.3925,
      1.175,
      0.49,
      1.275,
      0.5875,
      1.3725,
      0.685,
      0,
      0.785,
      0.0975,
      0.8825,
      0.1975,
      0.98,
      0.295,
      1.0775,
      0.3925,
      1.175,
      0.49,
      1.275,
      0.5875,
      1.3725,
      0.685,
      0,
      0.785,
      0.0975,
      0.8825,
      0.1975,
      0.98,
      0.295,
      1.0775,
      0.3925,
      1.175,
      0.49,
      1.275,
      0.5875,
      1.3725,
      0.685,
      0,
      0.785,
      0.0975,
      0.8825,
      0.1975,
      0.98,
      0.295,
      1.0775,
      0.3925,
      1.175,
      0.49,
      1.275,
      0.5875,
      1.3725,
      0.685
    ],
    "SoftwareVersions": "syngo_MR_E11",
    "SpacingBetweenSlices": 2,
    "StationName": "MRC35049",
    "TaskName": "figures02",
    "TotalReadoutTime": 0.0576811,
    "TxRefAmp": 220.342,
    "dataset": "<unset>",
    "dcmmeta_affine": [
      [
        -1.9995251893997192,
        -0.036298323422670364,
        -0.024114731699228287,
        107.220458984375
      ],
      [
        -0.025845756754279137,
        1.8788427114486694,
        -0.6850417852401733,
        -68.3341293334961
      ],
      [
        -0.03508682921528816,
        0.6845675110816956,
        1.8788657188415527,
        -70.3053207397461
      ],
      [
        0.0,
        0.0,
        0.0,
        1.0
      ]
    ],
    "dcmmeta_reorient_transform": [
      [
        0.0,
        -1.0,
        0.0,
        103.0
      ],
      [
        1.0,
        0.0,
        0.0,
        0.0
      ],
      [
        0.0,
        0.0,
        1.0,
        0.0
      ],
      [
        0.0,
        0.0,
        0.0,
        1.0
      ]
    ],
    "dcmmeta_shape": [
      104,
      104,
      60,
      410
    ],
    "dcmmeta_slice_dim": 2,
    "dcmmeta_version": 0.6,
    "global": {
      "const": {
        "AcquisitionMatrix": [
          104,
          0,
          0,
          104
        ],
        "AngioFlag": "N",
        "BitsAllocated": 16,
        "BitsStored": 16,
        "BodyPartExamined": "BRAIN",
        "Columns": 832,
        "EchoNumbers": 1,
        "EchoTime": 37.0,
        "EchoTrainLength": 104,
        "FlipAngle": 52.0,
        "HighBit": 15,
        "ImageOrientationPatient": [
          0.99976258573788,
          0.01292287853061,
          -0.0175434138408,
          -0.0181491622514,
          0.93942133043483,
          -0.3422837592315
        ],
        "ImagePositionPatient": [
          -818.09630473637,
          -818.49324799389,
          262.15931575371
        ],
        "ImageType": [
          "ORIGINAL",
          "PRIMARY",
          "M",
          "MB",
          "ND",
          "MOSAIC"
        ],
        "ImagedNucleus": "1H",
        "ImagingFrequency": 123.259525,
        "InPlanePhaseEncodingDirection": "COL",
        "MRAcquisitionType": "2D",
        "MagneticFieldStrength": 3.0,
        "Manufacturer": "SIEMENS",
        "ManufacturerModelName": "Prisma_fit",
        "Modality": "MR",
        "NumberOfAverages": 1.0,
        "NumberOfPhaseEncodingSteps": 104,
        "PercentPhaseFieldOfView": 100.0,
        "PercentSampling": 100.0,
        "PerformedProcedureStepStartTime": "145101.586000",
        "PhotometricInterpretation": "MONOCHROME2",
        "PixelBandwidth": 2290.0,
        "PixelRepresentation": 0,
        "PixelSpacing": [
          2.0,
          2.0
        ],
        "ProtocolName": "func_task-figures2",
        "RepetitionTime": 1490.0,
        "Rows": 832,
        "SAR": 0.02967010711747,
        "SamplesPerPixel": 1,
        "ScanOptions": "FS",
        "ScanningSequence": "EP",
        "SequenceName": "epfid2d1_104",
        "SequenceVariant": [
          "SK",
          "SS"
        ],
        "SeriesDescription": "func_task-figures2",
        "SeriesNumber": 11,
        "SeriesTime": "151417.982000",
        "SliceLocation": -43.934055787434,
        "SliceThickness": 2.0,
        "SmallestImagePixelValue": 0,
        "SoftwareVersions": "syngo MR E11",
        "SpacingBetweenSlices": 2.0000000309308,
        "SpecificCharacterSet": "ISO_IR 100",
        "StudyID": "1",
        "StudyTime": "145101.491000",
        "TransmitCoilName": "Body",
        "VariableFlipAngleFlag": "N",
        "WindowCenterWidthExplanation": "Algo1",
        "dBdt": 0.0
      },
      "slices": {}
    },
    "modality": "bold",
    "run_id": 1,
    "session_id": "002",
    "subject_id": "06",
    "task_id": "figures02",
    "time": {
      "samples": {
        "AcquisitionNumber": [
          1,
          2,
          3,
          4,
          5,
          6,
          7,
          8,
          9,
          10,
          11,
          12,
          13,
          14,
          15,
          16,
          17,
          18,
          19,
          20,
          21,
          22,
          23,
          24,
          25,
          26,
          27,
          28,
          29,
          30,
          31,
          32,
          33,
          34,
          35,
          36,
          37,
          38,
          39,
          40,
          41,
          42,
          43,
          44,
          45,
          46,
          47,
          48,
          49,
          50,
          51,
          52,
          53,
          54,
          55,
          56,
          57,
          58,
          59,
          60,
          61,
          62,
          63,
          64,
          65,
          66,
          67,
          68,
          69,
          70,
          71,
          72,
          73,
          74,
          75,
          76,
          77,
          78,
          79,
          80,
          81,
          82,
          83,
          84,
          85,
          86,
          87,
          88,
          89,
          90,
          91,
          92,
          93,
          94,
          95,
          96,
          97,
          98,
          99,
          100,
          101,
          102,
          103,
          104,
          105,
          106,
          107,
          108,
          109,
          110,
          111,
          112,
          113,
          114,
          115,
          116,
          117,
          118,
          119,
          120,
          121,
          122,
          123,
          124,
          125,
          126,
          127,
          128,
          129,
          130,
          131,
          132,
          133,
          134,
          135,
          136,
          137,
          138,
          139,
          140,
          141,
          142,
          143,
          144,
          145,
          146,
          147,
          148,
          149,
          150,
          151,
          152,
          153,
          154,
          155,
          156,
          157,
          158,
          159,
          160,
          161,
          162,
          163,
          164,
          165,
          166,
          167,
          168,
          169,
          170,
          171,
          172,
          173,
          174,
          175,
          176,
          177,
          178,
          179,
          180,
          181,
          182,
          183,
          184,
          185,
          186,
          187,
          188,
          189,
          190,
          191,
          192,
          193,
          194,
          195,
          196,
          197,
          198,
          199,
          200,
          201,
          202,
          203,
          204,
          205,
          206,
          207,
          208,
          209,
          210,
          211,
          212,
          213,
          214,
          215,
          216,
          217,
          218,
          219,
          220,
          221,
          222,
          223,
          224,
          225,
          226,
          227,
          228,
          229,
          230,
          231,
          232,
          233,
          234,
          235,
          236,
          237,
          238,
          239,
          240,
          241,
          242,
          243,
          244,
          245,
          246,
          247,
          248,
          249,
          250,
          251,
          252,
          253,
          254,
          255,
          256,
          257,
          258,
          259,
          260,
          261,
          262,
          263,
          264,
          265,
          266,
          267,
          268,
          269,
          270,
          271,
          272,
          273,
          274,
          275,
          276,
          277,
          278,
          279,
          280,
          281,
          282,
          283,
          284,
          285,
          286,
          287,
          288,
          289,
          290,
          291,
          292,
          293,
          294,
          295,
          296,
          297,
          298,
          299,
          300,
          301,
          302,
          303,
          304,
          305,
          306,
          307,
          308,
          309,
          310,
          311,
          312,
          313,
          314,
          315,
          316,
          317,
          318,
          319,
          320,
          321,
          322,
          323,
          324,
          325,
          326,
          327,
          328,
          329,
          330,
          331,
          332,
          333,
          334,
          335,
          336,
          337,
          338,
          339,
          340,
          341,
          342,
          343,
          344,
          345,
          346,
          347,
          348,
          349,
          350,
          351,
          352,
          353,
          354,
          355,
          356,
          357,
          358,
          359,
          360,
          361,
          362,
          363,
          364,
          365,
          366,
          367,
          368,
          369,
          370,
          371,
          372,
          373,
          374,
          375,
          376,
          377,
          378,
          379,
          380,
          381,
          382,
          383,
          384,
          385,
          386,
          387,
          388,
          389,
          390,
          391,
          392,
          393,
          394,
          395,
          396,
          397,
          398,
          399,
          400,
          401,
          402,
          403,
          404,
          405,
          406,
          407,
          408,
          409,
          410
        ],
        "AcquisitionTime": [
          "151249.092500",
          "151250.582500",
          "151252.072500",
          "151253.562500",
          "151255.052500",
          "151256.542500",
          "151258.032500",
          "151259.522500",
          "151301.012500",
          "151302.502500",
          "151303.992500",
          "151305.482500",
          "151306.972500",
          "151308.462500",
          "151309.952500",
          "151311.442500",
          "151312.932500",
          "151314.422500",
          "151315.912500",
          "151317.402500",
          "151318.892500",
          "151320.382500",
          "151321.872500",
          "151323.362500",
          "151324.852500",
          "151326.342500",
          "151327.832500",
          "151329.322500",
          "151330.812500",
          "151332.302500",
          "151333.792500",
          "151335.282500",
          "151336.772500",
          "151338.262500",
          "151339.752500",
          "151341.242500",
          "151342.732500",
          "151344.222500",
          "151345.712500",
          "151347.202500",
          "151348.692500",
          "151350.182500",
          "151351.672500",
          "151353.162500",
          "151354.652500",
          "151356.142500",
          "151357.632500",
          "151359.122500",
          "151400.612500",
          "151402.102500",
          "151403.592500",
          "151405.082500",
          "151406.572500",
          "151408.062500",
          "151409.552500",
          "151411.042500",
          "151412.532500",
          "151414.022500",
          "151415.512500",
          "151417.002500",
          "151418.492500",
          "151419.982500",
          "151421.472500",
          "151422.962500",
          "151424.452500",
          "151425.942500",
          "151427.432500",
          "151428.922500",
          "151430.412500",
          "151431.902500",
          "151433.392500",
          "151434.882500",
          "151436.372500",
          "151437.862500",
          "151439.352500",
          "151440.842500",
          "151442.332500",
          "151443.822500",
          "151445.312500",
          "151446.802500",
          "151448.292500",
          "151449.782500",
          "151451.272500",
          "151452.762500",
          "151454.252500",
          "151455.742500",
          "151457.232500",
          "151458.722500",
          "151500.212500",
          "151501.702500",
          "151503.192500",
          "151504.682500",
          "151506.172500",
          "151507.662500",
          "151509.152500",
          "151510.642500",
          "151512.132500",
          "151513.622500",
          "151515.112500",
          "151516.602500",
          "151518.092500",
          "151519.582500",
          "151521.072500",
          "151522.562500",
          "151524.052500",
          "151525.542500",
          "151527.032500",
          "151528.522500",
          "151530.012500",
          "151531.502500",
          "151532.992500",
          "151534.482500",
          "151535.972500",
          "151537.462500",
          "151538.952500",
          "151540.442500",
          "151541.932500",
          "151543.422500",
          "151544.912500",
          "151546.402500",
          "151547.892500",
          "151549.382500",
          "151550.872500",
          "151552.362500",
          "151553.852500",
          "151555.342500",
          "151556.832500",
          "151558.322500",
          "151559.812500",
          "151601.302500",
          "151602.792500",
          "151604.282500",
          "151605.772500",
          "151607.262500",
          "151608.752500",
          "151610.242500",
          "151611.732500",
          "151613.222500",
          "151614.712500",
          "151616.202500",
          "151617.692500",
          "151619.182500",
          "151620.672500",
          "151622.162500",
          "151623.652500",
          "151625.142500",
          "151626.632500",
          "151628.122500",
          "151629.612500",
          "151631.102500",
          "151632.592500",
          "151634.082500",
          "151635.572500",
          "151637.062500",
          "151638.552500",
          "151640.042500",
          "151641.532500",
          "151643.022500",
          "151644.512500",
          "151646.002500",
          "151647.492500",
          "151648.982500",
          "151650.472500",
          "151651.962500",
          "151653.452500",
          "151654.942500",
          "151656.432500",
          "151657.922500",
          "151659.412500",
          "151700.902500",
          "151702.392500",
          "151703.882500",
          "151705.372500",
          "151706.862500",
          "151708.352500",
          "151709.842500",
          "151711.332500",
          "151712.822500",
          "151714.312500",
          "151715.802500",
          "151717.292500",
          "151718.782500",
          "151720.272500",
          "151721.762500",
          "151723.252500",
          "151724.742500",
          "151726.232500",
          "151727.722500",
          "151729.212500",
          "151730.702500",
          "151732.192500",
          "151733.682500",
          "151735.172500",
          "151736.662500",
          "151738.152500",
          "151739.642500",
          "151741.132500",
          "151742.622500",
          "151744.112500",
          "151745.602500",
          "151747.092500",
          "151748.582500",
          "151750.072500",
          "151751.562500",
          "151753.052500",
          "151754.542500",
          "151756.032500",
          "151757.522500",
          "151759.012500",
          "151800.502500",
          "151801.992500",
          "151803.482500",
          "151804.972500",
          "151806.462500",
          "151807.952500",
          "151809.442500",
          "151810.932500",
          "151812.422500",
          "151813.912500",
          "151815.402500",
          "151816.892500",
          "151818.382500",
          "151819.872500",
          "151821.362500",
          "151822.852500",
          "151824.342500",
          "151825.832500",
          "151827.322500",
          "151828.812500",
          "151830.302500",
          "151831.792500",
          "151833.282500",
          "151834.772500",
          "151836.262500",
          "151837.752500",
          "151839.242500",
          "151840.732500",
          "151842.222500",
          "151843.712500",
          "151845.202500",
          "151846.692500",
          "151848.182500",
          "151849.672500",
          "151851.162500",
          "151852.652500",
          "151854.142500",
          "151855.632500",
          "151857.122500",
          "151858.612500",
          "151900.102500",
          "151901.592500",
          "151903.082500",
          "151904.572500",
          "151906.062500",
          "151907.552500",
          "151909.042500",
          "151910.532500",
          "151912.022500",
          "151913.512500",
          "151915.002500",
          "151916.492500",
          "151917.982500",
          "151919.472500",
          "151920.962500",
          "151922.452500",
          "151923.942500",
          "151925.432500",
          "151926.922500",
          "151928.412500",
          "151929.902500",
          "151931.392500",
          "151932.882500",
          "151934.372500",
          "151935.862500",
          "151937.352500",
          "151938.842500",
          "151940.332500",
          "151941.822500",
          "151943.312500",
          "151944.802500",
          "151946.292500",
          "151947.782500",
          "151949.272500",
          "151950.762500",
          "151952.252500",
          "151953.742500",
          "151955.232500",
          "151956.722500",
          "151958.212500",
          "151959.702500",
          "152001.192500",
          "152002.682500",
          "152004.172500",
          "152005.662500",
          "152007.152500",
          "152008.642500",
          "152010.132500",
          "152011.622500",
          "152013.112500",
          "152014.602500",
          "152016.092500",
          "152017.582500",
          "152019.072500",
          "152020.562500",
          "152022.052500",
          "152023.542500",
          "152025.032500",
          "152026.522500",
          "152028.012500",
          "152029.502500",
          "152030.992500",
          "152032.482500",
          "152033.972500",
          "152035.462500",
          "152036.952500",
          "152038.442500",
          "152039.932500",
          "152041.422500",
          "152042.912500",
          "152044.402500",
          "152045.892500",
          "152047.382500",
          "152048.872500",
          "152050.362500",
          "152051.852500",
          "152053.342500",
          "152054.832500",
          "152056.322500",
          "152057.812500",
          "152059.302500",
          "152100.792500",
          "152102.282500",
          "152103.772500",
          "152105.262500",
          "152106.752500",
          "152108.242500",
          "152109.732500",
          "152111.222500",
          "152112.712500",
          "152114.202500",
          "152115.692500",
          "152117.182500",
          "152118.672500",
          "152120.162500",
          "152121.652500",
          "152123.142500",
          "152124.632500",
          "152126.122500",
          "152127.612500",
          "152129.102500",
          "152130.592500",
          "152132.082500",
          "152133.572500",
          "152135.062500",
          "152136.552500",
          "152138.042500",
          "152139.532500",
          "152141.022500",
          "152142.512500",
          "152144.002500",
          "152145.492500",
          "152146.982500",
          "152148.472500",
          "152149.962500",
          "152151.452500",
          "152152.942500",
          "152154.432500",
          "152155.922500",
          "152157.412500",
          "152158.902500",
          "152200.392500",
          "152201.882500",
          "152203.372500",
          "152204.862500",
          "152206.352500",
          "152207.842500",
          "152209.332500",
          "152210.822500",
          "152212.312500",
          "152213.802500",
          "152215.292500",
          "152216.782500",
          "152218.272500",
          "152219.762500",
          "152221.252500",
          "152222.742500",
          "152224.232500",
          "152225.722500",
          "152227.212500",
          "152228.702500",
          "152230.192500",
          "152231.682500",
          "152233.172500",
          "152234.662500",
          "152236.152500",
          "152237.642500",
          "152239.132500",
          "152240.622500",
          "152242.112500",
          "152243.602500",
          "152245.092500",
          "152246.582500",
          "152248.072500",
          "152249.562500",
          "152251.052500",
          "152252.542500",
          "152254.032500",
          "152255.522500",
          "152257.012500",
          "152258.502500"
        ],
        "ContentTime": [
          "151417.985000",
          "151417.988000",
          "151417.991000",
          "151417.994000",
          "151417.997000",
          "151418.001000",
          "151418.004000",
          "151418.007000",
          "151418.010000",
          "151418.013000",
          "151418.016000",
          "151418.019000",
          "151418.021000",
          "151418.029000",
          "151418.032000",
          "151418.035000",
          "151418.038000",
          "151418.040000",
          "151418.043000",
          "151418.046000",
          "151418.049000",
          "151418.052000",
          "151418.055000",
          "151418.058000",
          "151418.060000",
          "151418.063000",
          "151418.066000",
          "151418.069000",
          "151418.072000",
          "151418.075000",
          "151418.078000",
          "151418.081000",
          "151418.089000",
          "151437.937000",
          "151437.940000",
          "151437.943000",
          "151437.946000",
          "151437.949000",
          "151437.951000",
          "151437.954000",
          "151437.957000",
          "151437.960000",
          "151437.963000",
          "151437.966000",
          "151437.969000",
          "151437.972000",
          "151437.974000",
          "151437.977000",
          "151437.980000",
          "151437.983000",
          "151437.986000",
          "151437.989000",
          "151437.992000",
          "151457.937000",
          "151457.948000",
          "151457.951000",
          "151457.954000",
          "151457.957000",
          "151457.960000",
          "151457.963000",
          "151457.966000",
          "151457.969000",
          "151457.972000",
          "151457.975000",
          "151457.978000",
          "151457.980000",
          "151457.983000",
          "151457.986000",
          "151457.989000",
          "151457.992000",
          "151457.995000",
          "151457.998000",
          "151458.002000",
          "151517.937000",
          "151517.940000",
          "151517.943000",
          "151517.946000",
          "151517.949000",
          "151517.952000",
          "151517.954000",
          "151517.957000",
          "151517.960000",
          "151517.963000",
          "151517.966000",
          "151517.969000",
          "151517.972000",
          "151517.975000",
          "151517.981000",
          "151517.984000",
          "151517.987000",
          "151517.990000",
          "151517.994000",
          "151517.998000",
          "151557.937000",
          "151557.940000",
          "151557.943000",
          "151557.946000",
          "151557.949000",
          "151557.951000",
          "151557.954000",
          "151557.961000",
          "151557.964000",
          "151557.967000",
          "151557.970000",
          "151557.973000",
          "151557.976000",
          "151557.979000",
          "151557.982000",
          "151557.985000",
          "151557.987000",
          "151557.990000",
          "151557.993000",
          "151557.996000",
          "151558.000000",
          "151558.003000",
          "151558.006000",
          "151558.009000",
          "151558.012000",
          "151558.015000",
          "151558.017000",
          "151558.020000",
          "151558.023000",
          "151558.026000",
          "151558.029000",
          "151558.032000",
          "151558.035000",
          "151637.937000",
          "151637.940000",
          "151637.943000",
          "151637.946000",
          "151637.949000",
          "151637.952000",
          "151637.955000",
          "151637.958000",
          "151637.960000",
          "151637.963000",
          "151637.966000",
          "151637.969000",
          "151637.972000",
          "151637.975000",
          "151637.978000",
          "151637.981000",
          "151637.984000",
          "151637.986000",
          "151637.989000",
          "151637.992000",
          "151637.995000",
          "151637.998000",
          "151638.002000",
          "151638.005000",
          "151638.008000",
          "151638.011000",
          "151638.013000",
          "151657.937000",
          "151657.940000",
          "151657.943000",
          "151657.946000",
          "151657.949000",
          "151657.952000",
          "151657.955000",
          "151657.957000",
          "151657.960000",
          "151657.963000",
          "151657.966000",
          "151657.969000",
          "151657.972000",
          "151737.937000",
          "151737.940000",
          "151737.943000",
          "151737.946000",
          "151737.949000",
          "151737.952000",
          "151737.955000",
          "151737.958000",
          "151737.961000",
          "151737.963000",
          "151737.966000",
          "151737.969000",
          "151737.972000",
          "151737.975000",
          "151737.978000",
          "151737.981000",
          "151737.984000",
          "151737.987000",
          "151737.990000",
          "151737.993000",
          "151737.996000",
          "151737.998000",
          "151738.002000",
          "151738.005000",
          "151738.008000",
          "151738.011000",
          "151738.014000",
          "151817.937000",
          "151817.940000",
          "151817.943000",
          "151817.946000",
          "151817.949000",
          "151817.952000",
          "151817.954000",
          "151817.957000",
          "151817.960000",
          "151817.963000",
          "151817.966000",
          "151817.969000",
          "151817.972000",
          "151817.975000",
          "151817.978000",
          "151817.981000",
          "151817.984000",
          "151817.987000",
          "151817.989000",
          "151817.992000",
          "151817.995000",
          "151817.998000",
          "151818.002000",
