{
  "aor": 0.0008942787286063569,
  "aqi": 0.008074969486552567,
  "bids_meta": {
    "AcquisitionMatrixPE": 104,
    "AcquisitionNumber": 1,
    "AcquisitionTime": "15:23:32.842500",
    "BandwidthPerPixelPhaseEncode": 17.17,
    "BaseResolution": 104,
    "BodyPartExamined": "BRAIN",
    "CogAtlasID": "trm_4c898da401420",
    "ConsistencyInfo": "N4_VE11C_LATEST_20160120",
    "ConversionSoftware": "dcm2niix",
    "ConversionSoftwareVersion": "v1.0.20171215 (OpenJPEG build) GCC7.3.0",
    "DerivedVendorReportedEchoSpacing": 0.000560011,
    "DeviceSerialNumber": "167006",
    "DwellTime": 2.1e-06,
    "EchoTime": 0.037,
    "EchoTrainLength": 104,
    "EffectiveEchoSpacing": 0.000560011,
    "FlipAngle": 52,
    "ImageComments": "Unaliased_MB4_PE3_LB",
    "ImageOrientationPatientDICOM": [
      0.999763,
      0.0129229,
      -0.0175434,
      -0.0181492,
      0.939421,
      -0.342284
    ],
    "ImageType": [
      "ORIGINAL",
      "PRIMARY",
      "M",
      "MB",
      "ND",
      "MOSAIC"
    ],
    "InPlanePhaseEncodingDirectionDICOM": "COL",
    "InstitutionAddress": "Chemin_Queen-Mary_4565_Montreal_District_CA_H3W_1W5",
    "InstitutionName": "IUGM",
    "InstitutionalDepartmentName": "Department",
    "MRAcquisitionType": "2D",
    "MagneticFieldStrength": 3,
    "Manufacturer": "Siemens",
    "ManufacturersModelName": "Prisma_fit",
    "Modality": "MR",
    "MultibandAccelerationFactor": 4,
    "PartialFourier": 1,
    "PatientPosition": "HFS",
    "PercentPhaseFOV": 100,
    "PhaseEncodingDirection": "j-",
    "PhaseEncodingSteps": 104,
    "PhaseResolution": 1,
    "PixelBandwidth": 2290,
    "ProcedureStepDescription": "video5_generic",
    "ProtocolName": "func_task-figures3",
    "PulseSequenceDetails": "%CustomerSeq%_cmrr_mbep2d_bold",
    "ReceiveCoilActiveElements": "HC1-7;NC1,2",
    "ReceiveCoilName": "HeadNeck_64",
    "ReconMatrixPE": 104,
    "RepetitionTime": 1.49,
    "SAR": 0.0296705,
    "ScanOptions": "FS",
    "ScanningSequence": "EP",
    "SequenceName": "epfid2d1_104",
    "SequenceVariant": "SK_SS",
    "SeriesDescription": "func_task-figures3",
    "SeriesNumber": 13,
    "ShimSetting": [
      633,
      -7245,
      -8846,
      565,
      25,
      -234,
      -157,
      -13
    ],
    "SliceThickness": 2,
    "SliceTiming": [
      0,
      0.785,
      0.0975,
      0.8825,
      0.195,
      0.98,
      0.295,
      1.0775,
      0.3925,
      1.175,
      0.49,
      1.275,
      0.5875,
      1.3725,
      0.685,
      0,
      0.785,
      0.0975,
      0.8825,
      0.195,
      0.98,
      0.295,
      1.0775,
      0.3925,
      1.175,
      0.49,
      1.275,
      0.5875,
      1.3725,
      0.685,
      0,
      0.785,
      0.0975,
      0.8825,
      0.195,
      0.98,
      0.295,
      1.0775,
      0.3925,
      1.175,
      0.49,
      1.275,
      0.5875,
      1.3725,
      0.685,
      0,
      0.785,
      0.0975,
      0.8825,
      0.195,
      0.98,
      0.295,
      1.0775,
      0.3925,
      1.175,
      0.49,
      1.275,
      0.5875,
      1.3725,
      0.685
    ],
    "SoftwareVersions": "syngo_MR_E11",
    "SpacingBetweenSlices": 2,
    "StationName": "MRC35049",
    "TaskName": "figures03",
    "TotalReadoutTime": 0.0576811,
    "TxRefAmp": 220.342,
    "dataset": "<unset>",
    "dcmmeta_affine": [
      [
        -1.9995251893997192,
        -0.036298323422670364,
        -0.024114731699228287,
        107.220458984375
      ],
      [
        -0.025845756754279137,
        1.8788427114486694,
        -0.6850417852401733,
        -68.3341293334961
      ],
      [
        -0.03508682921528816,
        0.6845675110816956,
        1.8788657188415527,
        -70.3053207397461
      ],
      [
        0.0,
        0.0,
        0.0,
        1.0
      ]
    ],
    "dcmmeta_reorient_transform": [
      [
        0.0,
        -1.0,
        0.0,
        103.0
      ],
      [
        1.0,
        0.0,
        0.0,
        0.0
      ],
      [
        0.0,
        0.0,
        1.0,
        0.0
      ],
      [
        0.0,
        0.0,
        0.0,
        1.0
      ]
    ],
    "dcmmeta_shape": [
      104,
      104,
      60,
      411
    ],
    "dcmmeta_slice_dim": 2,
    "dcmmeta_version": 0.6,
    "global": {
      "const": {
        "AcquisitionMatrix": [
          104,
          0,
          0,
          104
        ],
        "AngioFlag": "N",
        "BitsAllocated": 16,
        "BitsStored": 16,
        "BodyPartExamined": "BRAIN",
        "Columns": 832,
        "EchoNumbers": 1,
        "EchoTime": 37.0,
        "EchoTrainLength": 104,
        "FlipAngle": 52.0,
        "HighBit": 15,
        "ImageOrientationPatient": [
          0.99976258573788,
          0.01292287853061,
          -0.0175434138408,
          -0.0181491622514,
          0.93942133043483,
          -0.3422837592315
        ],
        "ImagePositionPatient": [
          -818.09630473637,
          -818.49324799389,
          262.15931575371
        ],
        "ImageType": [
          "ORIGINAL",
          "PRIMARY",
          "M",
          "MB",
          "ND",
          "MOSAIC"
        ],
        "ImagedNucleus": "1H",
        "ImagingFrequency": 123.25953,
        "InPlanePhaseEncodingDirection": "COL",
        "MRAcquisitionType": "2D",
        "MagneticFieldStrength": 3.0,
        "Manufacturer": "SIEMENS",
        "ManufacturerModelName": "Prisma_fit",
        "Modality": "MR",
        "NumberOfAverages": 1.0,
        "NumberOfPhaseEncodingSteps": 104,
        "PercentPhaseFieldOfView": 100.0,
        "PercentSampling": 100.0,
        "PerformedProcedureStepStartTime": "145101.586000",
        "PhotometricInterpretation": "MONOCHROME2",
        "PixelBandwidth": 2290.0,
        "PixelRepresentation": 0,
        "PixelSpacing": [
          2.0,
          2.0
        ],
        "ProtocolName": "func_task-figures3",
        "RepetitionTime": 1490.0,
        "Rows": 832,
        "SAR": 0.02967045506352,
        "SamplesPerPixel": 1,
        "ScanOptions": "FS",
        "ScanningSequence": "EP",
        "SequenceName": "epfid2d1_104",
        "SequenceVariant": [
          "SK",
          "SS"
        ],
        "SeriesDescription": "func_task-figures3",
        "SeriesNumber": 13,
        "SeriesTime": "152505.221000",
        "SliceLocation": -43.934055787434,
        "SliceThickness": 2.0,
        "SmallestImagePixelValue": 0,
        "SoftwareVersions": "syngo MR E11",
        "SpacingBetweenSlices": 2.0000000309308,
        "SpecificCharacterSet": "ISO_IR 100",
        "StudyID": "1",
        "StudyTime": "145101.491000",
        "TransmitCoilName": "Body",
        "VariableFlipAngleFlag": "N",
        "WindowCenterWidthExplanation": "Algo1",
        "dBdt": 0.0
      },
      "slices": {}
    },
    "modality": "bold",
    "run_id": 1,
    "session_id": "002",
    "subject_id": "06",
    "task_id": "figures03",
    "time": {
      "samples": {
        "AcquisitionNumber": [
          1,
          2,
          3,
          4,
          5,
          6,
          7,
          8,
          9,
          10,
          11,
          12,
          13,
          14,
          15,
          16,
          17,
          18,
          19,
          20,
          21,
          22,
          23,
          24,
          25,
          26,
          27,
          28,
          29,
          30,
          31,
          32,
          33,
          34,
          35,
          36,
          37,
          38,
          39,
          40,
          41,
          42,
          43,
          44,
          45,
          46,
          47,
          48,
          49,
          50,
          51,
          52,
          53,
          54,
          55,
          56,
          57,
          58,
          59,
          60,
          61,
          62,
          63,
          64,
          65,
          66,
          67,
          68,
          69,
          70,
          71,
          72,
          73,
          74,
          75,
          76,
          77,
          78,
          79,
          80,
          81,
          82,
          83,
          84,
          85,
          86,
          87,
          88,
          89,
          90,
          91,
          92,
          93,
          94,
          95,
          96,
          97,
          98,
          99,
          100,
          101,
          102,
          103,
          104,
          105,
          106,
          107,
          108,
          109,
          110,
          111,
          112,
          113,
          114,
          115,
          116,
          117,
          118,
          119,
          120,
          121,
          122,
          123,
          124,
          125,
          126,
          127,
          128,
          129,
          130,
          131,
          132,
          133,
          134,
          135,
          136,
          137,
          138,
          139,
          140,
          141,
          142,
          143,
          144,
          145,
          146,
          147,
          148,
          149,
          150,
          151,
          152,
          153,
          154,
          155,
          156,
          157,
          158,
          159,
          160,
          161,
          162,
          163,
          164,
          165,
          166,
          167,
          168,
          169,
          170,
          171,
          172,
          173,
          174,
          175,
          176,
          177,
          178,
          179,
          180,
          181,
          182,
          183,
          184,
          185,
          186,
          187,
          188,
          189,
          190,
          191,
          192,
          193,
          194,
          195,
          196,
          197,
          198,
          199,
          200,
          201,
          202,
          203,
          204,
          205,
          206,
          207,
          208,
          209,
          210,
          211,
          212,
          213,
          214,
          215,
          216,
          217,
          218,
          219,
          220,
          221,
          222,
          223,
          224,
          225,
          226,
          227,
          228,
          229,
          230,
          231,
          232,
          233,
          234,
          235,
          236,
          237,
          238,
          239,
          240,
          241,
          242,
          243,
          244,
          245,
          246,
          247,
          248,
          249,
          250,
          251,
          252,
          253,
          254,
          255,
          256,
          257,
          258,
          259,
          260,
          261,
          262,
          263,
          264,
          265,
          266,
          267,
          268,
          269,
          270,
          271,
          272,
          273,
          274,
          275,
          276,
          277,
          278,
          279,
          280,
          281,
          282,
          283,
          284,
          285,
          286,
          287,
          288,
          289,
          290,
          291,
          292,
          293,
          294,
          295,
          296,
          297,
          298,
          299,
          300,
          301,
          302,
          303,
          304,
          305,
          306,
          307,
          308,
          309,
          310,
          311,
          312,
          313,
          314,
          315,
          316,
          317,
          318,
          319,
          320,
          321,
          322,
          323,
          324,
          325,
          326,
          327,
          328,
          329,
          330,
          331,
          332,
          333,
          334,
          335,
          336,
          337,
          338,
          339,
          340,
          341,
          342,
          343,
          344,
          345,
          346,
          347,
          348,
          349,
          350,
          351,
          352,
          353,
          354,
          355,
          356,
          357,
          358,
          359,
          360,
          361,
          362,
          363,
          364,
          365,
          366,
          367,
          368,
          369,
          370,
          371,
          372,
          373,
          374,
          375,
          376,
          377,
          378,
          379,
          380,
          381,
          382,
          383,
          384,
          385,
          386,
          387,
          388,
          389,
          390,
          391,
          392,
          393,
          394,
          395,
          396,
          397,
          398,
          399,
          400,
          401,
          402,
          403,
          404,
          405,
          406,
          407,
          408,
          409,
          410,
          411
        ],
        "AcquisitionTime": [
          "152332.842500",
          "152334.332500",
          "152335.822500",
          "152337.312500",
          "152338.802500",
          "152340.292500",
          "152341.782500",
          "152343.272500",
          "152344.762500",
          "152346.252500",
          "152347.742500",
          "152349.232500",
          "152350.722500",
          "152352.212500",
          "152353.702500",
          "152355.192500",
          "152356.682500",
          "152358.172500",
          "152359.662500",
          "152401.152500",
          "152402.642500",
          "152404.132500",
          "152405.622500",
          "152407.112500",
          "152408.602500",
          "152410.092500",
          "152411.582500",
          "152413.072500",
          "152414.562500",
          "152416.052500",
          "152417.542500",
          "152419.032500",
          "152420.522500",
          "152422.012500",
          "152423.502500",
          "152424.992500",
          "152426.482500",
          "152427.972500",
          "152429.462500",
          "152430.952500",
          "152432.442500",
          "152433.932500",
          "152435.422500",
          "152436.912500",
          "152438.402500",
          "152439.892500",
          "152441.382500",
          "152442.872500",
          "152444.362500",
          "152445.852500",
          "152447.342500",
          "152448.832500",
          "152450.322500",
          "152451.812500",
          "152453.302500",
          "152454.792500",
          "152456.282500",
          "152457.772500",
          "152459.262500",
          "152500.752500",
          "152502.242500",
          "152503.732500",
          "152505.222500",
          "152506.712500",
          "152508.202500",
          "152509.692500",
          "152511.182500",
          "152512.672500",
          "152514.162500",
          "152515.652500",
          "152517.142500",
          "152518.632500",
          "152520.122500",
          "152521.612500",
          "152523.102500",
          "152524.592500",
          "152526.082500",
          "152527.572500",
          "152529.062500",
          "152530.552500",
          "152532.042500",
          "152533.532500",
          "152535.022500",
          "152536.512500",
          "152538.002500",
          "152539.492500",
          "152540.982500",
          "152542.472500",
          "152543.962500",
          "152545.452500",
          "152546.942500",
          "152548.432500",
          "152549.922500",
          "152551.412500",
          "152552.902500",
          "152554.392500",
          "152555.882500",
          "152557.372500",
          "152558.862500",
          "152600.352500",
          "152601.842500",
          "152603.332500",
          "152604.822500",
          "152606.312500",
          "152607.802500",
          "152609.292500",
          "152610.782500",
          "152612.272500",
          "152613.762500",
          "152615.252500",
          "152616.742500",
          "152618.232500",
          "152619.722500",
          "152621.212500",
          "152622.702500",
          "152624.192500",
          "152625.682500",
          "152627.172500",
          "152628.662500",
          "152630.152500",
          "152631.642500",
          "152633.132500",
          "152634.622500",
          "152636.112500",
          "152637.602500",
          "152639.092500",
          "152640.582500",
          "152642.072500",
          "152643.562500",
          "152645.052500",
          "152646.542500",
          "152648.032500",
          "152649.522500",
          "152651.012500",
          "152652.502500",
          "152653.992500",
          "152655.482500",
          "152656.972500",
          "152658.462500",
          "152659.952500",
          "152701.442500",
          "152702.932500",
          "152704.422500",
          "152705.912500",
          "152707.402500",
          "152708.892500",
          "152710.382500",
          "152711.872500",
          "152713.362500",
          "152714.852500",
          "152716.342500",
          "152717.832500",
          "152719.322500",
          "152720.812500",
          "152722.302500",
          "152723.792500",
          "152725.282500",
          "152726.772500",
          "152728.262500",
          "152729.752500",
          "152731.242500",
          "152732.732500",
          "152734.222500",
          "152735.712500",
          "152737.202500",
          "152738.692500",
          "152740.182500",
          "152741.672500",
          "152743.162500",
          "152744.652500",
          "152746.142500",
          "152747.632500",
          "152749.122500",
          "152750.612500",
          "152752.102500",
          "152753.592500",
          "152755.082500",
          "152756.572500",
          "152758.062500",
          "152759.552500",
          "152801.042500",
          "152802.532500",
          "152804.022500",
          "152805.512500",
          "152807.002500",
          "152808.492500",
          "152809.982500",
          "152811.472500",
          "152812.962500",
          "152814.452500",
          "152815.942500",
          "152817.432500",
          "152818.922500",
          "152820.412500",
          "152821.902500",
          "152823.392500",
          "152824.882500",
          "152826.372500",
          "152827.862500",
          "152829.352500",
          "152830.842500",
          "152832.332500",
          "152833.822500",
          "152835.312500",
          "152836.802500",
          "152838.292500",
          "152839.782500",
          "152841.272500",
          "152842.762500",
          "152844.252500",
          "152845.742500",
          "152847.232500",
          "152848.722500",
          "152850.212500",
          "152851.702500",
          "152853.192500",
          "152854.682500",
          "152856.172500",
          "152857.662500",
          "152859.152500",
          "152900.642500",
          "152902.132500",
          "152903.622500",
          "152905.112500",
          "152906.602500",
          "152908.092500",
          "152909.582500",
          "152911.072500",
          "152912.562500",
          "152914.052500",
          "152915.542500",
          "152917.032500",
          "152918.522500",
          "152920.012500",
          "152921.502500",
          "152922.992500",
          "152924.482500",
          "152925.972500",
          "152927.462500",
          "152928.952500",
          "152930.442500",
          "152931.932500",
          "152933.422500",
          "152934.912500",
          "152936.402500",
          "152937.892500",
          "152939.382500",
          "152940.872500",
          "152942.362500",
          "152943.852500",
          "152945.342500",
          "152946.832500",
          "152948.322500",
          "152949.812500",
          "152951.302500",
          "152952.792500",
          "152954.282500",
          "152955.772500",
          "152957.262500",
          "152958.752500",
          "153000.242500",
          "153001.732500",
          "153003.222500",
          "153004.712500",
          "153006.202500",
          "153007.692500",
          "153009.182500",
          "153010.672500",
          "153012.162500",
          "153013.652500",
          "153015.142500",
          "153016.632500",
          "153018.122500",
          "153019.612500",
          "153021.102500",
          "153022.592500",
          "153024.082500",
          "153025.572500",
          "153027.062500",
          "153028.552500",
          "153030.042500",
          "153031.532500",
          "153033.022500",
          "153034.512500",
          "153036.002500",
          "153037.492500",
          "153038.982500",
          "153040.472500",
          "153041.962500",
          "153043.452500",
          "153044.942500",
          "153046.432500",
          "153047.922500",
          "153049.412500",
          "153050.902500",
          "153052.392500",
          "153053.882500",
          "153055.372500",
          "153056.862500",
          "153058.352500",
          "153059.842500",
          "153101.332500",
          "153102.822500",
          "153104.312500",
          "153105.802500",
          "153107.292500",
          "153108.782500",
          "153110.272500",
          "153111.762500",
          "153113.252500",
          "153114.742500",
          "153116.232500",
          "153117.722500",
          "153119.212500",
          "153120.702500",
          "153122.192500",
          "153123.682500",
          "153125.172500",
          "153126.662500",
          "153128.152500",
          "153129.642500",
          "153131.132500",
          "153132.622500",
          "153134.112500",
          "153135.602500",
          "153137.092500",
          "153138.582500",
          "153140.072500",
          "153141.562500",
          "153143.052500",
          "153144.542500",
          "153146.032500",
          "153147.522500",
          "153149.012500",
          "153150.502500",
          "153151.992500",
          "153153.482500",
          "153154.972500",
          "153156.462500",
          "153157.952500",
          "153159.442500",
          "153200.932500",
          "153202.422500",
          "153203.912500",
          "153205.402500",
          "153206.892500",
          "153208.382500",
          "153209.872500",
          "153211.362500",
          "153212.852500",
          "153214.342500",
          "153215.832500",
          "153217.322500",
          "153218.812500",
          "153220.302500",
          "153221.792500",
          "153223.282500",
          "153224.772500",
          "153226.262500",
          "153227.752500",
          "153229.242500",
          "153230.732500",
          "153232.222500",
          "153233.712500",
          "153235.202500",
          "153236.692500",
          "153238.182500",
          "153239.672500",
          "153241.162500",
          "153242.652500",
          "153244.142500",
          "153245.632500",
          "153247.122500",
          "153248.612500",
          "153250.102500",
          "153251.592500",
          "153253.082500",
          "153254.572500",
          "153256.062500",
          "153257.552500",
          "153259.042500",
          "153300.532500",
          "153302.022500",
          "153303.512500",
          "153305.002500",
          "153306.492500",
          "153307.982500",
          "153309.472500",
          "153310.962500",
          "153312.452500",
          "153313.942500",
          "153315.432500",
          "153316.922500",
          "153318.412500",
          "153319.902500",
          "153321.392500",
          "153322.882500",
          "153324.372500",
          "153325.862500",
          "153327.352500",
          "153328.842500",
          "153330.332500",
          "153331.822500",
          "153333.312500",
          "153334.802500",
          "153336.292500",
          "153337.782500",
          "153339.272500",
          "153340.762500",
          "153342.252500",
          "153343.742500"
        ],
        "ContentTime": [
          "152505.224000",
          "152505.227000",
          "152505.230000",
          "152505.233000",
          "152505.236000",
          "152505.239000",
          "152505.242000",
          "152505.245000",
          "152505.248000",
          "152505.251000",
          "152505.254000",
          "152505.257000",
          "152505.259000",
          "152505.262000",
          "152505.265000",
          "152505.268000",
          "152505.271000",
          "152505.274000",
          "152505.277000",
          "152505.280000",
          "152505.287000",
          "152505.290000",
          "152505.293000",
          "152505.296000",
          "152505.299000",
          "152505.302000",
          "152505.305000",
          "152505.308000",
          "152505.311000",
          "152505.313000",
          "152505.316000",
          "152505.319000",
          "152505.322000",
          "152505.331000",
          "152505.334000",
          "152505.337000",
          "152505.341000",
          "152525.191000",
          "152525.194000",
          "152525.215000",
          "152525.218000",
          "152525.221000",
          "152525.224000",
          "152525.227000",
          "152525.235000",
          "152525.237000",
          "152525.240000",
          "152525.243000",
          "152525.246000",
          "152525.249000",
          "152525.252000",
          "152525.255000",
          "152525.258000",
          "152525.261000",
          "152525.263000",
          "152525.266000",
          "152525.269000",
          "152525.272000",
          "152545.191000",
          "152545.194000",
          "152545.197000",
          "152545.200000",
          "152545.203000",
          "152545.205000",
          "152545.208000",
          "152545.211000",
          "152545.214000",
          "152545.217000",
          "152545.220000",
          "152545.223000",
          "152545.226000",
          "152545.229000",
          "152545.232000",
          "152545.234000",
          "152545.237000",
          "152545.240000",
          "152545.243000",
          "152545.246000",
          "152605.192000",
          "152605.195000",
          "152605.199000",
          "152605.202000",
          "152605.204000",
          "152605.207000",
          "152605.210000",
          "152605.213000",
          "152605.216000",
          "152605.219000",
          "152605.222000",
          "152605.225000",
          "152605.228000",
          "152605.231000",
          "152605.234000",
          "152605.236000",
          "152605.239000",
          "152605.242000",
          "152605.245000",
          "152605.248000",
          "152645.192000",
          "152645.195000",
          "152645.198000",
          "152645.201000",
          "152645.204000",
          "152645.207000",
          "152645.210000",
          "152645.213000",
          "152645.216000",
          "152645.218000",
          "152645.221000",
          "152645.224000",
          "152645.227000",
          "152645.230000",
          "152645.233000",
          "152645.236000",
          "152645.239000",
          "152645.242000",
          "152645.252000",
          "152645.254000",
          "152645.257000",
          "152645.260000",
          "152645.263000",
          "152645.266000",
          "152645.269000",
          "152645.272000",
          "152645.275000",
          "152645.278000",
          "152645.281000",
          "152645.284000",
          "152725.191000",
          "152725.194000",
          "152725.197000",
          "152725.200000",
          "152725.203000",
          "152725.206000",
          "152725.208000",
          "152725.211000",
          "152725.214000",
          "152725.217000",
          "152725.221000",
          "152725.224000",
          "152725.226000",
          "152725.229000",
          "152725.232000",
          "152725.235000",
          "152725.238000",
          "152725.241000",
          "152725.244000",
          "152725.247000",
          "152725.250000",
          "152725.253000",
          "152725.256000",
          "152725.258000",
          "152725.261000",
          "152725.264000",
          "152725.267000",
          "152805.192000",
          "152805.195000",
          "152805.198000",
          "152805.201000",
          "152805.204000",
          "152805.207000",
          "152805.210000",
          "152805.213000",
          "152805.216000",
          "152805.218000",
          "152805.221000",
          "152805.224000",
          "152805.227000",
          "152805.230000",
          "152805.233000",
          "152805.236000",
          "152805.239000",
          "152805.242000",
          "152805.245000",
          "152805.248000",
          "152805.250000",
          "152805.253000",
          "152805.256000",
          "152805.259000",
          "152805.262000",
          "152805.265000",
          "152805.268000",
          "152845.192000",
          "152845.195000",
          "152845.198000",
          "152845.201000",
          "152845.204000",
          "152845.207000",
          "152845.210000",
          "152845.212000",
          "152845.215000",
          "152845.218000",
          "152845.221000",
          "152845.224000",
          "152845.227000",
          "152845.230000",
          "152845.233000",
          "152845.236000",
          "152845.238000",
          "152845.241000",
          "152845.244000",
          "152845.247000",
          "152845.250000",
          "152845.253000",
          "152845.256000",
          "152845.259000",
          "152845.261000",
          "152845.264000",
          "152845.267000",
          "152925.191000",
          "152925.194000",
          "152925.197000",
          "152925.200000",
          "152925.203000",
          "152925.206000",
