{
  "aor": 0.0007692892156862747,
  "aqi": 0.007250466053921569,
  "bids_meta": {
    "AcquisitionMatrixPE": 104,
    "AcquisitionNumber": 1,
    "AcquisitionTime": "15:34:13.712500",
    "BandwidthPerPixelPhaseEncode": 17.17,
    "BaseResolution": 104,
    "BodyPartExamined": "BRAIN",
    "CogAtlasID": "trm_4c898da401420",
    "ConsistencyInfo": "N4_VE11C_LATEST_20160120",
    "ConversionSoftware": "dcm2niix",
    "ConversionSoftwareVersion": "v1.0.20171215 (OpenJPEG build) GCC7.3.0",
    "DerivedVendorReportedEchoSpacing": 0.000560011,
    "DeviceSerialNumber": "167006",
    "DwellTime": 2.1e-06,
    "EchoTime": 0.037,
    "EchoTrainLength": 104,
    "EffectiveEchoSpacing": 0.000560011,
    "FlipAngle": 52,
    "ImageComments": "Unaliased_MB4_PE3_LB",
    "ImageOrientationPatientDICOM": [
      0.999763,
      0.0129229,
      -0.0175434,
      -0.0181492,
      0.939421,
      -0.342284
    ],
    "ImageType": [
      "ORIGINAL",
      "PRIMARY",
      "M",
      "MB",
      "ND",
      "MOSAIC"
    ],
    "InPlanePhaseEncodingDirectionDICOM": "COL",
    "InstitutionAddress": "Chemin_Queen-Mary_4565_Montreal_District_CA_H3W_1W5",
    "InstitutionName": "IUGM",
    "InstitutionalDepartmentName": "Department",
    "MRAcquisitionType": "2D",
    "MagneticFieldStrength": 3,
    "Manufacturer": "Siemens",
    "ManufacturersModelName": "Prisma_fit",
    "Modality": "MR",
    "MultibandAccelerationFactor": 4,
    "PartialFourier": 1,
    "PatientPosition": "HFS",
    "PercentPhaseFOV": 100,
    "PhaseEncodingDirection": "j-",
    "PhaseEncodingSteps": 104,
    "PhaseResolution": 1,
    "PixelBandwidth": 2290,
    "ProcedureStepDescription": "video5_generic",
    "ProtocolName": "func_task-figures4",
    "PulseSequenceDetails": "%CustomerSeq%_cmrr_mbep2d_bold",
    "ReceiveCoilActiveElements": "HC1-7;NC1,2",
    "ReceiveCoilName": "HeadNeck_64",
    "ReconMatrixPE": 104,
    "RepetitionTime": 1.49,
    "SAR": 0.0296698,
    "ScanOptions": "FS",
    "ScanningSequence": "EP",
    "SequenceName": "epfid2d1_104",
    "SequenceVariant": "SK_SS",
    "SeriesDescription": "func_task-figures4",
    "SeriesNumber": 15,
    "ShimSetting": [
      633,
      -7245,
      -8846,
      565,
      25,
      -234,
      -157,
      -13
    ],
    "SliceThickness": 2,
    "SliceTiming": [
      0,
      0.7825,
      0.0975,
      0.88,
      0.195,
      0.98,
      0.2925,
      1.0775,
      0.39,
      1.175,
      0.49,
      1.2725,
      0.5875,
      1.37,
      0.685,
      0,
      0.7825,
      0.0975,
      0.88,
      0.195,
      0.98,
      0.2925,
      1.0775,
      0.39,
      1.175,
      0.49,
      1.2725,
      0.5875,
      1.37,
      0.685,
      0,
      0.7825,
      0.0975,
      0.88,
      0.195,
      0.98,
      0.2925,
      1.0775,
      0.39,
      1.175,
      0.49,
      1.2725,
      0.5875,
      1.37,
      0.685,
      0,
      0.7825,
      0.0975,
      0.88,
      0.195,
      0.98,
      0.2925,
      1.0775,
      0.39,
      1.175,
      0.49,
      1.2725,
      0.5875,
      1.37,
      0.685
    ],
    "SoftwareVersions": "syngo_MR_E11",
    "SpacingBetweenSlices": 2,
    "StationName": "MRC35049",
    "TaskName": "figures04",
    "TotalReadoutTime": 0.0576811,
    "TxRefAmp": 220.342,
    "dataset": "<unset>",
    "dcmmeta_affine": [
      [
        -1.9995251893997192,
        -0.036298323422670364,
        -0.024114731699228287,
        107.220458984375
      ],
      [
        -0.025845756754279137,
        1.8788427114486694,
        -0.6850417852401733,
        -68.3341293334961
      ],
      [
        -0.03508682921528816,
        0.6845675110816956,
        1.8788657188415527,
        -70.3053207397461
      ],
      [
        0.0,
        0.0,
        0.0,
        1.0
      ]
    ],
    "dcmmeta_reorient_transform": [
      [
        0.0,
        -1.0,
        0.0,
        103.0
      ],
      [
        1.0,
        0.0,
        0.0,
        0.0
      ],
      [
        0.0,
        0.0,
        1.0,
        0.0
      ],
      [
        0.0,
        0.0,
        0.0,
        1.0
      ]
    ],
    "dcmmeta_shape": [
      104,
      104,
      60,
      409
    ],
    "dcmmeta_slice_dim": 2,
    "dcmmeta_version": 0.6,
    "global": {
      "const": {
        "AcquisitionMatrix": [
          104,
          0,
          0,
          104
        ],
        "AngioFlag": "N",
        "BitsAllocated": 16,
        "BitsStored": 16,
        "BodyPartExamined": "BRAIN",
        "Columns": 832,
        "EchoNumbers": 1,
        "EchoTime": 37.0,
        "EchoTrainLength": 104,
        "FlipAngle": 52.0,
        "HighBit": 15,
        "ImageOrientationPatient": [
          0.99976258573788,
          0.01292287853061,
          -0.0175434138408,
          -0.0181491622514,
          0.93942133043483,
          -0.3422837592315
        ],
        "ImagePositionPatient": [
          -818.09630473637,
          -818.49324799389,
          262.15931575371
        ],
        "ImageType": [
          "ORIGINAL",
          "PRIMARY",
          "M",
          "MB",
          "ND",
          "MOSAIC"
        ],
        "ImagedNucleus": "1H",
        "ImagingFrequency": 123.259532,
        "InPlanePhaseEncodingDirection": "COL",
        "MRAcquisitionType": "2D",
        "MagneticFieldStrength": 3.0,
        "Manufacturer": "SIEMENS",
        "ManufacturerModelName": "Prisma_fit",
        "Modality": "MR",
        "NumberOfAverages": 1.0,
        "NumberOfPhaseEncodingSteps": 104,
        "PercentPhaseFieldOfView": 100.0,
        "PercentSampling": 100.0,
        "PerformedProcedureStepStartTime": "145101.586000",
        "PhotometricInterpretation": "MONOCHROME2",
        "PixelBandwidth": 2290.0,
        "PixelRepresentation": 0,
        "PixelSpacing": [
          2.0,
          2.0
        ],
        "ProtocolName": "func_task-figures4",
        "RepetitionTime": 1490.0,
        "Rows": 832,
        "SAR": 0.02966975749865,
        "SamplesPerPixel": 1,
        "ScanOptions": "FS",
        "ScanningSequence": "EP",
        "SequenceName": "epfid2d1_104",
        "SequenceVariant": [
          "SK",
          "SS"
        ],
        "SeriesDescription": "func_task-figures4",
        "SeriesNumber": 15,
        "SeriesTime": "153546.737000",
        "SliceLocation": -43.934055787434,
        "SliceThickness": 2.0,
        "SmallestImagePixelValue": 0,
        "SoftwareVersions": "syngo MR E11",
        "SpacingBetweenSlices": 2.0000000309308,
        "SpecificCharacterSet": "ISO_IR 100",
        "StudyID": "1",
        "StudyTime": "145101.491000",
        "TransmitCoilName": "Body",
        "VariableFlipAngleFlag": "N",
        "WindowCenterWidthExplanation": "Algo1",
        "dBdt": 0.0
      },
      "slices": {}
    },
    "modality": "bold",
    "run_id": 1,
    "session_id": "002",
    "subject_id": "06",
    "task_id": "figures04",
    "time": {
      "samples": {
        "AcquisitionNumber": [
          1,
          2,
          3,
          4,
          5,
          6,
          7,
          8,
          9,
          10,
          11,
          12,
          13,
          14,
          15,
          16,
          17,
          18,
          19,
          20,
          21,
          22,
          23,
          24,
          25,
          26,
          27,
          28,
          29,
          30,
          31,
          32,
          33,
          34,
          35,
          36,
          37,
          38,
          39,
          40,
          41,
          42,
          43,
          44,
          45,
          46,
          47,
          48,
          49,
          50,
          51,
          52,
          53,
          54,
          55,
          56,
          57,
          58,
          59,
          60,
          61,
          62,
          63,
          64,
          65,
          66,
          67,
          68,
          69,
          70,
          71,
          72,
          73,
          74,
          75,
          76,
          77,
          78,
          79,
          80,
          81,
          82,
          83,
          84,
          85,
          86,
          87,
          88,
          89,
          90,
          91,
          92,
          93,
          94,
          95,
          96,
          97,
          98,
          99,
          100,
          101,
          102,
          103,
          104,
          105,
          106,
          107,
          108,
          109,
          110,
          111,
          112,
          113,
          114,
          115,
          116,
          117,
          118,
          119,
          120,
          121,
          122,
          123,
          124,
          125,
          126,
          127,
          128,
          129,
          130,
          131,
          132,
          133,
          134,
          135,
          136,
          137,
          138,
          139,
          140,
          141,
          142,
          143,
          144,
          145,
          146,
          147,
          148,
          149,
          150,
          151,
          152,
          153,
          154,
          155,
          156,
          157,
          158,
          159,
          160,
          161,
          162,
          163,
          164,
          165,
          166,
          167,
          168,
          169,
          170,
          171,
          172,
          173,
          174,
          175,
          176,
          177,
          178,
          179,
          180,
          181,
          182,
          183,
          184,
          185,
          186,
          187,
          188,
          189,
          190,
          191,
          192,
          193,
          194,
          195,
          196,
          197,
          198,
          199,
          200,
          201,
          202,
          203,
          204,
          205,
          206,
          207,
          208,
          209,
          210,
          211,
          212,
          213,
          214,
          215,
          216,
          217,
          218,
          219,
          220,
          221,
          222,
          223,
          224,
          225,
          226,
          227,
          228,
          229,
          230,
          231,
          232,
          233,
          234,
          235,
          236,
          237,
          238,
          239,
          240,
          241,
          242,
          243,
          244,
          245,
          246,
          247,
          248,
          249,
          250,
          251,
          252,
          253,
          254,
          255,
          256,
          257,
          258,
          259,
          260,
          261,
          262,
          263,
          264,
          265,
          266,
          267,
          268,
          269,
          270,
          271,
          272,
          273,
          274,
          275,
          276,
          277,
          278,
          279,
          280,
          281,
          282,
          283,
          284,
          285,
          286,
          287,
          288,
          289,
          290,
          291,
          292,
          293,
          294,
          295,
          296,
          297,
          298,
          299,
          300,
          301,
          302,
          303,
          304,
          305,
          306,
          307,
          308,
          309,
          310,
          311,
          312,
          313,
          314,
          315,
          316,
          317,
          318,
          319,
          320,
          321,
          322,
          323,
          324,
          325,
          326,
          327,
          328,
          329,
          330,
          331,
          332,
          333,
          334,
          335,
          336,
          337,
          338,
          339,
          340,
          341,
          342,
          343,
          344,
          345,
          346,
          347,
          348,
          349,
          350,
          351,
          352,
          353,
          354,
          355,
          356,
          357,
          358,
          359,
          360,
          361,
          362,
          363,
          364,
          365,
          366,
          367,
          368,
          369,
          370,
          371,
          372,
          373,
          374,
          375,
          376,
          377,
          378,
          379,
          380,
          381,
          382,
          383,
          384,
          385,
          386,
          387,
          388,
          389,
          390,
          391,
          392,
          393,
          394,
          395,
          396,
          397,
          398,
          399,
          400,
          401,
          402,
          403,
          404,
          405,
          406,
          407,
          408,
          409
        ],
        "AcquisitionTime": [
          "153413.712500",
          "153415.202500",
          "153416.692500",
          "153418.182500",
          "153419.672500",
          "153421.162500",
          "153422.652500",
          "153424.142500",
          "153425.632500",
          "153427.122500",
          "153428.612500",
          "153430.102500",
          "153431.592500",
          "153433.082500",
          "153434.572500",
          "153436.062500",
          "153437.552500",
          "153439.042500",
          "153440.532500",
          "153442.022500",
          "153443.512500",
          "153445.002500",
          "153446.492500",
          "153447.982500",
          "153449.472500",
          "153450.962500",
          "153452.452500",
          "153453.942500",
          "153455.432500",
          "153456.922500",
          "153458.412500",
          "153459.902500",
          "153501.392500",
          "153502.882500",
          "153504.372500",
          "153505.862500",
          "153507.352500",
          "153508.842500",
          "153510.332500",
          "153511.822500",
          "153513.312500",
          "153514.802500",
          "153516.292500",
          "153517.782500",
          "153519.272500",
          "153520.762500",
          "153522.252500",
          "153523.742500",
          "153525.232500",
          "153526.722500",
          "153528.212500",
          "153529.702500",
          "153531.192500",
          "153532.682500",
          "153534.172500",
          "153535.662500",
          "153537.152500",
          "153538.642500",
          "153540.132500",
          "153541.622500",
          "153543.112500",
          "153544.602500",
          "153546.092500",
          "153547.582500",
          "153549.072500",
          "153550.562500",
          "153552.052500",
          "153553.542500",
          "153555.032500",
          "153556.522500",
          "153558.012500",
          "153559.502500",
          "153600.992500",
          "153602.482500",
          "153603.972500",
          "153605.462500",
          "153606.952500",
          "153608.442500",
          "153609.932500",
          "153611.422500",
          "153612.912500",
          "153614.402500",
          "153615.892500",
          "153617.382500",
          "153618.872500",
          "153620.362500",
          "153621.852500",
          "153623.342500",
          "153624.832500",
          "153626.322500",
          "153627.812500",
          "153629.302500",
          "153630.792500",
          "153632.282500",
          "153633.772500",
          "153635.262500",
          "153636.752500",
          "153638.242500",
          "153639.732500",
          "153641.222500",
          "153642.712500",
          "153644.202500",
          "153645.692500",
          "153647.182500",
          "153648.672500",
          "153650.162500",
          "153651.652500",
          "153653.142500",
          "153654.632500",
          "153656.122500",
          "153657.612500",
          "153659.102500",
          "153700.592500",
          "153702.082500",
          "153703.572500",
          "153705.062500",
          "153706.552500",
          "153708.042500",
          "153709.532500",
          "153711.022500",
          "153712.512500",
          "153714.002500",
          "153715.492500",
          "153716.982500",
          "153718.472500",
          "153719.962500",
          "153721.452500",
          "153722.942500",
          "153724.432500",
          "153725.922500",
          "153727.412500",
          "153728.902500",
          "153730.392500",
          "153731.882500",
          "153733.372500",
          "153734.862500",
          "153736.352500",
          "153737.842500",
          "153739.332500",
          "153740.822500",
          "153742.312500",
          "153743.802500",
          "153745.292500",
          "153746.782500",
          "153748.272500",
          "153749.762500",
          "153751.252500",
          "153752.742500",
          "153754.232500",
          "153755.722500",
          "153757.212500",
          "153758.702500",
          "153800.192500",
          "153801.682500",
          "153803.172500",
          "153804.662500",
          "153806.152500",
          "153807.642500",
          "153809.132500",
          "153810.622500",
          "153812.112500",
          "153813.602500",
          "153815.092500",
          "153816.582500",
          "153818.072500",
          "153819.562500",
          "153821.052500",
          "153822.542500",
          "153824.032500",
          "153825.522500",
          "153827.012500",
          "153828.502500",
          "153829.992500",
          "153831.482500",
          "153832.972500",
          "153834.462500",
          "153835.952500",
          "153837.442500",
          "153838.932500",
          "153840.422500",
          "153841.912500",
          "153843.402500",
          "153844.892500",
          "153846.382500",
          "153847.872500",
          "153849.362500",
          "153850.852500",
          "153852.342500",
          "153853.832500",
          "153855.322500",
          "153856.812500",
          "153858.302500",
          "153859.792500",
          "153901.282500",
          "153902.772500",
          "153904.262500",
          "153905.752500",
          "153907.242500",
          "153908.732500",
          "153910.222500",
          "153911.712500",
          "153913.202500",
          "153914.692500",
          "153916.182500",
          "153917.672500",
          "153919.162500",
          "153920.652500",
          "153922.142500",
          "153923.632500",
          "153925.122500",
          "153926.612500",
          "153928.102500",
          "153929.592500",
          "153931.082500",
          "153932.572500",
          "153934.062500",
          "153935.552500",
          "153937.042500",
          "153938.532500",
          "153940.022500",
          "153941.512500",
          "153943.002500",
          "153944.492500",
          "153945.982500",
          "153947.472500",
          "153948.962500",
          "153950.452500",
          "153951.942500",
          "153953.432500",
          "153954.922500",
          "153956.412500",
          "153957.902500",
          "153959.392500",
          "154000.882500",
          "154002.372500",
          "154003.862500",
          "154005.352500",
          "154006.842500",
          "154008.332500",
          "154009.822500",
          "154011.312500",
          "154012.802500",
          "154014.292500",
          "154015.782500",
          "154017.272500",
          "154018.762500",
          "154020.252500",
          "154021.742500",
          "154023.232500",
          "154024.722500",
          "154026.212500",
          "154027.702500",
          "154029.192500",
          "154030.682500",
          "154032.172500",
          "154033.662500",
          "154035.152500",
          "154036.642500",
          "154038.132500",
          "154039.622500",
          "154041.112500",
          "154042.602500",
          "154044.092500",
          "154045.582500",
          "154047.072500",
          "154048.562500",
          "154050.052500",
          "154051.542500",
          "154053.032500",
          "154054.522500",
          "154056.012500",
          "154057.502500",
          "154058.992500",
          "154100.482500",
          "154101.972500",
          "154103.462500",
          "154104.952500",
          "154106.442500",
          "154107.932500",
          "154109.422500",
          "154110.912500",
          "154112.402500",
          "154113.892500",
          "154115.382500",
          "154116.872500",
          "154118.362500",
          "154119.852500",
          "154121.342500",
          "154122.832500",
          "154124.322500",
          "154125.812500",
          "154127.302500",
          "154128.792500",
          "154130.282500",
          "154131.772500",
          "154133.262500",
          "154134.752500",
          "154136.242500",
          "154137.732500",
          "154139.222500",
          "154140.712500",
          "154142.202500",
          "154143.692500",
          "154145.182500",
          "154146.672500",
          "154148.162500",
          "154149.652500",
          "154151.142500",
          "154152.632500",
          "154154.122500",
          "154155.612500",
          "154157.102500",
          "154158.592500",
          "154200.082500",
          "154201.572500",
          "154203.062500",
          "154204.552500",
          "154206.042500",
          "154207.532500",
          "154209.022500",
          "154210.512500",
          "154212.002500",
          "154213.492500",
          "154214.982500",
          "154216.472500",
          "154217.962500",
          "154219.452500",
          "154220.942500",
          "154222.432500",
          "154223.922500",
          "154225.412500",
          "154226.902500",
          "154228.392500",
          "154229.882500",
          "154231.372500",
          "154232.862500",
          "154234.352500",
          "154235.842500",
          "154237.332500",
          "154238.822500",
          "154240.312500",
          "154241.802500",
          "154243.292500",
          "154244.782500",
          "154246.272500",
          "154247.762500",
          "154249.252500",
          "154250.742500",
          "154252.232500",
          "154253.722500",
          "154255.212500",
          "154256.702500",
          "154258.192500",
          "154259.682500",
          "154301.172500",
          "154302.662500",
          "154304.152500",
          "154305.642500",
          "154307.132500",
          "154308.622500",
          "154310.112500",
          "154311.602500",
          "154313.092500",
          "154314.582500",
          "154316.072500",
          "154317.562500",
          "154319.052500",
          "154320.542500",
          "154322.032500",
          "154323.522500",
          "154325.012500",
          "154326.502500",
          "154327.992500",
          "154329.482500",
          "154330.972500",
          "154332.462500",
          "154333.952500",
          "154335.442500",
          "154336.932500",
          "154338.422500",
          "154339.912500",
          "154341.402500",
          "154342.892500",
          "154344.382500",
          "154345.872500",
          "154347.362500",
          "154348.852500",
          "154350.342500",
          "154351.832500",
          "154353.322500",
          "154354.812500",
          "154356.302500",
          "154357.792500",
          "154359.282500",
          "154400.772500",
          "154402.262500",
          "154403.752500",
          "154405.242500",
          "154406.732500",
          "154408.222500",
          "154409.712500",
          "154411.202500",
          "154412.692500",
          "154414.182500",
          "154415.672500",
          "154417.162500",
          "154418.652500",
          "154420.142500",
          "154421.632500"
        ],
        "ContentTime": [
          "153546.740000",
          "153546.743000",
          "153546.746000",
          "153546.754000",
          "153546.757000",
          "153546.760000",
          "153546.763000",
          "153546.766000",
          "153546.769000",
          "153546.772000",
          "153546.775000",
          "153546.778000",
          "153546.785000",
          "153546.788000",
          "153546.791000",
          "153546.794000",
          "153546.797000",
          "153546.800000",
          "153546.803000",
          "153546.806000",
          "153546.808000",
          "153546.811000",
          "153546.814000",
          "153546.817000",
          "153546.820000",
          "153546.823000",
          "153546.826000",
          "153546.829000",
          "153546.832000",
          "153546.835000",
          "153546.838000",
          "153546.840000",
          "153546.843000",
          "153546.846000",
          "153546.849000",
          "153546.852000",
          "153546.855000",
          "153546.858000",
          "153606.710000",
          "153606.713000",
          "153606.716000",
          "153606.719000",
          "153606.722000",
          "153606.724000",
          "153606.727000",
          "153606.730000",
          "153606.733000",
          "153606.736000",
          "153606.739000",
          "153606.742000",
          "153606.744000",
          "153606.747000",
          "153606.759000",
          "153606.762000",
          "153606.765000",
          "153606.768000",
          "153606.771000",
          "153606.774000",
          "153626.710000",
          "153626.713000",
          "153626.716000",
          "153626.719000",
          "153626.722000",
          "153626.725000",
          "153626.728000",
          "153626.730000",
          "153626.733000",
          "153626.736000",
          "153626.739000",
          "153626.742000",
          "153626.745000",
          "153626.748000",
          "153626.751000",
          "153626.754000",
          "153626.756000",
          "153626.759000",
          "153626.762000",
          "153626.765000",
          "153646.710000",
          "153646.713000",
          "153646.716000",
          "153646.719000",
          "153646.722000",
          "153646.724000",
          "153646.727000",
          "153646.730000",
          "153646.733000",
          "153646.736000",
          "153646.739000",
          "153646.742000",
          "153646.745000",
          "153646.748000",
          "153646.751000",
          "153646.753000",
          "153646.756000",
          "153646.759000",
          "153646.762000",
          "153646.765000",
          "153646.768000",
          "153726.710000",
          "153726.713000",
          "153726.716000",
          "153726.719000",
          "153726.722000",
          "153726.725000",
          "153726.728000",
          "153726.730000",
          "153726.733000",
          "153726.736000",
          "153726.739000",
          "153726.750000",
          "153726.752000",
          "153726.755000",
          "153726.758000",
          "153726.761000",
          "153726.764000",
          "153726.767000",
          "153726.770000",
          "153726.773000",
          "153726.776000",
          "153726.779000",
          "153726.781000",
          "153726.784000",
          "153726.787000",
          "153726.790000",
          "153726.793000",
          "153726.796000",
          "153726.799000",
          "153726.802000",
          "153806.710000",
          "153806.713000",
          "153806.716000",
          "153806.719000",
          "153806.728000",
          "153806.731000",
          "153806.734000",
          "153806.736000",
          "153806.739000",
          "153806.742000",
          "153806.746000",
          "153806.749000",
          "153806.752000",
          "153806.755000",
          "153806.758000",
          "153806.761000",
          "153806.764000",
          "153806.766000",
          "153806.769000",
          "153806.772000",
          "153806.775000",
          "153806.778000",
          "153806.781000",
          "153806.784000",
          "153806.787000",
          "153806.790000",
          "153846.710000",
          "153846.713000",
          "153846.716000",
          "153846.719000",
          "153846.722000",
          "153846.725000",
          "153846.728000",
          "153846.731000",
          "153846.734000",
          "153846.737000",
          "153846.740000",
          "153846.743000",
          "153846.746000",
          "153846.748000",
          "153846.761000",
          "153846.764000",
          "153846.766000",
          "153846.769000",
          "153846.772000",
          "153846.775000",
          "153846.778000",
          "153846.781000",
          "153846.784000",
          "153846.787000",
          "153846.790000",
          "153846.793000",
          "153846.795000",
          "153926.709000",
          "153926.712000",
          "153926.715000",
          "153926.718000",
          "153926.721000",
          "153926.724000",
          "153926.727000",
          "153926.730000",
          "153926.733000",
          "153926.735000",
          "153926.738000",
          "153926.741000",
          "153926.744000",
          "153926.747000",
          "153926.750000",
          "153926.753000",
          "153926.756000",
          "153926.759000",
          "153926.762000",
          "153926.765000",
          "153926.768000",
          "153926.771000",
          "153926.774000",
          "153926.777000",
          "153926.780000",
          "153926.783000",
          "153926.786000",
          "154006.710000",
          "154006.713000",
          "154006.716000",
          "154006.719000",
          "154006.722000",
          "154006.725000",
          "154006.728000",
          "154006.731000",
          "154006.734000",
