{
  "aor": 0.0002478239608801956,
  "aqi": 0.005122743349633253,
  "bids_meta": {
    "AcquisitionMatrixPE": 104,
    "AcquisitionNumber": 1,
    "AcquisitionTime": "15:37:27.050000",
    "BandwidthPerPixelPhaseEncode": 17.17,
    "BaseResolution": 104,
    "BodyPartExamined": "BRAIN",
    "CogAtlasID": "trm_4c898da401420",
    "ConsistencyInfo": "N4_VE11C_LATEST_20160120",
    "ConversionSoftware": "dcm2niix",
    "ConversionSoftwareVersion": "v1.0.20171215 (OpenJPEG build) GCC7.3.0",
    "DerivedVendorReportedEchoSpacing": 0.000560011,
    "DeviceSerialNumber": "167006",
    "DwellTime": 2.1e-06,
    "EchoTime": 0.037,
    "EchoTrainLength": 104,
    "EffectiveEchoSpacing": 0.000560011,
    "FlipAngle": 52,
    "ImageComments": "Unaliased_MB4_PE3_LB",
    "ImageOrientationPatientDICOM": [
      0.999691,
      0.019716,
      -0.0151391,
      -0.0232099,
      0.958397,
      -0.284493
    ],
    "ImageType": [
      "ORIGINAL",
      "PRIMARY",
      "M",
      "MB",
      "ND",
      "MOSAIC"
    ],
    "InPlanePhaseEncodingDirectionDICOM": "COL",
    "InstitutionAddress": "Chemin_Queen-Mary_4565_Montreal_District_CA_H3W_1W5",
    "InstitutionName": "IUGM",
    "InstitutionalDepartmentName": "Department",
    "MRAcquisitionType": "2D",
    "MagneticFieldStrength": 3,
    "Manufacturer": "Siemens",
    "ManufacturersModelName": "Prisma_fit",
    "Modality": "MR",
    "MultibandAccelerationFactor": 4,
    "PartialFourier": 1,
    "PatientPosition": "HFS",
    "PercentPhaseFOV": 100,
    "PhaseEncodingDirection": "j-",
    "PhaseEncodingSteps": 104,
    "PhaseResolution": 1,
    "PixelBandwidth": 2290,
    "ProcedureStepDescription": "video5_generic",
    "ProtocolName": "func_task-figures2",
    "PulseSequenceDetails": "%CustomerSeq%_cmrr_mbep2d_bold",
    "ReceiveCoilActiveElements": "HC1-7;NC1,2",
    "ReceiveCoilName": "HeadNeck_64",
    "ReconMatrixPE": 104,
    "RepetitionTime": 1.49,
    "SAR": 0.0295528,
    "ScanOptions": "FS",
    "ScanningSequence": "EP",
    "SequenceName": "epfid2d1_104",
    "SequenceVariant": "SK_SS",
    "SeriesDescription": "func_task-figures2",
    "SeriesNumber": 10,
    "ShimSetting": [
      616,
      -7155,
      -8832,
      653,
      0,
      158,
      0,
      6
    ],
    "SliceThickness": 2,
    "SliceTiming": [
      0,
      0.785,
      0.0975,
      0.8825,
      0.1975,
      0.98,
      0.295,
      1.0775,
      0.3925,
      1.1775,
      0.49,
      1.275,
      0.5875,
      1.3725,
      0.6875,
      0,
      0.785,
      0.0975,
      0.8825,
      0.1975,
      0.98,
      0.295,
      1.0775,
      0.3925,
      1.1775,
      0.49,
      1.275,
      0.5875,
      1.3725,
      0.6875,
      0,
      0.785,
      0.0975,
      0.8825,
      0.1975,
      0.98,
      0.295,
      1.0775,
      0.3925,
      1.1775,
      0.49,
      1.275,
      0.5875,
      1.3725,
      0.6875,
      0,
      0.785,
      0.0975,
      0.8825,
      0.1975,
      0.98,
      0.295,
      1.0775,
      0.3925,
      1.1775,
      0.49,
      1.275,
      0.5875,
      1.3725,
      0.6875
    ],
    "SoftwareVersions": "syngo_MR_E11",
    "SpacingBetweenSlices": 2,
    "StationName": "MRC35049",
    "TaskName": "figures02",
    "TotalReadoutTime": 0.0576811,
    "TxRefAmp": 209.947,
    "dataset": "<unset>",
    "dcmmeta_affine": [
      [
        -1.9993820190429688,
        -0.046419765800237656,
        -0.01780041679739952,
        111.87943267822266
      ],
      [
        -0.039431970566511154,
        1.9167943000793457,
        -0.5695128440856934,
        -75.65497589111328
      ],
      [
        -0.030278194695711136,
        0.5689858794212341,
        1.9171171188354492,
        -70.11121368408203
      ],
      [
        0.0,
        0.0,
        0.0,
        1.0
      ]
    ],
    "dcmmeta_reorient_transform": [
      [
        0.0,
        -1.0,
        0.0,
        103.0
      ],
      [
        1.0,
        0.0,
        0.0,
        0.0
      ],
      [
        0.0,
        0.0,
        1.0,
        0.0
      ],
      [
        0.0,
        0.0,
        0.0,
        1.0
      ]
    ],
    "dcmmeta_shape": [
      104,
      104,
      60,
      409
    ],
    "dcmmeta_slice_dim": 2,
    "dcmmeta_version": 0.6,
    "global": {
      "const": {
        "AcquisitionMatrix": [
          104,
          0,
          0,
          104
        ],
        "AngioFlag": "N",
        "BitsAllocated": 16,
        "BitsStored": 16,
        "BodyPartExamined": "BRAIN",
        "Columns": 832,
        "EchoNumbers": 1,
        "EchoTime": 37.0,
        "EchoTrainLength": 104,
        "FlipAngle": 52.0,
        "HighBit": 15,
        "ImageOrientationPatient": [
          0.99969099606769,
          0.01971598600331,
          -0.0151390976319,
          -0.0232098828789,
          0.95839713375377,
          -0.2844929442874
        ],
        "ImagePositionPatient": [
          -817.9764451086,
          -833.84118108284,
          206.62645851671
        ],
        "ImageType": [
          "ORIGINAL",
          "PRIMARY",
          "M",
          "MB",
          "ND",
          "MOSAIC"
        ],
        "ImagedNucleus": "1H",
        "ImagingFrequency": 123.25922,
        "InPlanePhaseEncodingDirection": "COL",
        "MRAcquisitionType": "2D",
        "MagneticFieldStrength": 3.0,
        "Manufacturer": "SIEMENS",
        "ManufacturerModelName": "Prisma_fit",
        "Modality": "MR",
        "NumberOfAverages": 1.0,
        "NumberOfPhaseEncodingSteps": 104,
        "PercentPhaseFieldOfView": 100.0,
        "PercentSampling": 100.0,
        "PerformedProcedureStepStartTime": "151324.030000",
        "PhotometricInterpretation": "MONOCHROME2",
        "PixelBandwidth": 2290.0,
        "PixelRepresentation": 0,
        "PixelSpacing": [
          2.0,
          2.0
        ],
        "ProtocolName": "func_task-figures2",
        "RepetitionTime": 1490.0,
        "Rows": 832,
        "SAR": 0.02955283392483,
        "SamplesPerPixel": 1,
        "ScanOptions": "FS",
        "ScanningSequence": "EP",
        "SequenceName": "epfid2d1_104",
        "SequenceVariant": [
          "SK",
          "SS"
        ],
        "SeriesDescription": "func_task-figures2",
        "SeriesNumber": 10,
        "SeriesTime": "153849.164000",
        "SliceLocation": -46.658216786706,
        "SliceThickness": 2.0,
        "SmallestImagePixelValue": 0,
        "SoftwareVersions": "syngo MR E11",
        "SpacingBetweenSlices": 1.9999999851878,
        "SpecificCharacterSet": "ISO_IR 100",
        "StudyID": "1",
        "StudyTime": "151323.978000",
        "TransmitCoilName": "Body",
        "VariableFlipAngleFlag": "N",
        "WindowCenterWidthExplanation": "Algo1",
        "dBdt": 0.0
      },
      "slices": {}
    },
    "modality": "bold",
    "run_id": 2,
    "session_id": "012",
    "subject_id": "03",
    "task_id": "figures02",
    "time": {
      "samples": {
        "AcquisitionNumber": [
          1,
          2,
          3,
          4,
          5,
          6,
          7,
          8,
          9,
          10,
          11,
          12,
          13,
          14,
          15,
          16,
          17,
          18,
          19,
          20,
          21,
          22,
          23,
          24,
          25,
          26,
          27,
          28,
          29,
          30,
          31,
          32,
          33,
          34,
          35,
          36,
          37,
          38,
          39,
          40,
          41,
          42,
          43,
          44,
          45,
          46,
          47,
          48,
          49,
          50,
          51,
          52,
          53,
          54,
          55,
          56,
          57,
          58,
          59,
          60,
          61,
          62,
          63,
          64,
          65,
          66,
          67,
          68,
          69,
          70,
          71,
          72,
          73,
          74,
          75,
          76,
          77,
          78,
          79,
          80,
          81,
          82,
          83,
          84,
          85,
          86,
          87,
          88,
          89,
          90,
          91,
          92,
          93,
          94,
          95,
          96,
          97,
          98,
          99,
          100,
          101,
          102,
          103,
          104,
          105,
          106,
          107,
          108,
          109,
          110,
          111,
          112,
          113,
          114,
          115,
          116,
          117,
          118,
          119,
          120,
          121,
          122,
          123,
          124,
          125,
          126,
          127,
          128,
          129,
          130,
          131,
          132,
          133,
          134,
          135,
          136,
          137,
          138,
          139,
          140,
          141,
          142,
          143,
          144,
          145,
          146,
          147,
          148,
          149,
          150,
          151,
          152,
          153,
          154,
          155,
          156,
          157,
          158,
          159,
          160,
          161,
          162,
          163,
          164,
          165,
          166,
          167,
          168,
          169,
          170,
          171,
          172,
          173,
          174,
          175,
          176,
          177,
          178,
          179,
          180,
          181,
          182,
          183,
          184,
          185,
          186,
          187,
          188,
          189,
          190,
          191,
          192,
          193,
          194,
          195,
          196,
          197,
          198,
          199,
          200,
          201,
          202,
          203,
          204,
          205,
          206,
          207,
          208,
          209,
          210,
          211,
          212,
          213,
          214,
          215,
          216,
          217,
          218,
          219,
          220,
          221,
          222,
          223,
          224,
          225,
          226,
          227,
          228,
          229,
          230,
          231,
          232,
          233,
          234,
          235,
          236,
          237,
          238,
          239,
          240,
          241,
          242,
          243,
          244,
          245,
          246,
          247,
          248,
          249,
          250,
          251,
          252,
          253,
          254,
          255,
          256,
          257,
          258,
          259,
          260,
          261,
          262,
          263,
          264,
          265,
          266,
          267,
          268,
          269,
          270,
          271,
          272,
          273,
          274,
          275,
          276,
          277,
          278,
          279,
          280,
          281,
          282,
          283,
          284,
          285,
          286,
          287,
          288,
          289,
          290,
          291,
          292,
          293,
          294,
          295,
          296,
          297,
          298,
          299,
          300,
          301,
          302,
          303,
          304,
          305,
          306,
          307,
          308,
          309,
          310,
          311,
          312,
          313,
          314,
          315,
          316,
          317,
          318,
          319,
          320,
          321,
          322,
          323,
          324,
          325,
          326,
          327,
          328,
          329,
          330,
          331,
          332,
          333,
          334,
          335,
          336,
          337,
          338,
          339,
          340,
          341,
          342,
          343,
          344,
          345,
          346,
          347,
          348,
          349,
          350,
          351,
          352,
          353,
          354,
          355,
          356,
          357,
          358,
          359,
          360,
          361,
          362,
          363,
          364,
          365,
          366,
          367,
          368,
          369,
          370,
          371,
          372,
          373,
          374,
          375,
          376,
          377,
          378,
          379,
          380,
          381,
          382,
          383,
          384,
          385,
          386,
          387,
          388,
          389,
          390,
          391,
          392,
          393,
          394,
          395,
          396,
          397,
          398,
          399,
          400,
          401,
          402,
          403,
          404,
          405,
          406,
          407,
          408,
          409
        ],
        "AcquisitionTime": [
          "153727.050000",
          "153728.540000",
          "153730.030000",
          "153731.520000",
          "153733.010000",
          "153734.500000",
          "153735.990000",
          "153737.480000",
          "153738.970000",
          "153740.460000",
          "153741.950000",
          "153743.440000",
          "153744.930000",
          "153746.420000",
          "153747.910000",
          "153749.400000",
          "153750.890000",
          "153752.380000",
          "153753.870000",
          "153755.360000",
          "153756.850000",
          "153758.340000",
          "153759.830000",
          "153801.320000",
          "153802.810000",
          "153804.300000",
          "153805.790000",
          "153807.280000",
          "153808.770000",
          "153810.260000",
          "153811.750000",
          "153813.240000",
          "153814.730000",
          "153816.220000",
          "153817.710000",
          "153819.200000",
          "153820.690000",
          "153822.180000",
          "153823.670000",
          "153825.160000",
          "153826.650000",
          "153828.140000",
          "153829.630000",
          "153831.120000",
          "153832.610000",
          "153834.100000",
          "153835.590000",
          "153837.080000",
          "153838.570000",
          "153840.060000",
          "153841.550000",
          "153843.040000",
          "153844.530000",
          "153846.020000",
          "153847.510000",
          "153849.000000",
          "153850.490000",
          "153851.980000",
          "153853.470000",
          "153854.960000",
          "153856.450000",
          "153857.940000",
          "153859.430000",
          "153900.920000",
          "153902.410000",
          "153903.900000",
          "153905.390000",
          "153906.880000",
          "153908.370000",
          "153909.860000",
          "153911.350000",
          "153912.840000",
          "153914.330000",
          "153915.820000",
          "153917.310000",
          "153918.800000",
          "153920.290000",
          "153921.780000",
          "153923.270000",
          "153924.760000",
          "153926.250000",
          "153927.740000",
          "153929.230000",
          "153930.720000",
          "153932.210000",
          "153933.700000",
          "153935.190000",
          "153936.680000",
          "153938.170000",
          "153939.660000",
          "153941.150000",
          "153942.640000",
          "153944.130000",
          "153945.620000",
          "153947.110000",
          "153948.600000",
          "153950.090000",
          "153951.580000",
          "153953.070000",
          "153954.560000",
          "153956.050000",
          "153957.540000",
          "153959.030000",
          "154000.520000",
          "154002.010000",
          "154003.500000",
          "154004.990000",
          "154006.480000",
          "154007.970000",
          "154009.460000",
          "154010.950000",
          "154012.440000",
          "154013.930000",
          "154015.420000",
          "154016.910000",
          "154018.400000",
          "154019.890000",
          "154021.380000",
          "154022.870000",
          "154024.360000",
          "154025.850000",
          "154027.340000",
          "154028.830000",
          "154030.320000",
          "154031.810000",
          "154033.300000",
          "154034.790000",
          "154036.280000",
          "154037.770000",
          "154039.260000",
          "154040.750000",
          "154042.240000",
          "154043.730000",
          "154045.220000",
          "154046.710000",
          "154048.200000",
          "154049.690000",
          "154051.180000",
          "154052.670000",
          "154054.160000",
          "154055.650000",
          "154057.140000",
          "154058.630000",
          "154100.120000",
          "154101.610000",
          "154103.100000",
          "154104.590000",
          "154106.080000",
          "154107.570000",
          "154109.060000",
          "154110.550000",
          "154112.040000",
          "154113.530000",
          "154115.020000",
          "154116.510000",
          "154118.000000",
          "154119.490000",
          "154120.980000",
          "154122.470000",
          "154123.960000",
          "154125.450000",
          "154126.940000",
          "154128.430000",
          "154129.920000",
          "154131.410000",
          "154132.900000",
          "154134.390000",
          "154135.880000",
          "154137.370000",
          "154138.860000",
          "154140.350000",
          "154141.840000",
          "154143.330000",
          "154144.820000",
          "154146.310000",
          "154147.800000",
          "154149.290000",
          "154150.780000",
          "154152.270000",
          "154153.760000",
          "154155.250000",
          "154156.740000",
          "154158.230000",
          "154159.720000",
          "154201.210000",
          "154202.700000",
          "154204.190000",
          "154205.680000",
          "154207.170000",
          "154208.660000",
          "154210.150000",
          "154211.640000",
          "154213.130000",
          "154214.620000",
          "154216.110000",
          "154217.600000",
          "154219.090000",
          "154220.580000",
          "154222.070000",
          "154223.560000",
          "154225.050000",
          "154226.540000",
          "154228.030000",
          "154229.520000",
          "154231.010000",
          "154232.500000",
          "154233.990000",
          "154235.480000",
          "154236.970000",
          "154238.460000",
          "154239.950000",
          "154241.440000",
          "154242.930000",
          "154244.420000",
          "154245.910000",
          "154247.400000",
          "154248.890000",
          "154250.380000",
          "154251.870000",
          "154253.360000",
          "154254.850000",
          "154256.340000",
          "154257.830000",
          "154259.320000",
          "154300.810000",
          "154302.300000",
          "154303.790000",
          "154305.280000",
          "154306.770000",
          "154308.260000",
          "154309.750000",
          "154311.240000",
          "154312.730000",
          "154314.220000",
          "154315.710000",
          "154317.200000",
          "154318.690000",
          "154320.180000",
          "154321.670000",
          "154323.160000",
          "154324.650000",
          "154326.140000",
          "154327.630000",
          "154329.120000",
          "154330.610000",
          "154332.100000",
          "154333.590000",
          "154335.080000",
          "154336.570000",
          "154338.060000",
          "154339.550000",
          "154341.040000",
          "154342.530000",
          "154344.020000",
          "154345.510000",
          "154347.000000",
          "154348.490000",
          "154349.980000",
          "154351.470000",
          "154352.960000",
          "154354.450000",
          "154355.940000",
          "154357.430000",
          "154358.920000",
          "154400.410000",
          "154401.900000",
          "154403.390000",
          "154404.880000",
          "154406.370000",
          "154407.860000",
          "154409.350000",
          "154410.840000",
          "154412.330000",
          "154413.820000",
          "154415.310000",
          "154416.800000",
          "154418.290000",
          "154419.780000",
          "154421.270000",
          "154422.760000",
          "154424.250000",
          "154425.740000",
          "154427.230000",
          "154428.720000",
          "154430.210000",
          "154431.700000",
          "154433.190000",
          "154434.680000",
          "154436.170000",
          "154437.660000",
          "154439.150000",
          "154440.640000",
          "154442.130000",
          "154443.620000",
          "154445.110000",
          "154446.600000",
          "154448.090000",
          "154449.580000",
          "154451.070000",
          "154452.560000",
          "154454.050000",
          "154455.540000",
          "154457.030000",
          "154458.520000",
          "154500.010000",
          "154501.500000",
          "154502.990000",
          "154504.480000",
          "154505.970000",
          "154507.460000",
          "154508.950000",
          "154510.440000",
          "154511.930000",
          "154513.420000",
          "154514.910000",
          "154516.400000",
          "154517.890000",
          "154519.380000",
          "154520.870000",
          "154522.360000",
          "154523.850000",
          "154525.340000",
          "154526.830000",
          "154528.320000",
          "154529.810000",
          "154531.300000",
          "154532.790000",
          "154534.280000",
          "154535.770000",
          "154537.260000",
          "154538.750000",
          "154540.240000",
          "154541.730000",
          "154543.220000",
          "154544.710000",
          "154546.200000",
          "154547.690000",
          "154549.180000",
          "154550.670000",
          "154552.160000",
          "154553.650000",
          "154555.140000",
          "154556.630000",
          "154558.120000",
          "154559.610000",
          "154601.100000",
          "154602.590000",
          "154604.080000",
          "154605.570000",
          "154607.060000",
          "154608.550000",
          "154610.040000",
          "154611.530000",
          "154613.020000",
          "154614.510000",
          "154616.000000",
          "154617.490000",
          "154618.980000",
          "154620.470000",
          "154621.960000",
          "154623.450000",
          "154624.940000",
          "154626.430000",
          "154627.920000",
          "154629.410000",
          "154630.900000",
          "154632.390000",
          "154633.880000",
          "154635.370000",
          "154636.860000",
          "154638.350000",
          "154639.840000",
          "154641.330000",
          "154642.820000",
          "154644.310000",
          "154645.800000",
          "154647.290000",
          "154648.780000",
          "154650.270000",
          "154651.760000",
          "154653.250000",
          "154654.740000",
          "154656.230000",
          "154657.720000",
          "154659.210000",
          "154700.700000",
          "154702.190000",
          "154703.680000",
          "154705.170000",
          "154706.660000",
          "154708.150000",
          "154709.640000",
          "154711.130000",
          "154712.620000",
          "154714.110000",
          "154715.600000",
          "154717.090000",
          "154718.580000",
          "154720.070000",
          "154721.560000",
          "154723.050000",
          "154724.540000",
          "154726.030000",
          "154727.520000",
          "154729.010000",
          "154730.500000",
          "154731.990000",
          "154733.480000",
          "154734.970000"
        ],
        "ContentTime": [
          "153849.166000",
          "153849.170000",
          "153849.173000",
          "153849.176000",
          "153849.179000",
          "153849.182000",
          "153849.185000",
          "153849.187000",
          "153849.190000",
          "153849.193000",
          "153849.196000",
          "153849.199000",
          "153849.202000",
          "153849.205000",
          "153849.208000",
          "153849.211000",
          "153849.258000",
          "153849.261000",
          "153849.264000",
          "153849.267000",
          "153849.270000",
          "153849.273000",
          "153849.276000",
          "153849.279000",
          "153849.281000",
          "153849.284000",
          "153849.287000",
          "153909.134000",
          "153909.137000",
          "153909.140000",
          "153909.143000",
          "153909.146000",
          "153909.149000",
          "153909.152000",
          "153909.155000",
          "153909.157000",
          "153909.160000",
          "153909.163000",
          "153909.172000",
          "153909.175000",
          "153909.178000",
          "153909.181000",
          "153909.183000",
          "153909.186000",
          "153909.189000",
          "153909.192000",
          "153909.195000",
          "153929.134000",
          "153929.137000",
          "153929.140000",
          "153929.143000",
          "153929.164000",
          "153929.166000",
          "153929.169000",
          "153929.172000",
          "153929.175000",
          "153929.178000",
          "153929.181000",
          "153929.184000",
          "153929.187000",
          "153929.190000",
          "153929.193000",
          "153929.195000",
          "153929.198000",
          "153929.201000",
          "153929.214000",
          "153929.217000",
          "153949.134000",
          "153949.137000",
          "153949.141000",
          "153949.144000",
          "153949.147000",
          "153949.150000",
          "153949.153000",
          "153949.156000",
          "153949.159000",
          "153949.162000",
          "153949.164000",
          "153949.167000",
          "153949.170000",
          "153949.173000",
          "153949.176000",
          "153949.179000",
          "153949.182000",
          "153949.185000",
          "153949.187000",
          "153949.190000",
          "154009.134000",
          "154009.137000",
          "154009.140000",
          "154009.143000",
          "154009.146000",
          "154009.149000",
          "154009.151000",
          "154009.154000",
          "154009.157000",
          "154009.160000",
          "154009.163000",
          "154009.166000",
          "154009.169000",
          "154009.175000",
          "154009.178000",
          "154009.181000",
          "154009.184000",
          "154009.187000",
          "154009.189000",
          "154009.192000",
          "154009.195000",
          "154049.133000",
          "154049.136000",
          "154049.139000",
          "154049.142000",
          "154049.145000",
          "154049.148000",
          "154049.151000",
          "154049.154000",
          "154049.157000",
          "154049.160000",
          "154049.162000",
          "154049.165000",
          "154049.168000",
          "154049.171000",
          "154049.174000",
          "154049.177000",
          "154049.180000",
          "154049.183000",
          "154049.186000",
          "154049.189000",
          "154049.192000",
          "154049.195000",
          "154049.197000",
          "154049.200000",
          "154049.203000",
          "154049.206000",
          "154049.209000",
          "154129.134000",
          "154129.137000",
          "154129.140000",
          "154129.143000",
          "154129.146000",
          "154129.149000",
          "154129.152000",
          "154129.155000",
          "154129.158000",
          "154129.160000",
          "154129.164000",
          "154129.167000",
          "154129.169000",
          "154129.172000",
          "154129.175000",
          "154129.178000",
          "154129.181000",
          "154129.184000",
          "154129.187000",
          "154129.190000",
          "154129.193000",
          "154129.195000",
          "154129.198000",
          "154129.201000",
          "154129.204000",
          "154129.207000",
          "154129.210000",
          "154209.134000",
          "154209.137000",
          "154209.140000",
          "154209.143000",
          "154209.146000",
          "154209.149000",
          "154209.151000",
          "154209.154000",
          "154209.157000",
          "154209.160000",
          "154209.163000",
          "154209.166000",
          "154209.169000",
          "154209.172000",
          "154209.175000",
          "154209.178000",
          "154209.181000",
          "154209.184000",
          "154209.187000",
          "154209.190000",
          "154209.192000",
          "154209.195000",
          "154209.199000",
          "154209.202000",
          "154209.205000",
          "154209.208000",
          "154249.134000",
          "154249.137000",
          "154249.140000",
          "154249.143000",
          "154249.146000",
          "154249.149000",
          "154249.152000",
          "154249.155000",
          "154249.157000",
          "154249.160000",
          "154249.163000",
          "154249.166000",
          "154249.169000",
          "154249.172000",
          "154249.175000",
          "154249.178000",
          "154249.181000",
          "154249.184000",
          "154249.186000",
          "154249.189000",
          "154249.192000",
          "154249.211000",
          "154249.214000",
          "154249.217000",
          "154249.220000",
          "154249.223000",
          "154249.225000",
          "154329.133000",
          "154329.136000",
