{
  "aor": 0.000654170731707317,
  "aqi": 0.005631105853658537,
  "bids_meta": {
    "AcquisitionMatrixPE": 104,
    "AcquisitionNumber": 1,
    "AcquisitionTime": "15:48:3.757500",
    "BandwidthPerPixelPhaseEncode": 17.17,
    "BaseResolution": 104,
    "BodyPartExamined": "BRAIN",
    "CogAtlasID": "trm_4c898da401420",
    "ConsistencyInfo": "N4_VE11C_LATEST_20160120",
    "ConversionSoftware": "dcm2niix",
    "ConversionSoftwareVersion": "v1.0.20171215 (OpenJPEG build) GCC7.3.0",
    "DerivedVendorReportedEchoSpacing": 0.000560011,
    "DeviceSerialNumber": "167006",
    "DwellTime": 2.1e-06,
    "EchoTime": 0.037,
    "EchoTrainLength": 104,
    "EffectiveEchoSpacing": 0.000560011,
    "FlipAngle": 52,
    "ImageComments": "Unaliased_MB4_PE3_LB",
    "ImageOrientationPatientDICOM": [
      0.999691,
      0.019716,
      -0.0151391,
      -0.0232099,
      0.958397,
      -0.284493
    ],
    "ImageType": [
      "ORIGINAL",
      "PRIMARY",
      "M",
      "MB",
      "ND",
      "MOSAIC"
    ],
    "InPlanePhaseEncodingDirectionDICOM": "COL",
    "InstitutionAddress": "Chemin_Queen-Mary_4565_Montreal_District_CA_H3W_1W5",
    "InstitutionName": "IUGM",
    "InstitutionalDepartmentName": "Department",
    "MRAcquisitionType": "2D",
    "MagneticFieldStrength": 3,
    "Manufacturer": "Siemens",
    "ManufacturersModelName": "Prisma_fit",
    "Modality": "MR",
    "MultibandAccelerationFactor": 4,
    "PartialFourier": 1,
    "PatientPosition": "HFS",
    "PercentPhaseFOV": 100,
    "PhaseEncodingDirection": "j-",
    "PhaseEncodingSteps": 104,
    "PhaseResolution": 1,
    "PixelBandwidth": 2290,
    "ProcedureStepDescription": "video5_generic",
    "ProtocolName": "func_task-figures3",
    "PulseSequenceDetails": "%CustomerSeq%_cmrr_mbep2d_bold",
    "ReceiveCoilActiveElements": "HC1-7;NC1,2",
    "ReceiveCoilName": "HeadNeck_64",
    "ReconMatrixPE": 104,
    "RepetitionTime": 1.49,
    "SAR": 0.0295535,
    "ScanOptions": "FS",
    "ScanningSequence": "EP",
    "SequenceName": "epfid2d1_104",
    "SequenceVariant": "SK_SS",
    "SeriesDescription": "func_task-figures3",
    "SeriesNumber": 12,
    "ShimSetting": [
      616,
      -7155,
      -8832,
      653,
      0,
      158,
      0,
      6
    ],
    "SliceThickness": 2,
    "SliceTiming": [
      0,
      0.7825,
      0.0975,
      0.8825,
      0.195,
      0.98,
      0.2925,
      1.0775,
      0.3925,
      1.175,
      0.49,
      1.2725,
      0.5875,
      1.3725,
      0.685,
      0,
      0.7825,
      0.0975,
      0.8825,
      0.195,
      0.98,
      0.2925,
      1.0775,
      0.3925,
      1.175,
      0.49,
      1.2725,
      0.5875,
      1.3725,
      0.685,
      0,
      0.7825,
      0.0975,
      0.8825,
      0.195,
      0.98,
      0.2925,
      1.0775,
      0.3925,
      1.175,
      0.49,
      1.2725,
      0.5875,
      1.3725,
      0.685,
      0,
      0.7825,
      0.0975,
      0.8825,
      0.195,
      0.98,
      0.2925,
      1.0775,
      0.3925,
      1.175,
      0.49,
      1.2725,
      0.5875,
      1.3725,
      0.685
    ],
    "SoftwareVersions": "syngo_MR_E11",
    "SpacingBetweenSlices": 2,
    "StationName": "MRC35049",
    "TaskName": "figures03",
    "TotalReadoutTime": 0.0576811,
    "TxRefAmp": 209.947,
    "dataset": "<unset>",
    "dcmmeta_affine": [
      [
        -1.9993820190429688,
        -0.046419765800237656,
        -0.01780041679739952,
        111.87943267822266
      ],
      [
        -0.039431970566511154,
        1.9167943000793457,
        -0.5695128440856934,
        -75.65497589111328
      ],
      [
        -0.030278194695711136,
        0.5689858794212341,
        1.9171171188354492,
        -70.11121368408203
      ],
      [
        0.0,
        0.0,
        0.0,
        1.0
      ]
    ],
    "dcmmeta_reorient_transform": [
      [
        0.0,
        -1.0,
        0.0,
        103.0
      ],
      [
        1.0,
        0.0,
        0.0,
        0.0
      ],
      [
        0.0,
        0.0,
        1.0,
        0.0
      ],
      [
        0.0,
        0.0,
        0.0,
        1.0
      ]
    ],
    "dcmmeta_shape": [
      104,
      104,
      60,
      411
    ],
    "dcmmeta_slice_dim": 2,
    "dcmmeta_version": 0.6,
    "global": {
      "const": {
        "AcquisitionMatrix": [
          104,
          0,
          0,
          104
        ],
        "AngioFlag": "N",
        "BitsAllocated": 16,
        "BitsStored": 16,
        "BodyPartExamined": "BRAIN",
        "Columns": 832,
        "EchoNumbers": 1,
        "EchoTime": 37.0,
        "EchoTrainLength": 104,
        "FlipAngle": 52.0,
        "HighBit": 15,
        "ImageOrientationPatient": [
          0.99969099606769,
          0.01971598600331,
          -0.0151390976319,
          -0.0232098828789,
          0.95839713375377,
          -0.2844929442874
        ],
        "ImagePositionPatient": [
          -817.9764451086,
          -833.84118108284,
          206.62645851671
        ],
        "ImageType": [
          "ORIGINAL",
          "PRIMARY",
          "M",
          "MB",
          "ND",
          "MOSAIC"
        ],
        "ImagedNucleus": "1H",
        "ImagingFrequency": 123.259225,
        "InPlanePhaseEncodingDirection": "COL",
        "MRAcquisitionType": "2D",
        "MagneticFieldStrength": 3.0,
        "Manufacturer": "SIEMENS",
        "ManufacturerModelName": "Prisma_fit",
        "Modality": "MR",
        "NumberOfAverages": 1.0,
        "NumberOfPhaseEncodingSteps": 104,
        "PercentPhaseFieldOfView": 100.0,
        "PercentSampling": 100.0,
        "PerformedProcedureStepStartTime": "151324.030000",
        "PhotometricInterpretation": "MONOCHROME2",
        "PixelBandwidth": 2290.0,
        "PixelRepresentation": 0,
        "PixelSpacing": [
          2.0,
          2.0
        ],
        "ProtocolName": "func_task-figures3",
        "RepetitionTime": 1490.0,
        "Rows": 832,
        "SAR": 0.02955352865349,
        "SamplesPerPixel": 1,
        "ScanOptions": "FS",
        "ScanningSequence": "EP",
        "SequenceName": "epfid2d1_104",
        "SequenceVariant": [
          "SK",
          "SS"
        ],
        "SeriesDescription": "func_task-figures3",
        "SeriesNumber": 12,
        "SeriesTime": "154919.966000",
        "SliceLocation": -46.658216786706,
        "SliceThickness": 2.0,
        "SmallestImagePixelValue": 0,
        "SoftwareVersions": "syngo MR E11",
        "SpacingBetweenSlices": 1.9999999851878,
        "SpecificCharacterSet": "ISO_IR 100",
        "StudyID": "1",
        "StudyTime": "151323.978000",
        "TransmitCoilName": "Body",
        "VariableFlipAngleFlag": "N",
        "WindowCenterWidthExplanation": "Algo1",
        "dBdt": 0.0
      },
      "slices": {}
    },
    "modality": "bold",
    "run_id": 2,
    "session_id": "012",
    "subject_id": "03",
    "task_id": "figures03",
    "time": {
      "samples": {
        "AcquisitionNumber": [
          1,
          2,
          3,
          4,
          5,
          6,
          7,
          8,
          9,
          10,
          11,
          12,
          13,
          14,
          15,
          16,
          17,
          18,
          19,
          20,
          21,
          22,
          23,
          24,
          25,
          26,
          27,
          28,
          29,
          30,
          31,
          32,
          33,
          34,
          35,
          36,
          37,
          38,
          39,
          40,
          41,
          42,
          43,
          44,
          45,
          46,
          47,
          48,
          49,
          50,
          51,
          52,
          53,
          54,
          55,
          56,
          57,
          58,
          59,
          60,
          61,
          62,
          63,
          64,
          65,
          66,
          67,
          68,
          69,
          70,
          71,
          72,
          73,
          74,
          75,
          76,
          77,
          78,
          79,
          80,
          81,
          82,
          83,
          84,
          85,
          86,
          87,
          88,
          89,
          90,
          91,
          92,
          93,
          94,
          95,
          96,
          97,
          98,
          99,
          100,
          101,
          102,
          103,
          104,
          105,
          106,
          107,
          108,
          109,
          110,
          111,
          112,
          113,
          114,
          115,
          116,
          117,
          118,
          119,
          120,
          121,
          122,
          123,
          124,
          125,
          126,
          127,
          128,
          129,
          130,
          131,
          132,
          133,
          134,
          135,
          136,
          137,
          138,
          139,
          140,
          141,
          142,
          143,
          144,
          145,
          146,
          147,
          148,
          149,
          150,
          151,
          152,
          153,
          154,
          155,
          156,
          157,
          158,
          159,
          160,
          161,
          162,
          163,
          164,
          165,
          166,
          167,
          168,
          169,
          170,
          171,
          172,
          173,
          174,
          175,
          176,
          177,
          178,
          179,
          180,
          181,
          182,
          183,
          184,
          185,
          186,
          187,
          188,
          189,
          190,
          191,
          192,
          193,
          194,
          195,
          196,
          197,
          198,
          199,
          200,
          201,
          202,
          203,
          204,
          205,
          206,
          207,
          208,
          209,
          210,
          211,
          212,
          213,
          214,
          215,
          216,
          217,
          218,
          219,
          220,
          221,
          222,
          223,
          224,
          225,
          226,
          227,
          228,
          229,
          230,
          231,
          232,
          233,
          234,
          235,
          236,
          237,
          238,
          239,
          240,
          241,
          242,
          243,
          244,
          245,
          246,
          247,
          248,
          249,
          250,
          251,
          252,
          253,
          254,
          255,
          256,
          257,
          258,
          259,
          260,
          261,
          262,
          263,
          264,
          265,
          266,
          267,
          268,
          269,
          270,
          271,
          272,
          273,
          274,
          275,
          276,
          277,
          278,
          279,
          280,
          281,
          282,
          283,
          284,
          285,
          286,
          287,
          288,
          289,
          290,
          291,
          292,
          293,
          294,
          295,
          296,
          297,
          298,
          299,
          300,
          301,
          302,
          303,
          304,
          305,
          306,
          307,
          308,
          309,
          310,
          311,
          312,
          313,
          314,
          315,
          316,
          317,
          318,
          319,
          320,
          321,
          322,
          323,
          324,
          325,
          326,
          327,
          328,
          329,
          330,
          331,
          332,
          333,
          334,
          335,
          336,
          337,
          338,
          339,
          340,
          341,
          342,
          343,
          344,
          345,
          346,
          347,
          348,
          349,
          350,
          351,
          352,
          353,
          354,
          355,
          356,
          357,
          358,
          359,
          360,
          361,
          362,
          363,
          364,
          365,
          366,
          367,
          368,
          369,
          370,
          371,
          372,
          373,
          374,
          375,
          376,
          377,
          378,
          379,
          380,
          381,
          382,
          383,
          384,
          385,
          386,
          387,
          388,
          389,
          390,
          391,
          392,
          393,
          394,
          395,
          396,
          397,
          398,
          399,
          400,
          401,
          402,
          403,
          404,
          405,
          406,
          407,
          408,
          409,
          410,
          411
        ],
        "AcquisitionTime": [
          "154803.757500",
          "154805.247500",
          "154806.737500",
          "154808.227500",
          "154809.717500",
          "154811.207500",
          "154812.697500",
          "154814.187500",
          "154815.677500",
          "154817.167500",
          "154818.657500",
          "154820.147500",
          "154821.637500",
          "154823.127500",
          "154824.617500",
          "154826.107500",
          "154827.597500",
          "154829.087500",
          "154830.577500",
          "154832.067500",
          "154833.557500",
          "154835.047500",
          "154836.537500",
          "154838.027500",
          "154839.517500",
          "154841.007500",
          "154842.497500",
          "154843.987500",
          "154845.477500",
          "154846.967500",
          "154848.457500",
          "154849.947500",
          "154851.437500",
          "154852.927500",
          "154854.417500",
          "154855.907500",
          "154857.397500",
          "154858.887500",
          "154900.377500",
          "154901.867500",
          "154903.357500",
          "154904.847500",
          "154906.337500",
          "154907.827500",
          "154909.317500",
          "154910.807500",
          "154912.297500",
          "154913.787500",
          "154915.277500",
          "154916.767500",
          "154918.257500",
          "154919.747500",
          "154921.237500",
          "154922.727500",
          "154924.217500",
          "154925.707500",
          "154927.197500",
          "154928.687500",
          "154930.177500",
          "154931.667500",
          "154933.157500",
          "154934.647500",
          "154936.137500",
          "154937.627500",
          "154939.117500",
          "154940.607500",
          "154942.097500",
          "154943.587500",
          "154945.077500",
          "154946.567500",
          "154948.057500",
          "154949.547500",
          "154951.037500",
          "154952.527500",
          "154954.017500",
          "154955.507500",
          "154956.997500",
          "154958.487500",
          "154959.977500",
          "155001.467500",
          "155002.957500",
          "155004.447500",
          "155005.937500",
          "155007.427500",
          "155008.917500",
          "155010.407500",
          "155011.897500",
          "155013.387500",
          "155014.877500",
          "155016.367500",
          "155017.857500",
          "155019.347500",
          "155020.837500",
          "155022.327500",
          "155023.817500",
          "155025.307500",
          "155026.797500",
          "155028.287500",
          "155029.777500",
          "155031.267500",
          "155032.757500",
          "155034.247500",
          "155035.737500",
          "155037.227500",
          "155038.717500",
          "155040.207500",
          "155041.697500",
          "155043.187500",
          "155044.677500",
          "155046.167500",
          "155047.657500",
          "155049.147500",
          "155050.637500",
          "155052.127500",
          "155053.617500",
          "155055.107500",
          "155056.597500",
          "155058.087500",
          "155059.577500",
          "155101.067500",
          "155102.557500",
          "155104.047500",
          "155105.537500",
          "155107.027500",
          "155108.517500",
          "155110.007500",
          "155111.497500",
          "155112.987500",
          "155114.477500",
          "155115.967500",
          "155117.457500",
          "155118.947500",
          "155120.437500",
          "155121.927500",
          "155123.417500",
          "155124.907500",
          "155126.397500",
          "155127.887500",
          "155129.377500",
          "155130.867500",
          "155132.357500",
          "155133.847500",
          "155135.337500",
          "155136.827500",
          "155138.317500",
          "155139.807500",
          "155141.297500",
          "155142.787500",
          "155144.277500",
          "155145.767500",
          "155147.257500",
          "155148.747500",
          "155150.237500",
          "155151.727500",
          "155153.217500",
          "155154.707500",
          "155156.197500",
          "155157.687500",
          "155159.177500",
          "155200.667500",
          "155202.157500",
          "155203.647500",
          "155205.137500",
          "155206.627500",
          "155208.117500",
          "155209.607500",
          "155211.097500",
          "155212.587500",
          "155214.077500",
          "155215.567500",
          "155217.057500",
          "155218.547500",
          "155220.037500",
          "155221.527500",
          "155223.017500",
          "155224.507500",
          "155225.997500",
          "155227.487500",
          "155228.977500",
          "155230.467500",
          "155231.957500",
          "155233.447500",
          "155234.937500",
          "155236.427500",
          "155237.917500",
          "155239.407500",
          "155240.897500",
          "155242.387500",
          "155243.877500",
          "155245.367500",
          "155246.857500",
          "155248.347500",
          "155249.837500",
          "155251.327500",
          "155252.817500",
          "155254.307500",
          "155255.797500",
          "155257.287500",
          "155258.777500",
          "155300.267500",
          "155301.757500",
          "155303.247500",
          "155304.737500",
          "155306.227500",
          "155307.717500",
          "155309.207500",
          "155310.697500",
          "155312.187500",
          "155313.677500",
          "155315.167500",
          "155316.657500",
          "155318.147500",
          "155319.637500",
          "155321.127500",
          "155322.617500",
          "155324.107500",
          "155325.597500",
          "155327.087500",
          "155328.577500",
          "155330.067500",
          "155331.557500",
          "155333.047500",
          "155334.537500",
          "155336.027500",
          "155337.517500",
          "155339.007500",
          "155340.497500",
          "155341.987500",
          "155343.477500",
          "155344.967500",
          "155346.457500",
          "155347.947500",
          "155349.437500",
          "155350.927500",
          "155352.417500",
          "155353.907500",
          "155355.397500",
          "155356.887500",
          "155358.377500",
          "155359.867500",
          "155401.357500",
          "155402.847500",
          "155404.337500",
          "155405.827500",
          "155407.317500",
          "155408.807500",
          "155410.297500",
          "155411.787500",
          "155413.277500",
          "155414.767500",
          "155416.257500",
          "155417.747500",
          "155419.237500",
          "155420.727500",
          "155422.217500",
          "155423.707500",
          "155425.197500",
          "155426.687500",
          "155428.177500",
          "155429.667500",
          "155431.157500",
          "155432.647500",
          "155434.137500",
          "155435.627500",
          "155437.117500",
          "155438.607500",
          "155440.097500",
          "155441.587500",
          "155443.077500",
          "155444.567500",
          "155446.057500",
          "155447.547500",
          "155449.037500",
          "155450.527500",
          "155452.017500",
          "155453.507500",
          "155454.997500",
          "155456.487500",
          "155457.977500",
          "155459.467500",
          "155500.957500",
          "155502.447500",
          "155503.937500",
          "155505.427500",
          "155506.917500",
          "155508.407500",
          "155509.897500",
          "155511.387500",
          "155512.877500",
          "155514.367500",
          "155515.857500",
          "155517.347500",
          "155518.837500",
          "155520.327500",
          "155521.817500",
          "155523.307500",
          "155524.797500",
          "155526.287500",
          "155527.777500",
          "155529.267500",
          "155530.757500",
          "155532.247500",
          "155533.737500",
          "155535.227500",
          "155536.717500",
          "155538.207500",
          "155539.697500",
          "155541.187500",
          "155542.677500",
          "155544.167500",
          "155545.657500",
          "155547.147500",
          "155548.637500",
          "155550.127500",
          "155551.617500",
          "155553.107500",
          "155554.597500",
          "155556.087500",
          "155557.577500",
          "155559.067500",
          "155600.557500",
          "155602.047500",
          "155603.537500",
          "155605.027500",
          "155606.517500",
          "155608.007500",
          "155609.497500",
          "155610.987500",
          "155612.477500",
          "155613.967500",
          "155615.457500",
          "155616.947500",
          "155618.437500",
          "155619.927500",
          "155621.417500",
          "155622.907500",
          "155624.397500",
          "155625.887500",
          "155627.377500",
          "155628.867500",
          "155630.357500",
          "155631.847500",
          "155633.337500",
          "155634.827500",
          "155636.317500",
          "155637.807500",
          "155639.297500",
          "155640.787500",
          "155642.277500",
          "155643.767500",
          "155645.257500",
          "155646.747500",
          "155648.237500",
          "155649.727500",
          "155651.217500",
          "155652.707500",
          "155654.197500",
          "155655.687500",
          "155657.177500",
          "155658.667500",
          "155700.157500",
          "155701.647500",
          "155703.137500",
          "155704.627500",
          "155706.117500",
          "155707.607500",
          "155709.097500",
          "155710.587500",
          "155712.077500",
          "155713.567500",
          "155715.057500",
          "155716.547500",
          "155718.037500",
          "155719.527500",
          "155721.017500",
          "155722.507500",
          "155723.997500",
          "155725.487500",
          "155726.977500",
          "155728.467500",
          "155729.957500",
          "155731.447500",
          "155732.937500",
          "155734.427500",
          "155735.917500",
          "155737.407500",
          "155738.897500",
          "155740.387500",
          "155741.877500",
          "155743.367500",
          "155744.857500",
          "155746.347500",
          "155747.837500",
          "155749.327500",
          "155750.817500",
          "155752.307500",
          "155753.797500",
          "155755.287500",
          "155756.777500",
          "155758.267500",
          "155759.757500",
          "155801.247500",
          "155802.737500",
          "155804.227500",
          "155805.717500",
          "155807.207500",
          "155808.697500",
          "155810.187500",
          "155811.677500",
          "155813.167500",
          "155814.657500"
        ],
        "ContentTime": [
          "154919.969000",
          "154919.973000",
          "154919.976000",
          "154919.979000",
          "154919.982000",
          "154919.985000",
          "154919.988000",
          "154919.991000",
          "154919.993000",
          "154919.996000",
          "154919.999000",
          "154920.002000",
          "154920.005000",
          "154920.019000",
          "154920.022000",
          "154920.025000",
          "154920.028000",
          "154920.031000",
          "154920.034000",
          "154920.037000",
          "154920.040000",
          "154939.934000",
          "154939.937000",
          "154939.940000",
          "154939.955000",
          "154939.958000",
          "154939.961000",
          "154939.964000",
          "154939.967000",
          "154939.970000",
          "154939.972000",
          "154939.975000",
          "154939.978000",
          "154939.981000",
          "154939.984000",
          "154939.987000",
          "154939.990000",
          "154939.993000",
          "154939.996000",
          "154940.000000",
          "154940.010000",
          "154959.934000",
          "154959.937000",
          "154959.940000",
          "154959.943000",
          "154959.946000",
          "154959.948000",
          "154959.951000",
          "154959.954000",
          "154959.957000",
          "154959.960000",
          "154959.963000",
          "154959.966000",
          "154959.969000",
          "154959.972000",
          "154959.974000",
          "154959.977000",
          "154959.980000",
          "154959.983000",
          "154959.986000",
          "154959.989000",
          "154959.992000",
          "155019.933000",
          "155019.936000",
          "155019.939000",
          "155019.942000",
          "155019.945000",
          "155019.948000",
          "155019.951000",
          "155019.953000",
          "155019.956000",
          "155019.959000",
          "155019.962000",
          "155019.965000",
          "155019.968000",
          "155019.971000",
          "155019.974000",
          "155019.977000",
          "155019.979000",
          "155019.982000",
          "155019.985000",
          "155019.988000",
          "155039.933000",
          "155039.936000",
          "155039.939000",
          "155039.942000",
          "155039.945000",
          "155039.947000",
          "155039.950000",
          "155039.953000",
          "155039.956000",
          "155039.959000",
          "155039.962000",
          "155039.965000",
          "155039.968000",
          "155039.971000",
          "155039.974000",
          "155039.976000",
          "155039.979000",
          "155039.982000",
          "155039.985000",
          "155039.988000",
          "155119.933000",
          "155119.936000",
          "155119.939000",
          "155119.942000",
          "155119.945000",
          "155119.948000",
          "155119.951000",
          "155119.954000",
          "155119.956000",
          "155119.959000",
          "155119.962000",
          "155119.965000",
          "155119.968000",
          "155119.971000",
          "155119.974000",
          "155119.977000",
          "155119.980000",
          "155119.983000",
          "155119.985000",
          "155119.988000",
          "155119.991000",
          "155119.994000",
          "155119.997000",
          "155120.001000",
          "155120.004000",
          "155120.007000",
          "155120.010000",
          "155120.013000",
          "155120.016000",
          "155159.934000",
          "155159.937000",
          "155159.940000",
          "155159.943000",
          "155159.946000",
          "155159.949000",
          "155159.952000",
          "155159.955000",
          "155159.957000",
          "155159.960000",
          "155159.963000",
          "155159.966000",
          "155159.969000",
          "155159.972000",
          "155159.975000",
          "155159.978000",
          "155159.981000",
          "155159.984000",
          "155159.987000",
          "155159.989000",
          "155159.992000",
          "155159.995000",
          "155159.998000",
          "155200.002000",
          "155200.005000",
          "155200.008000",
          "155200.011000",
          "155239.933000",
          "155239.936000",
          "155239.939000",
          "155239.942000",
          "155239.945000",
          "155239.948000",
          "155239.951000",
          "155239.954000",
          "155239.956000",
          "155239.959000",
          "155239.962000",
          "155239.965000",
          "155239.968000",
          "155239.971000",
          "155239.974000",
          "155239.977000",
          "155239.980000",
          "155239.983000",
          "155239.986000",
          "155239.989000",
          "155239.991000",
          "155239.994000",
          "155239.997000",
          "155240.001000",
          "155240.004000",
          "155240.007000",
          "155240.010000",
          "155319.933000",
          "155319.936000",
          "155319.939000",
          "155319.942000",
          "155319.945000",
          "155319.948000",
          "155319.951000",
          "155319.954000",
          "155319.957000",
          "155319.960000",
          "155319.963000",
          "155319.966000",
          "155319.969000",
          "155319.971000",
          "155319.974000",
          "155319.977000",
          "155319.980000",
          "155319.983000",
          "155319.986000",
          "155319.989000",
          "155319.992000",
          "155319.995000",
          "155319.997000",
          "155320.001000",
          "155320.004000",
          "155320.007000",
          "155320.010000",
          "155359.935000",
          "155359.938000",
