{
  "aor": 0.00026744471744471744,
  "aqi": 0.008246400909090908,
  "bids_meta": {
    "AcquisitionMatrixPE": 104,
    "AcquisitionNumber": 1,
    "AcquisitionTime": "16:23:34.940000",
    "BandwidthPerPixelPhaseEncode": 17.17,
    "BaseResolution": 104,
    "BodyPartExamined": "BRAIN",
    "CogAtlasID": "trm_4c898da401420",
    "ConsistencyInfo": "N4_VE11C_LATEST_20160120",
    "ConversionSoftware": "dcm2niix",
    "ConversionSoftwareVersion": "v1.0.20171215 (OpenJPEG build) GCC7.3.0",
    "DerivedVendorReportedEchoSpacing": 0.000560011,
    "DeviceSerialNumber": "167006",
    "DwellTime": 2.1e-06,
    "EchoTime": 0.037,
    "EchoTrainLength": 104,
    "EffectiveEchoSpacing": 0.000560011,
    "FlipAngle": 52,
    "ImageComments": "Unaliased_MB4_PE3_LB",
    "ImageOrientationPatientDICOM": [
      0.999102,
      0.0341921,
      -0.0250418,
      -0.0397788,
      0.960417,
      -0.275712
    ],
    "ImageType": [
      "ORIGINAL",
      "PRIMARY",
      "M",
      "MB",
      "ND",
      "MOSAIC"
    ],
    "InPlanePhaseEncodingDirectionDICOM": "COL",
    "InstitutionAddress": "Chemin_Queen-Mary_4565_Montreal_District_CA_H3W_1W5",
    "InstitutionName": "IUGM",
    "InstitutionalDepartmentName": "Department",
    "MRAcquisitionType": "2D",
    "MagneticFieldStrength": 3,
    "Manufacturer": "Siemens",
    "ManufacturersModelName": "Prisma_fit",
    "Modality": "MR",
    "MultibandAccelerationFactor": 4,
    "PartialFourier": 1,
    "PatientPosition": "HFS",
    "PercentPhaseFOV": 100,
    "PhaseEncodingDirection": "j-",
    "PhaseEncodingSteps": 104,
    "PhaseResolution": 1,
    "PixelBandwidth": 2290,
    "ProcedureStepDescription": "video5_generic",
    "ProtocolName": "func_task-figures5",
    "PulseSequenceDetails": "%CustomerSeq%_cmrr_mbep2d_bold",
    "ReceiveCoilActiveElements": "HC1-7;NC1,2",
    "ReceiveCoilName": "HeadNeck_64",
    "ReconMatrixPE": 104,
    "RepetitionTime": 1.49,
    "SAR": 0.0299501,
    "ScanOptions": "FS",
    "ScanningSequence": "EP",
    "SequenceName": "epfid2d1_104",
    "SequenceVariant": "SK_SS",
    "SeriesDescription": "func_task-figures5",
    "SeriesNumber": 22,
    "ShimSetting": [
      606,
      -7170,
      -8842,
      648,
      -15,
      114,
      7,
      9
    ],
    "SliceThickness": 2,
    "SliceTiming": [
      0,
      0.785,
      0.0975,
      0.8825,
      0.1975,
      0.98,
      0.295,
      1.0775,
      0.3925,
      1.1775,
      0.49,
      1.275,
      0.5875,
      1.3725,
      0.6875,
      0,
      0.785,
      0.0975,
      0.8825,
      0.1975,
      0.98,
      0.295,
      1.0775,
      0.3925,
      1.1775,
      0.49,
      1.275,
      0.5875,
      1.3725,
      0.6875,
      0,
      0.785,
      0.0975,
      0.8825,
      0.1975,
      0.98,
      0.295,
      1.0775,
      0.3925,
      1.1775,
      0.49,
      1.275,
      0.5875,
      1.3725,
      0.6875,
      0,
      0.785,
      0.0975,
      0.8825,
      0.1975,
      0.98,
      0.295,
      1.0775,
      0.3925,
      1.1775,
      0.49,
      1.275,
      0.5875,
      1.3725,
      0.6875
    ],
    "SoftwareVersions": "syngo_MR_E11",
    "SpacingBetweenSlices": 2,
    "StationName": "MRC35049",
    "TaskName": "figures05",
    "TotalReadoutTime": 0.0576811,
    "TxRefAmp": 211.245,
    "dataset": "<unset>",
    "dcmmeta_affine": [
      [
        -1.9982030391693115,
        -0.07955753058195114,
        -0.02924674190580845,
        113.61133575439453
      ],
      [
        -0.06838425248861313,
        1.9208335876464844,
        -0.5529212951660156,
        -75.11160278320312
      ],
      [
        -0.05008358880877495,
        0.551424503326416,
        1.9218279123306274,
        -69.53142547607422
      ],
      [
        0.0,
        0.0,
        0.0,
        1.0
      ]
    ],
    "dcmmeta_reorient_transform": [
      [
        0.0,
        -1.0,
        0.0,
        103.0
      ],
      [
        1.0,
        0.0,
        0.0,
        0.0
      ],
      [
        0.0,
        0.0,
        1.0,
        0.0
      ],
      [
        0.0,
        0.0,
        0.0,
        1.0
      ]
    ],
    "dcmmeta_shape": [
      104,
      104,
      60,
      408
    ],
    "dcmmeta_slice_dim": 2,
    "dcmmeta_version": 0.6,
    "global": {
      "const": {
        "AcquisitionMatrix": [
          104,
          0,
          0,
          104
        ],
        "AngioFlag": "N",
        "BitsAllocated": 16,
        "BitsStored": 16,
        "BodyPartExamined": "BRAIN",
        "Columns": 832,
        "EchoNumbers": 1,
        "EchoTime": 37.0,
        "EchoTrainLength": 104,
        "FlipAngle": 52.0,
        "HighBit": 15,
        "ImageOrientationPatient": [
          0.99910149980912,
          0.03419212795722,
          -0.0250417943629,
          -0.0397787643952,
          0.96041678680031,
          -0.2757122513335
        ],
        "ImagePositionPatient": [
          -803.80386093047,
          -846.80954276796,
          206.21424346082
        ],
        "ImageType": [
          "ORIGINAL",
          "PRIMARY",
          "M",
          "MB",
          "ND",
          "MOSAIC"
        ],
        "ImagedNucleus": "1H",
        "ImagingFrequency": 123.259232,
        "InPlanePhaseEncodingDirection": "COL",
        "MRAcquisitionType": "2D",
        "MagneticFieldStrength": 3.0,
        "Manufacturer": "SIEMENS",
        "ManufacturerModelName": "Prisma_fit",
        "Modality": "MR",
        "NumberOfAverages": 1.0,
        "NumberOfPhaseEncodingSteps": 104,
        "PercentPhaseFieldOfView": 100.0,
        "PercentSampling": 100.0,
        "PerformedProcedureStepStartTime": "151324.030000",
        "PhotometricInterpretation": "MONOCHROME2",
        "PixelBandwidth": 2290.0,
        "PixelRepresentation": 0,
        "PixelSpacing": [
          2.0,
          2.0
        ],
        "ProtocolName": "func_task-figures5",
        "RepetitionTime": 1490.0,
        "Rows": 832,
        "SAR": 0.02995014243742,
        "SamplesPerPixel": 1,
        "ScanOptions": "FS",
        "ScanningSequence": "EP",
        "SequenceName": "epfid2d1_104",
        "SequenceVariant": [
          "SK",
          "SS"
        ],
        "SeriesDescription": "func_task-figures5",
        "SeriesNumber": 22,
        "SeriesTime": "162439.963000",
        "SliceLocation": -47.709695476185,
        "SliceThickness": 2.0,
        "SmallestImagePixelValue": 0,
        "SoftwareVersions": "syngo MR E11",
        "SpacingBetweenSlices": 1.9999999859209,
        "SpecificCharacterSet": "ISO_IR 100",
        "StudyID": "1",
        "StudyTime": "151323.978000",
        "TransmitCoilName": "Body",
        "VariableFlipAngleFlag": "N",
        "WindowCenterWidthExplanation": "Algo1",
        "dBdt": 0.0
      },
      "slices": {}
    },
    "modality": "bold",
    "run_id": 2,
    "session_id": "012",
    "subject_id": "03",
    "task_id": "figures05",
    "time": {
      "samples": {
        "AcquisitionNumber": [
          1,
          2,
          3,
          4,
          5,
          6,
          7,
          8,
          9,
          10,
          11,
          12,
          13,
          14,
          15,
          16,
          17,
          18,
          19,
          20,
          21,
          22,
          23,
          24,
          25,
          26,
          27,
          28,
          29,
          30,
          31,
          32,
          33,
          34,
          35,
          36,
          37,
          38,
          39,
          40,
          41,
          42,
          43,
          44,
          45,
          46,
          47,
          48,
          49,
          50,
          51,
          52,
          53,
          54,
          55,
          56,
          57,
          58,
          59,
          60,
          61,
          62,
          63,
          64,
          65,
          66,
          67,
          68,
          69,
          70,
          71,
          72,
          73,
          74,
          75,
          76,
          77,
          78,
          79,
          80,
          81,
          82,
          83,
          84,
          85,
          86,
          87,
          88,
          89,
          90,
          91,
          92,
          93,
          94,
          95,
          96,
          97,
          98,
          99,
          100,
          101,
          102,
          103,
          104,
          105,
          106,
          107,
          108,
          109,
          110,
          111,
          112,
          113,
          114,
          115,
          116,
          117,
          118,
          119,
          120,
          121,
          122,
          123,
          124,
          125,
          126,
          127,
          128,
          129,
          130,
          131,
          132,
          133,
          134,
          135,
          136,
          137,
          138,
          139,
          140,
          141,
          142,
          143,
          144,
          145,
          146,
          147,
          148,
          149,
          150,
          151,
          152,
          153,
          154,
          155,
          156,
          157,
          158,
          159,
          160,
          161,
          162,
          163,
          164,
          165,
          166,
          167,
          168,
          169,
          170,
          171,
          172,
          173,
          174,
          175,
          176,
          177,
          178,
          179,
          180,
          181,
          182,
          183,
          184,
          185,
          186,
          187,
          188,
          189,
          190,
          191,
          192,
          193,
          194,
          195,
          196,
          197,
          198,
          199,
          200,
          201,
          202,
          203,
          204,
          205,
          206,
          207,
          208,
          209,
          210,
          211,
          212,
          213,
          214,
          215,
          216,
          217,
          218,
          219,
          220,
          221,
          222,
          223,
          224,
          225,
          226,
          227,
          228,
          229,
          230,
          231,
          232,
          233,
          234,
          235,
          236,
          237,
          238,
          239,
          240,
          241,
          242,
          243,
          244,
          245,
          246,
          247,
          248,
          249,
          250,
          251,
          252,
          253,
          254,
          255,
          256,
          257,
          258,
          259,
          260,
          261,
          262,
          263,
          264,
          265,
          266,
          267,
          268,
          269,
          270,
          271,
          272,
          273,
          274,
          275,
          276,
          277,
          278,
          279,
          280,
          281,
          282,
          283,
          284,
          285,
          286,
          287,
          288,
          289,
          290,
          291,
          292,
          293,
          294,
          295,
          296,
          297,
          298,
          299,
          300,
          301,
          302,
          303,
          304,
          305,
          306,
          307,
          308,
          309,
          310,
          311,
          312,
          313,
          314,
          315,
          316,
          317,
          318,
          319,
          320,
          321,
          322,
          323,
          324,
          325,
          326,
          327,
          328,
          329,
          330,
          331,
          332,
          333,
          334,
          335,
          336,
          337,
          338,
          339,
          340,
          341,
          342,
          343,
          344,
          345,
          346,
          347,
          348,
          349,
          350,
          351,
          352,
          353,
          354,
          355,
          356,
          357,
          358,
          359,
          360,
          361,
          362,
          363,
          364,
          365,
          366,
          367,
          368,
          369,
          370,
          371,
          372,
          373,
          374,
          375,
          376,
          377,
          378,
          379,
          380,
          381,
          382,
          383,
          384,
          385,
          386,
          387,
          388,
          389,
          390,
          391,
          392,
          393,
          394,
          395,
          396,
          397,
          398,
          399,
          400,
          401,
          402,
          403,
          404,
          405,
          406,
          407,
          408
        ],
        "AcquisitionTime": [
          "162334.940000",
          "162336.430000",
          "162337.920000",
          "162339.410000",
          "162340.900000",
          "162342.390000",
          "162343.880000",
          "162345.370000",
          "162346.860000",
          "162348.350000",
          "162349.840000",
          "162351.330000",
          "162352.820000",
          "162354.310000",
          "162355.800000",
          "162357.290000",
          "162358.780000",
          "162400.270000",
          "162401.760000",
          "162403.250000",
          "162404.740000",
          "162406.230000",
          "162407.720000",
          "162409.210000",
          "162410.700000",
          "162412.190000",
          "162413.680000",
          "162415.170000",
          "162416.660000",
          "162418.150000",
          "162419.640000",
          "162421.130000",
          "162422.620000",
          "162424.110000",
          "162425.600000",
          "162427.090000",
          "162428.580000",
          "162430.070000",
          "162431.560000",
          "162433.050000",
          "162434.540000",
          "162436.030000",
          "162437.520000",
          "162439.010000",
          "162440.500000",
          "162441.990000",
          "162443.480000",
          "162444.970000",
          "162446.460000",
          "162447.950000",
          "162449.440000",
          "162450.930000",
          "162452.420000",
          "162453.910000",
          "162455.400000",
          "162456.890000",
          "162458.380000",
          "162459.870000",
          "162501.360000",
          "162502.850000",
          "162504.340000",
          "162505.830000",
          "162507.320000",
          "162508.810000",
          "162510.300000",
          "162511.790000",
          "162513.280000",
          "162514.770000",
          "162516.260000",
          "162517.750000",
          "162519.240000",
          "162520.730000",
          "162522.220000",
          "162523.710000",
          "162525.200000",
          "162526.690000",
          "162528.180000",
          "162529.670000",
          "162531.160000",
          "162532.650000",
          "162534.140000",
          "162535.630000",
          "162537.120000",
          "162538.610000",
          "162540.100000",
          "162541.590000",
          "162543.080000",
          "162544.570000",
          "162546.060000",
          "162547.550000",
          "162549.040000",
          "162550.530000",
          "162552.020000",
          "162553.510000",
          "162555.000000",
          "162556.490000",
          "162557.980000",
          "162559.470000",
          "162600.960000",
          "162602.450000",
          "162603.940000",
          "162605.430000",
          "162606.920000",
          "162608.410000",
          "162609.900000",
          "162611.390000",
          "162612.880000",
          "162614.370000",
          "162615.860000",
          "162617.350000",
          "162618.840000",
          "162620.330000",
          "162621.820000",
          "162623.310000",
          "162624.800000",
          "162626.290000",
          "162627.780000",
          "162629.270000",
          "162630.760000",
          "162632.250000",
          "162633.740000",
          "162635.230000",
          "162636.720000",
          "162638.210000",
          "162639.700000",
          "162641.190000",
          "162642.680000",
          "162644.170000",
          "162645.660000",
          "162647.150000",
          "162648.640000",
          "162650.130000",
          "162651.620000",
          "162653.110000",
          "162654.600000",
          "162656.090000",
          "162657.580000",
          "162659.070000",
          "162700.560000",
          "162702.050000",
          "162703.540000",
          "162705.030000",
          "162706.520000",
          "162708.010000",
          "162709.500000",
          "162710.990000",
          "162712.480000",
          "162713.970000",
          "162715.460000",
          "162716.950000",
          "162718.440000",
          "162719.930000",
          "162721.420000",
          "162722.910000",
          "162724.400000",
          "162725.890000",
          "162727.380000",
          "162728.870000",
          "162730.360000",
          "162731.850000",
          "162733.340000",
          "162734.830000",
          "162736.320000",
          "162737.810000",
          "162739.300000",
          "162740.790000",
          "162742.280000",
          "162743.770000",
          "162745.260000",
          "162746.750000",
          "162748.240000",
          "162749.730000",
          "162751.220000",
          "162752.710000",
          "162754.200000",
          "162755.690000",
          "162757.180000",
          "162758.670000",
          "162800.160000",
          "162801.650000",
          "162803.140000",
          "162804.630000",
          "162806.120000",
          "162807.610000",
          "162809.100000",
          "162810.590000",
          "162812.080000",
          "162813.570000",
          "162815.060000",
          "162816.550000",
          "162818.040000",
          "162819.530000",
          "162821.020000",
          "162822.510000",
          "162824.000000",
          "162825.490000",
          "162826.980000",
          "162828.470000",
          "162829.960000",
          "162831.450000",
          "162832.940000",
          "162834.430000",
          "162835.920000",
          "162837.410000",
          "162838.900000",
          "162840.390000",
          "162841.880000",
          "162843.370000",
          "162844.860000",
          "162846.350000",
          "162847.840000",
          "162849.330000",
          "162850.820000",
          "162852.310000",
          "162853.800000",
          "162855.290000",
          "162856.780000",
          "162858.270000",
          "162859.760000",
          "162901.250000",
          "162902.740000",
          "162904.230000",
          "162905.720000",
          "162907.210000",
          "162908.700000",
          "162910.190000",
          "162911.680000",
          "162913.170000",
          "162914.660000",
          "162916.150000",
          "162917.640000",
          "162919.130000",
          "162920.620000",
          "162922.110000",
          "162923.600000",
          "162925.090000",
          "162926.580000",
          "162928.070000",
          "162929.560000",
          "162931.050000",
          "162932.540000",
          "162934.030000",
          "162935.520000",
          "162937.010000",
          "162938.500000",
          "162939.990000",
          "162941.480000",
          "162942.970000",
          "162944.460000",
          "162945.950000",
          "162947.440000",
          "162948.930000",
          "162950.420000",
          "162951.910000",
          "162953.400000",
          "162954.890000",
          "162956.380000",
          "162957.870000",
          "162959.360000",
          "163000.850000",
          "163002.340000",
          "163003.830000",
          "163005.320000",
          "163006.810000",
          "163008.300000",
          "163009.790000",
          "163011.280000",
          "163012.770000",
          "163014.260000",
          "163015.750000",
          "163017.240000",
          "163018.730000",
          "163020.220000",
          "163021.710000",
          "163023.200000",
          "163024.690000",
          "163026.180000",
          "163027.670000",
          "163029.160000",
          "163030.650000",
          "163032.140000",
          "163033.630000",
          "163035.120000",
          "163036.610000",
          "163038.100000",
          "163039.590000",
          "163041.080000",
          "163042.570000",
          "163044.060000",
          "163045.550000",
          "163047.040000",
          "163048.530000",
          "163050.020000",
          "163051.510000",
          "163053.000000",
          "163054.490000",
          "163055.980000",
          "163057.470000",
          "163058.960000",
          "163100.450000",
          "163101.940000",
          "163103.430000",
          "163104.920000",
          "163106.410000",
          "163107.900000",
          "163109.390000",
          "163110.880000",
          "163112.370000",
          "163113.860000",
          "163115.350000",
          "163116.840000",
          "163118.330000",
          "163119.820000",
          "163121.310000",
          "163122.800000",
          "163124.290000",
          "163125.780000",
          "163127.270000",
          "163128.760000",
          "163130.250000",
          "163131.740000",
          "163133.230000",
          "163134.720000",
          "163136.210000",
          "163137.700000",
          "163139.190000",
          "163140.680000",
          "163142.170000",
          "163143.660000",
          "163145.150000",
          "163146.640000",
          "163148.130000",
          "163149.620000",
          "163151.110000",
          "163152.600000",
          "163154.090000",
          "163155.580000",
          "163157.070000",
          "163158.560000",
          "163200.050000",
          "163201.540000",
          "163203.030000",
          "163204.520000",
          "163206.010000",
          "163207.500000",
          "163208.990000",
          "163210.480000",
          "163211.970000",
          "163213.460000",
          "163214.950000",
          "163216.440000",
          "163217.930000",
          "163219.420000",
          "163220.910000",
          "163222.400000",
          "163223.890000",
          "163225.380000",
          "163226.870000",
          "163228.360000",
          "163229.850000",
          "163231.340000",
          "163232.830000",
          "163234.320000",
          "163235.810000",
          "163237.300000",
          "163238.790000",
          "163240.280000",
          "163241.770000",
          "163243.260000",
          "163244.750000",
          "163246.240000",
          "163247.730000",
          "163249.220000",
          "163250.710000",
          "163252.200000",
          "163253.690000",
          "163255.180000",
          "163256.670000",
          "163258.160000",
          "163259.650000",
          "163301.140000",
          "163302.630000",
          "163304.120000",
          "163305.610000",
          "163307.100000",
          "163308.590000",
          "163310.080000",
          "163311.570000",
          "163313.060000",
          "163314.550000",
          "163316.040000",
          "163317.530000",
          "163319.020000",
          "163320.510000",
          "163322.000000",
          "163323.490000",
          "163324.980000",
          "163326.470000",
          "163327.960000",
          "163329.450000",
          "163330.940000",
          "163332.430000",
          "163333.920000",
          "163335.410000",
          "163336.900000",
          "163338.390000",
          "163339.880000",
          "163341.370000"
        ],
        "ContentTime": [
          "162439.966000",
          "162439.970000",
          "162439.973000",
          "162439.976000",
          "162439.978000",
          "162439.981000",
          "162439.984000",
          "162440.000000",
          "162440.003000",
          "162440.006000",
          "162440.014000",
          "162440.017000",
          "162459.933000",
          "162459.938000",
          "162459.941000",
          "162459.944000",
          "162459.947000",
          "162459.950000",
          "162459.953000",
          "162459.955000",
          "162459.958000",
          "162459.961000",
          "162459.964000",
          "162459.967000",
          "162459.970000",
          "162459.973000",
          "162459.976000",
          "162459.979000",
          "162459.981000",
          "162459.984000",
          "162459.987000",
          "162459.990000",
          "162519.933000",
          "162519.936000",
          "162519.939000",
          "162519.942000",
          "162519.945000",
          "162519.947000",
          "162519.950000",
          "162519.953000",
          "162519.956000",
          "162519.959000",
          "162519.972000",
          "162519.975000",
          "162519.978000",
          "162519.981000",
          "162519.984000",
          "162519.987000",
          "162519.989000",
          "162519.992000",
          "162519.995000",
          "162519.998000",
          "162539.933000",
          "162539.936000",
          "162539.939000",
          "162539.943000",
          "162539.947000",
          "162539.950000",
          "162539.953000",
          "162539.956000",
          "162539.959000",
          "162539.962000",
          "162539.965000",
          "162539.968000",
          "162539.971000",
          "162539.974000",
          "162539.977000",
          "162539.980000",
          "162539.983000",
          "162539.986000",
          "162539.989000",
          "162539.992000",
          "162559.933000",
          "162559.936000",
          "162559.945000",
          "162559.948000",
          "162559.950000",
          "162559.953000",
          "162559.956000",
          "162559.959000",
          "162559.962000",
          "162559.965000",
          "162559.968000",
          "162559.971000",
          "162559.974000",
          "162559.977000",
          "162559.979000",
          "162559.982000",
          "162559.985000",
          "162559.988000",
          "162559.991000",
          "162559.994000",
          "162559.997000",
          "162639.934000",
          "162639.937000",
          "162639.940000",
          "162639.943000",
          "162639.946000",
          "162639.949000",
          "162639.951000",
          "162639.954000",
          "162639.957000",
          "162639.960000",
          "162639.963000",
          "162639.966000",
          "162639.969000",
          "162639.972000",
          "162639.981000",
          "162639.983000",
          "162639.986000",
          "162639.989000",
          "162639.992000",
          "162639.995000",
          "162639.998000",
          "162640.002000",
          "162640.005000",
          "162640.013000",
          "162640.016000",
          "162640.019000",
          "162640.022000",
          "162640.025000",
          "162640.028000",
          "162640.031000",
          "162719.933000",
          "162719.936000",
          "162719.939000",
          "162719.942000",
          "162719.945000",
          "162719.948000",
          "162719.951000",
          "162719.954000",
          "162719.957000",
          "162719.960000",
          "162719.962000",
          "162719.965000",
          "162719.968000",
          "162719.971000",
          "162719.974000",
          "162719.977000",
          "162719.980000",
          "162719.983000",
          "162719.986000",
          "162719.989000",
          "162719.992000",
          "162719.995000",
          "162719.997000",
          "162720.001000",
          "162720.004000",
          "162720.007000",
          "162720.010000",
          "162759.933000",
          "162759.936000",
          "162759.939000",
          "162759.942000",
          "162759.945000",
          "162759.951000",
          "162759.954000",
          "162759.957000",
          "162759.959000",
          "162759.962000",
          "162759.965000",
          "162759.968000",
          "162759.971000",
          "162759.974000",
          "162759.977000",
          "162759.980000",
          "162759.982000",
          "162759.985000",
          "162759.988000",
          "162759.991000",
          "162759.994000",
          "162759.997000",
          "162800.001000",
          "162800.004000",
          "162800.007000",
          "162800.010000",
          "162800.013000",
          "162839.933000",
          "162839.936000",
          "162839.939000",
          "162839.942000",
          "162839.945000",
          "162839.948000",
          "162839.951000",
          "162839.954000",
          "162839.957000",
          "162839.959000",
          "162839.962000",
          "162839.965000",
          "162839.968000",
          "162839.971000",
          "162839.974000",
          "162839.977000",
          "162839.980000",
          "162839.983000",
          "162839.986000",
          "162839.988000",
          "162839.991000",
          "162839.994000",
          "162839.997000",
          "162840.001000",
          "162840.004000",
          "162840.007000",
          "162840.010000",
          "162919.934000",
          "162919.937000",
          "162919.940000",
          "162919.944000",
          "162919.947000",
          "162919.950000",
          "162919.953000",
          "162919.956000",
          "162919.959000",
          "162919.962000",
          "162919.964000",
          "162919.967000",
          "162919.970000",
          "162919.973000",
          "162919.976000",
