{
  "aor": 0.0006786097560975609,
  "aqi": 0.00746023724390244,
  "bids_meta": {
    "AcquisitionMatrixPE": 104,
    "AcquisitionNumber": 1,
    "AcquisitionTime": "16:34:19.615000",
    "BandwidthPerPixelPhaseEncode": 17.17,
    "BaseResolution": 104,
    "BodyPartExamined": "BRAIN",
    "CogAtlasID": "trm_4c898da401420",
    "ConsistencyInfo": "N4_VE11C_LATEST_20160120",
    "ConversionSoftware": "dcm2niix",
    "ConversionSoftwareVersion": "v1.0.20171215 (OpenJPEG build) GCC7.3.0",
    "DerivedVendorReportedEchoSpacing": 0.000560011,
    "DeviceSerialNumber": "167006",
    "DwellTime": 2.1e-06,
    "EchoTime": 0.037,
    "EchoTrainLength": 104,
    "EffectiveEchoSpacing": 0.000560011,
    "FlipAngle": 52,
    "ImageComments": "Unaliased_MB4_PE3_LB",
    "ImageOrientationPatientDICOM": [
      0.999102,
      0.0341921,
      -0.0250418,
      -0.0397788,
      0.960417,
      -0.275712
    ],
    "ImageType": [
      "ORIGINAL",
      "PRIMARY",
      "M",
      "MB",
      "ND",
      "MOSAIC"
    ],
    "InPlanePhaseEncodingDirectionDICOM": "COL",
    "InstitutionAddress": "Chemin_Queen-Mary_4565_Montreal_District_CA_H3W_1W5",
    "InstitutionName": "IUGM",
    "InstitutionalDepartmentName": "Department",
    "MRAcquisitionType": "2D",
    "MagneticFieldStrength": 3,
    "Manufacturer": "Siemens",
    "ManufacturersModelName": "Prisma_fit",
    "Modality": "MR",
    "MultibandAccelerationFactor": 4,
    "PartialFourier": 1,
    "PatientPosition": "HFS",
    "PercentPhaseFOV": 100,
    "PhaseEncodingDirection": "j-",
    "PhaseEncodingSteps": 104,
    "PhaseResolution": 1,
    "PixelBandwidth": 2290,
    "ProcedureStepDescription": "video5_generic",
    "ProtocolName": "func_task-figures6",
    "PulseSequenceDetails": "%CustomerSeq%_cmrr_mbep2d_bold",
    "ReceiveCoilActiveElements": "HC1-7;NC1,2",
    "ReceiveCoilName": "HeadNeck_64",
    "ReconMatrixPE": 104,
    "RepetitionTime": 1.49,
    "SAR": 0.0299508,
    "ScanOptions": "FS",
    "ScanningSequence": "EP",
    "SequenceName": "epfid2d1_104",
    "SequenceVariant": "SK_SS",
    "SeriesDescription": "func_task-figures6",
    "SeriesNumber": 24,
    "ShimSetting": [
      606,
      -7170,
      -8842,
      648,
      -15,
      114,
      7,
      9
    ],
    "SliceThickness": 2,
    "SliceTiming": [
      0,
      0.785,
      0.0975,
      0.8825,
      0.195,
      0.98,
      0.295,
      1.0775,
      0.3925,
      1.175,
      0.49,
      1.275,
      0.5875,
      1.3725,
      0.685,
      0,
      0.785,
      0.0975,
      0.8825,
      0.195,
      0.98,
      0.295,
      1.0775,
      0.3925,
      1.175,
      0.49,
      1.275,
      0.5875,
      1.3725,
      0.685,
      0,
      0.785,
      0.0975,
      0.8825,
      0.195,
      0.98,
      0.295,
      1.0775,
      0.3925,
      1.175,
      0.49,
      1.275,
      0.5875,
      1.3725,
      0.685,
      0,
      0.785,
      0.0975,
      0.8825,
      0.195,
      0.98,
      0.295,
      1.0775,
      0.3925,
      1.175,
      0.49,
      1.275,
      0.5875,
      1.3725,
      0.685
    ],
    "SoftwareVersions": "syngo_MR_E11",
    "SpacingBetweenSlices": 2,
    "StationName": "MRC35049",
    "TaskName": "figures06",
    "TotalReadoutTime": 0.0576811,
    "TxRefAmp": 211.245,
    "dataset": "<unset>",
    "dcmmeta_affine": [
      [
        -1.9982030391693115,
        -0.07955753058195114,
        -0.02924674190580845,
        113.61133575439453
      ],
      [
        -0.06838425248861313,
        1.9208335876464844,
        -0.5529212951660156,
        -75.11160278320312
      ],
      [
        -0.05008358880877495,
        0.551424503326416,
        1.9218279123306274,
        -69.53142547607422
      ],
      [
        0.0,
        0.0,
        0.0,
        1.0
      ]
    ],
    "dcmmeta_reorient_transform": [
      [
        0.0,
        -1.0,
        0.0,
        103.0
      ],
      [
        1.0,
        0.0,
        0.0,
        0.0
      ],
      [
        0.0,
        0.0,
        1.0,
        0.0
      ],
      [
        0.0,
        0.0,
        0.0,
        1.0
      ]
    ],
    "dcmmeta_shape": [
      104,
      104,
      60,
      410
    ],
    "dcmmeta_slice_dim": 2,
    "dcmmeta_version": 0.6,
    "global": {
      "const": {
        "AcquisitionMatrix": [
          104,
          0,
          0,
          104
        ],
        "AngioFlag": "N",
        "BitsAllocated": 16,
        "BitsStored": 16,
        "BodyPartExamined": "BRAIN",
        "Columns": 832,
        "EchoNumbers": 1,
        "EchoTime": 37.0,
        "EchoTrainLength": 104,
        "FlipAngle": 52.0,
        "HighBit": 15,
        "ImageOrientationPatient": [
          0.99910149980912,
          0.03419212795722,
          -0.0250417943629,
          -0.0397787643952,
          0.96041678680031,
          -0.2757122513335
        ],
        "ImagePositionPatient": [
          -803.80386093047,
          -846.80954276796,
          206.21424346082
        ],
        "ImageType": [
          "ORIGINAL",
          "PRIMARY",
          "M",
          "MB",
          "ND",
          "MOSAIC"
        ],
        "ImagedNucleus": "1H",
        "ImagingFrequency": 123.259236,
        "InPlanePhaseEncodingDirection": "COL",
        "MRAcquisitionType": "2D",
        "MagneticFieldStrength": 3.0,
        "Manufacturer": "SIEMENS",
        "ManufacturerModelName": "Prisma_fit",
        "Modality": "MR",
        "NumberOfAverages": 1.0,
        "NumberOfPhaseEncodingSteps": 104,
        "PercentPhaseFieldOfView": 100.0,
        "PercentSampling": 100.0,
        "PerformedProcedureStepStartTime": "151324.030000",
        "PhotometricInterpretation": "MONOCHROME2",
        "PixelBandwidth": 2290.0,
        "PixelRepresentation": 0,
        "PixelSpacing": [
          2.0,
          2.0
        ],
        "ProtocolName": "func_task-figures6",
        "RepetitionTime": 1490.0,
        "Rows": 832,
        "SAR": 0.02995084889,
        "SamplesPerPixel": 1,
        "ScanOptions": "FS",
        "ScanningSequence": "EP",
        "SequenceName": "epfid2d1_104",
        "SequenceVariant": [
          "SK",
          "SS"
        ],
        "SeriesDescription": "func_task-figures6",
        "SeriesNumber": 24,
        "SeriesTime": "163533.182000",
        "SliceLocation": -47.709695476185,
        "SliceThickness": 2.0,
        "SmallestImagePixelValue": 0,
        "SoftwareVersions": "syngo MR E11",
        "SpacingBetweenSlices": 1.9999999859209,
        "SpecificCharacterSet": "ISO_IR 100",
        "StudyID": "1",
        "StudyTime": "151323.978000",
        "TransmitCoilName": "Body",
        "VariableFlipAngleFlag": "N",
        "WindowCenterWidthExplanation": "Algo1",
        "dBdt": 0.0
      },
      "slices": {}
    },
    "modality": "bold",
    "run_id": 2,
    "session_id": "012",
    "subject_id": "03",
    "task_id": "figures06",
    "time": {
      "samples": {
        "AcquisitionNumber": [
          1,
          2,
          3,
          4,
          5,
          6,
          7,
          8,
          9,
          10,
          11,
          12,
          13,
          14,
          15,
          16,
          17,
          18,
          19,
          20,
          21,
          22,
          23,
          24,
          25,
          26,
          27,
          28,
          29,
          30,
          31,
          32,
          33,
          34,
          35,
          36,
          37,
          38,
          39,
          40,
          41,
          42,
          43,
          44,
          45,
          46,
          47,
          48,
          49,
          50,
          51,
          52,
          53,
          54,
          55,
          56,
          57,
          58,
          59,
          60,
          61,
          62,
          63,
          64,
          65,
          66,
          67,
          68,
          69,
          70,
          71,
          72,
          73,
          74,
          75,
          76,
          77,
          78,
          79,
          80,
          81,
          82,
          83,
          84,
          85,
          86,
          87,
          88,
          89,
          90,
          91,
          92,
          93,
          94,
          95,
          96,
          97,
          98,
          99,
          100,
          101,
          102,
          103,
          104,
          105,
          106,
          107,
          108,
          109,
          110,
          111,
          112,
          113,
          114,
          115,
          116,
          117,
          118,
          119,
          120,
          121,
          122,
          123,
          124,
          125,
          126,
          127,
          128,
          129,
          130,
          131,
          132,
          133,
          134,
          135,
          136,
          137,
          138,
          139,
          140,
          141,
          142,
          143,
          144,
          145,
          146,
          147,
          148,
          149,
          150,
          151,
          152,
          153,
          154,
          155,
          156,
          157,
          158,
          159,
          160,
          161,
          162,
          163,
          164,
          165,
          166,
          167,
          168,
          169,
          170,
          171,
          172,
          173,
          174,
          175,
          176,
          177,
          178,
          179,
          180,
          181,
          182,
          183,
          184,
          185,
          186,
          187,
          188,
          189,
          190,
          191,
          192,
          193,
          194,
          195,
          196,
          197,
          198,
          199,
          200,
          201,
          202,
          203,
          204,
          205,
          206,
          207,
          208,
          209,
          210,
          211,
          212,
          213,
          214,
          215,
          216,
          217,
          218,
          219,
          220,
          221,
          222,
          223,
          224,
          225,
          226,
          227,
          228,
          229,
          230,
          231,
          232,
          233,
          234,
          235,
          236,
          237,
          238,
          239,
          240,
          241,
          242,
          243,
          244,
          245,
          246,
          247,
          248,
          249,
          250,
          251,
          252,
          253,
          254,
          255,
          256,
          257,
          258,
          259,
          260,
          261,
          262,
          263,
          264,
          265,
          266,
          267,
          268,
          269,
          270,
          271,
          272,
          273,
          274,
          275,
          276,
          277,
          278,
          279,
          280,
          281,
          282,
          283,
          284,
          285,
          286,
          287,
          288,
          289,
          290,
          291,
          292,
          293,
          294,
          295,
          296,
          297,
          298,
          299,
          300,
          301,
          302,
          303,
          304,
          305,
          306,
          307,
          308,
          309,
          310,
          311,
          312,
          313,
          314,
          315,
          316,
          317,
          318,
          319,
          320,
          321,
          322,
          323,
          324,
          325,
          326,
          327,
          328,
          329,
          330,
          331,
          332,
          333,
          334,
          335,
          336,
          337,
          338,
          339,
          340,
          341,
          342,
          343,
          344,
          345,
          346,
          347,
          348,
          349,
          350,
          351,
          352,
          353,
          354,
          355,
          356,
          357,
          358,
          359,
          360,
          361,
          362,
          363,
          364,
          365,
          366,
          367,
          368,
          369,
          370,
          371,
          372,
          373,
          374,
          375,
          376,
          377,
          378,
          379,
          380,
          381,
          382,
          383,
          384,
          385,
          386,
          387,
          388,
          389,
          390,
          391,
          392,
          393,
          394,
          395,
          396,
          397,
          398,
          399,
          400,
          401,
          402,
          403,
          404,
          405,
          406,
          407,
          408,
          409,
          410
        ],
        "AcquisitionTime": [
          "163419.615000",
          "163421.105000",
          "163422.595000",
          "163424.085000",
          "163425.575000",
          "163427.065000",
          "163428.555000",
          "163430.045000",
          "163431.535000",
          "163433.025000",
          "163434.515000",
          "163436.005000",
          "163437.495000",
          "163438.985000",
          "163440.475000",
          "163441.965000",
          "163443.455000",
          "163444.945000",
          "163446.435000",
          "163447.925000",
          "163449.415000",
          "163450.905000",
          "163452.395000",
          "163453.885000",
          "163455.375000",
          "163456.865000",
          "163458.355000",
          "163459.845000",
          "163501.335000",
          "163502.825000",
          "163504.315000",
          "163505.805000",
          "163507.295000",
          "163508.785000",
          "163510.275000",
          "163511.765000",
          "163513.255000",
          "163514.745000",
          "163516.235000",
          "163517.725000",
          "163519.215000",
          "163520.705000",
          "163522.195000",
          "163523.685000",
          "163525.175000",
          "163526.665000",
          "163528.155000",
          "163529.645000",
          "163531.135000",
          "163532.625000",
          "163534.115000",
          "163535.605000",
          "163537.095000",
          "163538.585000",
          "163540.075000",
          "163541.565000",
          "163543.055000",
          "163544.545000",
          "163546.035000",
          "163547.525000",
          "163549.015000",
          "163550.505000",
          "163551.995000",
          "163553.485000",
          "163554.975000",
          "163556.465000",
          "163557.955000",
          "163559.445000",
          "163600.935000",
          "163602.425000",
          "163603.915000",
          "163605.405000",
          "163606.895000",
          "163608.385000",
          "163609.875000",
          "163611.365000",
          "163612.855000",
          "163614.345000",
          "163615.835000",
          "163617.325000",
          "163618.815000",
          "163620.305000",
          "163621.795000",
          "163623.285000",
          "163624.775000",
          "163626.265000",
          "163627.755000",
          "163629.245000",
          "163630.735000",
          "163632.225000",
          "163633.715000",
          "163635.205000",
          "163636.695000",
          "163638.185000",
          "163639.675000",
          "163641.165000",
          "163642.655000",
          "163644.145000",
          "163645.635000",
          "163647.125000",
          "163648.615000",
          "163650.105000",
          "163651.595000",
          "163653.085000",
          "163654.575000",
          "163656.065000",
          "163657.555000",
          "163659.045000",
          "163700.535000",
          "163702.025000",
          "163703.515000",
          "163705.005000",
          "163706.495000",
          "163707.985000",
          "163709.475000",
          "163710.965000",
          "163712.455000",
          "163713.945000",
          "163715.435000",
          "163716.925000",
          "163718.415000",
          "163719.905000",
          "163721.395000",
          "163722.885000",
          "163724.375000",
          "163725.865000",
          "163727.355000",
          "163728.845000",
          "163730.335000",
          "163731.825000",
          "163733.315000",
          "163734.805000",
          "163736.295000",
          "163737.785000",
          "163739.275000",
          "163740.765000",
          "163742.255000",
          "163743.745000",
          "163745.235000",
          "163746.725000",
          "163748.215000",
          "163749.705000",
          "163751.195000",
          "163752.685000",
          "163754.175000",
          "163755.665000",
          "163757.155000",
          "163758.645000",
          "163800.135000",
          "163801.625000",
          "163803.115000",
          "163804.605000",
          "163806.095000",
          "163807.585000",
          "163809.075000",
          "163810.565000",
          "163812.055000",
          "163813.545000",
          "163815.035000",
          "163816.525000",
          "163818.015000",
          "163819.505000",
          "163820.995000",
          "163822.485000",
          "163823.975000",
          "163825.465000",
          "163826.955000",
          "163828.445000",
          "163829.935000",
          "163831.425000",
          "163832.915000",
          "163834.405000",
          "163835.895000",
          "163837.385000",
          "163838.875000",
          "163840.365000",
          "163841.855000",
          "163843.345000",
          "163844.835000",
          "163846.325000",
          "163847.815000",
          "163849.305000",
          "163850.795000",
          "163852.285000",
          "163853.775000",
          "163855.265000",
          "163856.755000",
          "163858.245000",
          "163859.735000",
          "163901.225000",
          "163902.715000",
          "163904.205000",
          "163905.695000",
          "163907.185000",
          "163908.675000",
          "163910.165000",
          "163911.655000",
          "163913.145000",
          "163914.635000",
          "163916.125000",
          "163917.615000",
          "163919.105000",
          "163920.595000",
          "163922.085000",
          "163923.575000",
          "163925.065000",
          "163926.555000",
          "163928.045000",
          "163929.535000",
          "163931.025000",
          "163932.515000",
          "163934.005000",
          "163935.495000",
          "163936.985000",
          "163938.475000",
          "163939.965000",
          "163941.455000",
          "163942.945000",
          "163944.435000",
          "163945.925000",
          "163947.415000",
          "163948.905000",
          "163950.395000",
          "163951.885000",
          "163953.375000",
          "163954.865000",
          "163956.355000",
          "163957.845000",
          "163959.335000",
          "164000.825000",
          "164002.315000",
          "164003.805000",
          "164005.295000",
          "164006.785000",
          "164008.275000",
          "164009.765000",
          "164011.255000",
          "164012.745000",
          "164014.235000",
          "164015.725000",
          "164017.215000",
          "164018.705000",
          "164020.195000",
          "164021.685000",
          "164023.175000",
          "164024.665000",
          "164026.155000",
          "164027.645000",
          "164029.135000",
          "164030.625000",
          "164032.115000",
          "164033.605000",
          "164035.095000",
          "164036.585000",
          "164038.075000",
          "164039.565000",
          "164041.055000",
          "164042.545000",
          "164044.035000",
          "164045.525000",
          "164047.015000",
          "164048.505000",
          "164049.995000",
          "164051.485000",
          "164052.975000",
          "164054.465000",
          "164055.955000",
          "164057.445000",
          "164058.935000",
          "164100.425000",
          "164101.915000",
          "164103.405000",
          "164104.895000",
          "164106.385000",
          "164107.875000",
          "164109.365000",
          "164110.855000",
          "164112.345000",
          "164113.835000",
          "164115.325000",
          "164116.815000",
          "164118.305000",
          "164119.795000",
          "164121.285000",
          "164122.775000",
          "164124.265000",
          "164125.755000",
          "164127.245000",
          "164128.735000",
          "164130.225000",
          "164131.715000",
          "164133.205000",
          "164134.695000",
          "164136.185000",
          "164137.675000",
          "164139.165000",
          "164140.655000",
          "164142.145000",
          "164143.635000",
          "164145.125000",
          "164146.615000",
          "164148.105000",
          "164149.595000",
          "164151.085000",
          "164152.575000",
          "164154.065000",
          "164155.555000",
          "164157.045000",
          "164158.535000",
          "164200.025000",
          "164201.515000",
          "164203.005000",
          "164204.495000",
          "164205.985000",
          "164207.475000",
          "164208.965000",
          "164210.455000",
          "164211.945000",
          "164213.435000",
          "164214.925000",
          "164216.415000",
          "164217.905000",
          "164219.395000",
          "164220.885000",
          "164222.375000",
          "164223.865000",
          "164225.355000",
          "164226.845000",
          "164228.335000",
          "164229.825000",
          "164231.315000",
          "164232.805000",
          "164234.295000",
          "164235.785000",
          "164237.275000",
          "164238.765000",
          "164240.255000",
          "164241.745000",
          "164243.235000",
          "164244.725000",
          "164246.215000",
          "164247.705000",
          "164249.195000",
          "164250.685000",
          "164252.175000",
          "164253.665000",
          "164255.155000",
          "164256.645000",
          "164258.135000",
          "164259.625000",
          "164301.115000",
          "164302.605000",
          "164304.095000",
          "164305.585000",
          "164307.075000",
          "164308.565000",
          "164310.055000",
          "164311.545000",
          "164313.035000",
          "164314.525000",
          "164316.015000",
          "164317.505000",
          "164318.995000",
          "164320.485000",
          "164321.975000",
          "164323.465000",
          "164324.955000",
          "164326.445000",
          "164327.935000",
          "164329.425000",
          "164330.915000",
          "164332.405000",
          "164333.895000",
          "164335.385000",
          "164336.875000",
          "164338.365000",
          "164339.855000",
          "164341.345000",
          "164342.835000",
          "164344.325000",
          "164345.815000",
          "164347.305000",
          "164348.795000",
          "164350.285000",
          "164351.775000",
          "164353.265000",
          "164354.755000",
          "164356.245000",
          "164357.735000",
          "164359.225000",
          "164400.715000",
          "164402.205000",
          "164403.695000",
          "164405.185000",
          "164406.675000",
          "164408.165000",
          "164409.655000",
          "164411.145000",
          "164412.635000",
          "164414.125000",
          "164415.615000",
          "164417.105000",
          "164418.595000",
          "164420.085000",
          "164421.575000",
          "164423.065000",
          "164424.555000",
          "164426.045000",
          "164427.535000",
          "164429.025000"
        ],
        "ContentTime": [
          "163533.185000",
          "163533.188000",
          "163533.196000",
          "163533.199000",
          "163533.202000",
          "163533.205000",
          "163533.210000",
          "163533.213000",
          "163533.216000",
          "163533.219000",
          "163533.222000",
          "163533.225000",
          "163533.228000",
          "163533.231000",
          "163533.233000",
          "163533.237000",
          "163533.240000",
          "163533.243000",
          "163553.145000",
          "163553.148000",
          "163553.151000",
          "163553.154000",
          "163553.157000",
          "163553.160000",
          "163553.163000",
          "163553.166000",
          "163553.176000",
          "163553.179000",
          "163553.182000",
          "163553.185000",
          "163553.187000",
          "163553.190000",
          "163553.193000",
          "163553.196000",
          "163553.199000",
          "163553.202000",
          "163553.205000",
          "163553.208000",
          "163553.211000",
          "163613.145000",
          "163613.148000",
          "163613.151000",
          "163613.154000",
          "163613.157000",
          "163613.160000",
          "163613.165000",
          "163613.168000",
          "163613.171000",
          "163613.174000",
          "163613.177000",
          "163613.180000",
          "163613.183000",
          "163613.185000",
          "163613.188000",
          "163613.191000",
          "163613.194000",
          "163613.197000",
          "163613.200000",
          "163613.203000",
          "163633.146000",
          "163633.149000",
          "163633.152000",
          "163633.155000",
          "163633.158000",
          "163633.172000",
          "163633.175000",
          "163633.178000",
          "163633.181000",
          "163633.184000",
          "163633.186000",
          "163633.189000",
          "163633.192000",
          "163633.195000",
          "163633.198000",
          "163633.201000",
          "163633.204000",
          "163633.207000",
          "163633.210000",
          "163633.213000",
          "163653.145000",
          "163653.148000",
          "163653.151000",
          "163653.154000",
          "163653.157000",
          "163653.160000",
          "163653.163000",
          "163653.165000",
          "163653.168000",
          "163653.171000",
          "163653.174000",
          "163653.177000",
          "163653.180000",
          "163653.183000",
          "163653.186000",
          "163653.189000",
          "163653.192000",
          "163653.195000",
          "163653.197000",
          "163653.200000",
          "163733.145000",
          "163733.148000",
          "163733.151000",
          "163733.154000",
          "163733.157000",
          "163733.160000",
          "163733.163000",
          "163733.166000",
          "163733.169000",
          "163733.172000",
          "163733.174000",
          "163733.177000",
          "163733.180000",
          "163733.183000",
          "163733.186000",
          "163733.189000",
          "163733.192000",
          "163733.195000",
          "163733.198000",
          "163733.201000",
          "163733.203000",
          "163733.206000",
          "163733.209000",
          "163733.212000",
          "163733.215000",
          "163733.218000",
          "163733.221000",
          "163733.231000",
          "163733.234000",
          "163733.237000",
          "163813.145000",
          "163813.148000",
          "163813.151000",
          "163813.154000",
          "163813.157000",
          "163813.160000",
          "163813.163000",
          "163813.166000",
          "163813.169000",
          "163813.172000",
          "163813.175000",
          "163813.177000",
          "163813.180000",
          "163813.183000",
          "163813.186000",
          "163813.189000",
          "163813.192000",
          "163813.195000",
          "163813.198000",
          "163813.201000",
          "163813.204000",
          "163813.207000",
          "163813.209000",
          "163813.212000",
          "163813.215000",
          "163813.218000",
          "163813.221000",
          "163853.146000",
          "163853.149000",
          "163853.152000",
          "163853.155000",
          "163853.158000",
          "163853.161000",
          "163853.164000",
          "163853.167000",
          "163853.170000",
          "163853.173000",
          "163853.175000",
          "163853.178000",
          "163853.181000",
          "163853.184000",
          "163853.187000",
          "163853.190000",
          "163853.193000",
          "163853.196000",
          "163853.199000",
          "163853.202000",
          "163853.205000",
          "163853.208000",
          "163853.211000",
          "163853.213000",
          "163853.216000",
          "163853.219000",
          "163853.222000",
          "163933.145000",
          "163933.148000",
          "163933.151000",
          "163933.154000",
          "163933.157000",
          "163933.160000",
          "163933.163000",
          "163933.166000",
          "163933.169000",
          "163933.171000",
          "163933.174000",
          "163933.177000",
          "163933.181000",
          "163933.184000",
          "163933.186000",
          "163933.189000",
          "163933.192000",
          "163933.195000",
          "163933.198000",
          "163933.201000",
          "163933.204000",
          "163933.207000",
          "163933.210000",
          "163933.213000",
          "163933.215000",
          "163933.218000",
          "164013.145000",
          "164013.148000",
          "164013.151000",
          "164013.154000",
          "164013.157000",
          "164013.160000",
          "164013.163000",
