{
  "aor": 0.00024436274509803923,
  "aqi": 0.0063017564460784315,
  "bids_meta": {
    "AcquisitionMatrixPE": 104,
    "AcquisitionNumber": 1,
    "AcquisitionTime": "16:12:39.920000",
    "BandwidthPerPixelPhaseEncode": 17.17,
    "BaseResolution": 104,
    "BodyPartExamined": "BRAIN",
    "CogAtlasID": "trm_4c898da401420",
    "ConsistencyInfo": "N4_VE11C_LATEST_20160120",
    "ConversionSoftware": "dcm2niix",
    "ConversionSoftwareVersion": "v1.0.20171215 (OpenJPEG build) GCC7.3.0",
    "DerivedVendorReportedEchoSpacing": 0.000560011,
    "DeviceSerialNumber": "167006",
    "DwellTime": 2.1e-06,
    "EchoTime": 0.037,
    "EchoTrainLength": 104,
    "EffectiveEchoSpacing": 0.000560011,
    "FlipAngle": 52,
    "ImageComments": "Unaliased_MB4_PE3_LB",
    "ImageOrientationPatientDICOM": [
      0.999102,
      0.0341921,
      -0.0250418,
      -0.0397788,
      0.960417,
      -0.275712
    ],
    "ImageType": [
      "ORIGINAL",
      "PRIMARY",
      "M",
      "MB",
      "ND",
      "MOSAIC"
    ],
    "InPlanePhaseEncodingDirectionDICOM": "COL",
    "InstitutionAddress": "Chemin_Queen-Mary_4565_Montreal_District_CA_H3W_1W5",
    "InstitutionName": "IUGM",
    "InstitutionalDepartmentName": "Department",
    "MRAcquisitionType": "2D",
    "MagneticFieldStrength": 3,
    "Manufacturer": "Siemens",
    "ManufacturersModelName": "Prisma_fit",
    "Modality": "MR",
    "MultibandAccelerationFactor": 4,
    "PartialFourier": 1,
    "PatientPosition": "HFS",
    "PercentPhaseFOV": 100,
    "PhaseEncodingDirection": "j-",
    "PhaseEncodingSteps": 104,
    "PhaseResolution": 1,
    "PixelBandwidth": 2290,
    "ProcedureStepDescription": "video5_generic",
    "ProtocolName": "func_task-figures4",
    "PulseSequenceDetails": "%CustomerSeq%_cmrr_mbep2d_bold",
    "ReceiveCoilActiveElements": "HC1-7;NC1,2",
    "ReceiveCoilName": "HeadNeck_64",
    "ReconMatrixPE": 104,
    "RepetitionTime": 1.49,
    "SAR": 0.0299505,
    "ScanOptions": "FS",
    "ScanningSequence": "EP",
    "SequenceName": "epfid2d1_104",
    "SequenceVariant": "SK_SS",
    "SeriesDescription": "func_task-figures4",
    "SeriesNumber": 20,
    "ShimSetting": [
      606,
      -7170,
      -8842,
      648,
      -15,
      114,
      7,
      9
    ],
    "SliceThickness": 2,
    "SliceTiming": [
      0,
      0.785,
      0.0975,
      0.8825,
      0.195,
      0.98,
      0.295,
      1.0775,
      0.3925,
      1.175,
      0.49,
      1.275,
      0.5875,
      1.3725,
      0.685,
      0,
      0.785,
      0.0975,
      0.8825,
      0.195,
      0.98,
      0.295,
      1.0775,
      0.3925,
      1.175,
      0.49,
      1.275,
      0.5875,
      1.3725,
      0.685,
      0,
      0.785,
      0.0975,
      0.8825,
      0.195,
      0.98,
      0.295,
      1.0775,
      0.3925,
      1.175,
      0.49,
      1.275,
      0.5875,
      1.3725,
      0.685,
      0,
      0.785,
      0.0975,
      0.8825,
      0.195,
      0.98,
      0.295,
      1.0775,
      0.3925,
      1.175,
      0.49,
      1.275,
      0.5875,
      1.3725,
      0.685
    ],
    "SoftwareVersions": "syngo_MR_E11",
    "SpacingBetweenSlices": 2,
    "StationName": "MRC35049",
    "TaskName": "figures04",
    "TotalReadoutTime": 0.0576811,
    "TxRefAmp": 211.245,
    "dataset": "<unset>",
    "dcmmeta_affine": [
      [
        -1.9982030391693115,
        -0.07955753058195114,
        -0.02924674190580845,
        113.61133575439453
      ],
      [
        -0.06838425248861313,
        1.9208335876464844,
        -0.5529212951660156,
        -75.11160278320312
      ],
      [
        -0.05008358880877495,
        0.551424503326416,
        1.9218279123306274,
        -69.53142547607422
      ],
      [
        0.0,
        0.0,
        0.0,
        1.0
      ]
    ],
    "dcmmeta_reorient_transform": [
      [
        0.0,
        -1.0,
        0.0,
        103.0
      ],
      [
        1.0,
        0.0,
        0.0,
        0.0
      ],
      [
        0.0,
        0.0,
        1.0,
        0.0
      ],
      [
        0.0,
        0.0,
        0.0,
        1.0
      ]
    ],
    "dcmmeta_shape": [
      104,
      104,
      60,
      409
    ],
    "dcmmeta_slice_dim": 2,
    "dcmmeta_version": 0.6,
    "global": {
      "const": {
        "AcquisitionMatrix": [
          104,
          0,
          0,
          104
        ],
        "AngioFlag": "N",
        "BitsAllocated": 16,
        "BitsStored": 16,
        "BodyPartExamined": "BRAIN",
        "Columns": 832,
        "EchoNumbers": 1,
        "EchoTime": 37.0,
        "EchoTrainLength": 104,
        "FlipAngle": 52.0,
        "HighBit": 15,
        "ImageOrientationPatient": [
          0.99910149980912,
          0.03419212795722,
          -0.0250417943629,
          -0.0397787643952,
          0.96041678680031,
          -0.2757122513335
        ],
        "ImagePositionPatient": [
          -803.80386093047,
          -846.80954276796,
          206.21424346082
        ],
        "ImageType": [
          "ORIGINAL",
          "PRIMARY",
          "M",
          "MB",
          "ND",
          "MOSAIC"
        ],
        "ImagedNucleus": "1H",
        "ImagingFrequency": 123.259227,
        "InPlanePhaseEncodingDirection": "COL",
        "MRAcquisitionType": "2D",
        "MagneticFieldStrength": 3.0,
        "Manufacturer": "SIEMENS",
        "ManufacturerModelName": "Prisma_fit",
        "Modality": "MR",
        "NumberOfAverages": 1.0,
        "NumberOfPhaseEncodingSteps": 104,
        "PercentPhaseFieldOfView": 100.0,
        "PercentSampling": 100.0,
        "PerformedProcedureStepStartTime": "151324.030000",
        "PhotometricInterpretation": "MONOCHROME2",
        "PixelBandwidth": 2290.0,
        "PixelRepresentation": 0,
        "PixelSpacing": [
          2.0,
          2.0
        ],
        "ProtocolName": "func_task-figures4",
        "RepetitionTime": 1490.0,
        "Rows": 832,
        "SAR": 0.02995049651279,
        "SamplesPerPixel": 1,
        "ScanOptions": "FS",
        "ScanningSequence": "EP",
        "SequenceName": "epfid2d1_104",
        "SequenceVariant": [
          "SK",
          "SS"
        ],
        "SeriesDescription": "func_task-figures4",
        "SeriesNumber": 20,
        "SeriesTime": "161409.163000",
        "SliceLocation": -47.709695476185,
        "SliceThickness": 2.0,
        "SmallestImagePixelValue": 0,
        "SoftwareVersions": "syngo MR E11",
        "SpacingBetweenSlices": 1.9999999859209,
        "SpecificCharacterSet": "ISO_IR 100",
        "StudyID": "1",
        "StudyTime": "151323.978000",
        "TransmitCoilName": "Body",
        "VariableFlipAngleFlag": "N",
        "WindowCenterWidthExplanation": "Algo1",
        "dBdt": 0.0
      },
      "slices": {}
    },
    "modality": "bold",
    "run_id": 2,
    "session_id": "012",
    "subject_id": "03",
    "task_id": "figures04",
    "time": {
      "samples": {
        "AcquisitionNumber": [
          1,
          2,
          3,
          4,
          5,
          6,
          7,
          8,
          9,
          10,
          11,
          12,
          13,
          14,
          15,
          16,
          17,
          18,
          19,
          20,
          21,
          22,
          23,
          24,
          25,
          26,
          27,
          28,
          29,
          30,
          31,
          32,
          33,
          34,
          35,
          36,
          37,
          38,
          39,
          40,
          41,
          42,
          43,
          44,
          45,
          46,
          47,
          48,
          49,
          50,
          51,
          52,
          53,
          54,
          55,
          56,
          57,
          58,
          59,
          60,
          61,
          62,
          63,
          64,
          65,
          66,
          67,
          68,
          69,
          70,
          71,
          72,
          73,
          74,
          75,
          76,
          77,
          78,
          79,
          80,
          81,
          82,
          83,
          84,
          85,
          86,
          87,
          88,
          89,
          90,
          91,
          92,
          93,
          94,
          95,
          96,
          97,
          98,
          99,
          100,
          101,
          102,
          103,
          104,
          105,
          106,
          107,
          108,
          109,
          110,
          111,
          112,
          113,
          114,
          115,
          116,
          117,
          118,
          119,
          120,
          121,
          122,
          123,
          124,
          125,
          126,
          127,
          128,
          129,
          130,
          131,
          132,
          133,
          134,
          135,
          136,
          137,
          138,
          139,
          140,
          141,
          142,
          143,
          144,
          145,
          146,
          147,
          148,
          149,
          150,
          151,
          152,
          153,
          154,
          155,
          156,
          157,
          158,
          159,
          160,
          161,
          162,
          163,
          164,
          165,
          166,
          167,
          168,
          169,
          170,
          171,
          172,
          173,
          174,
          175,
          176,
          177,
          178,
          179,
          180,
          181,
          182,
          183,
          184,
          185,
          186,
          187,
          188,
          189,
          190,
          191,
          192,
          193,
          194,
          195,
          196,
          197,
          198,
          199,
          200,
          201,
          202,
          203,
          204,
          205,
          206,
          207,
          208,
          209,
          210,
          211,
          212,
          213,
          214,
          215,
          216,
          217,
          218,
          219,
          220,
          221,
          222,
          223,
          224,
          225,
          226,
          227,
          228,
          229,
          230,
          231,
          232,
          233,
          234,
          235,
          236,
          237,
          238,
          239,
          240,
          241,
          242,
          243,
          244,
          245,
          246,
          247,
          248,
          249,
          250,
          251,
          252,
          253,
          254,
          255,
          256,
          257,
          258,
          259,
          260,
          261,
          262,
          263,
          264,
          265,
          266,
          267,
          268,
          269,
          270,
          271,
          272,
          273,
          274,
          275,
          276,
          277,
          278,
          279,
          280,
          281,
          282,
          283,
          284,
          285,
          286,
          287,
          288,
          289,
          290,
          291,
          292,
          293,
          294,
          295,
          296,
          297,
          298,
          299,
          300,
          301,
          302,
          303,
          304,
          305,
          306,
          307,
          308,
          309,
          310,
          311,
          312,
          313,
          314,
          315,
          316,
          317,
          318,
          319,
          320,
          321,
          322,
          323,
          324,
          325,
          326,
          327,
          328,
          329,
          330,
          331,
          332,
          333,
          334,
          335,
          336,
          337,
          338,
          339,
          340,
          341,
          342,
          343,
          344,
          345,
          346,
          347,
          348,
          349,
          350,
          351,
          352,
          353,
          354,
          355,
          356,
          357,
          358,
          359,
          360,
          361,
          362,
          363,
          364,
          365,
          366,
          367,
          368,
          369,
          370,
          371,
          372,
          373,
          374,
          375,
          376,
          377,
          378,
          379,
          380,
          381,
          382,
          383,
          384,
          385,
          386,
          387,
          388,
          389,
          390,
          391,
          392,
          393,
          394,
          395,
          396,
          397,
          398,
          399,
          400,
          401,
          402,
          403,
          404,
          405,
          406,
          407,
          408,
          409
        ],
        "AcquisitionTime": [
          "161239.920000",
          "161241.410000",
          "161242.900000",
          "161244.390000",
          "161245.880000",
          "161247.370000",
          "161248.860000",
          "161250.350000",
          "161251.840000",
          "161253.330000",
          "161254.820000",
          "161256.310000",
          "161257.800000",
          "161259.290000",
          "161300.780000",
          "161302.270000",
          "161303.760000",
          "161305.250000",
          "161306.740000",
          "161308.230000",
          "161309.720000",
          "161311.210000",
          "161312.700000",
          "161314.190000",
          "161315.680000",
          "161317.170000",
          "161318.660000",
          "161320.150000",
          "161321.640000",
          "161323.130000",
          "161324.620000",
          "161326.110000",
          "161327.600000",
          "161329.090000",
          "161330.580000",
          "161332.070000",
          "161333.560000",
          "161335.050000",
          "161336.540000",
          "161338.030000",
          "161339.520000",
          "161341.010000",
          "161342.500000",
          "161343.990000",
          "161345.480000",
          "161346.970000",
          "161348.460000",
          "161349.950000",
          "161351.440000",
          "161352.930000",
          "161354.420000",
          "161355.910000",
          "161357.400000",
          "161358.890000",
          "161400.380000",
          "161401.870000",
          "161403.360000",
          "161404.850000",
          "161406.340000",
          "161407.830000",
          "161409.320000",
          "161410.810000",
          "161412.300000",
          "161413.790000",
          "161415.280000",
          "161416.770000",
          "161418.260000",
          "161419.750000",
          "161421.240000",
          "161422.730000",
          "161424.220000",
          "161425.710000",
          "161427.200000",
          "161428.690000",
          "161430.180000",
          "161431.670000",
          "161433.160000",
          "161434.650000",
          "161436.140000",
          "161437.630000",
          "161439.120000",
          "161440.610000",
          "161442.100000",
          "161443.590000",
          "161445.080000",
          "161446.570000",
          "161448.060000",
          "161449.550000",
          "161451.040000",
          "161452.530000",
          "161454.020000",
          "161455.510000",
          "161457.000000",
          "161458.490000",
          "161459.980000",
          "161501.470000",
          "161502.960000",
          "161504.450000",
          "161505.940000",
          "161507.430000",
          "161508.920000",
          "161510.410000",
          "161511.900000",
          "161513.390000",
          "161514.880000",
          "161516.370000",
          "161517.860000",
          "161519.350000",
          "161520.840000",
          "161522.330000",
          "161523.820000",
          "161525.310000",
          "161526.800000",
          "161528.290000",
          "161529.780000",
          "161531.270000",
          "161532.760000",
          "161534.250000",
          "161535.740000",
          "161537.230000",
          "161538.720000",
          "161540.210000",
          "161541.700000",
          "161543.190000",
          "161544.680000",
          "161546.170000",
          "161547.660000",
          "161549.150000",
          "161550.640000",
          "161552.130000",
          "161553.620000",
          "161555.110000",
          "161556.600000",
          "161558.090000",
          "161559.580000",
          "161601.070000",
          "161602.560000",
          "161604.050000",
          "161605.540000",
          "161607.030000",
          "161608.520000",
          "161610.010000",
          "161611.500000",
          "161612.990000",
          "161614.480000",
          "161615.970000",
          "161617.460000",
          "161618.950000",
          "161620.440000",
          "161621.930000",
          "161623.420000",
          "161624.910000",
          "161626.400000",
          "161627.890000",
          "161629.380000",
          "161630.870000",
          "161632.360000",
          "161633.850000",
          "161635.340000",
          "161636.830000",
          "161638.320000",
          "161639.810000",
          "161641.300000",
          "161642.790000",
          "161644.280000",
          "161645.770000",
          "161647.260000",
          "161648.750000",
          "161650.240000",
          "161651.730000",
          "161653.220000",
          "161654.710000",
          "161656.200000",
          "161657.690000",
          "161659.180000",
          "161700.670000",
          "161702.160000",
          "161703.650000",
          "161705.140000",
          "161706.630000",
          "161708.120000",
          "161709.610000",
          "161711.100000",
          "161712.590000",
          "161714.080000",
          "161715.570000",
          "161717.060000",
          "161718.550000",
          "161720.040000",
          "161721.530000",
          "161723.020000",
          "161724.510000",
          "161726.000000",
          "161727.490000",
          "161728.980000",
          "161730.470000",
          "161731.960000",
          "161733.450000",
          "161734.940000",
          "161736.430000",
          "161737.920000",
          "161739.410000",
          "161740.900000",
          "161742.390000",
          "161743.880000",
          "161745.370000",
          "161746.860000",
          "161748.350000",
          "161749.840000",
          "161751.330000",
          "161752.820000",
          "161754.310000",
          "161755.800000",
          "161757.290000",
          "161758.780000",
          "161800.270000",
          "161801.760000",
          "161803.250000",
          "161804.740000",
          "161806.230000",
          "161807.720000",
          "161809.210000",
          "161810.700000",
          "161812.190000",
          "161813.680000",
          "161815.170000",
          "161816.660000",
          "161818.150000",
          "161819.640000",
          "161821.130000",
          "161822.620000",
          "161824.110000",
          "161825.600000",
          "161827.090000",
          "161828.580000",
          "161830.070000",
          "161831.560000",
          "161833.050000",
          "161834.540000",
          "161836.030000",
          "161837.520000",
          "161839.010000",
          "161840.500000",
          "161841.990000",
          "161843.480000",
          "161844.970000",
          "161846.460000",
          "161847.950000",
          "161849.440000",
          "161850.930000",
          "161852.420000",
          "161853.910000",
          "161855.400000",
          "161856.890000",
          "161858.380000",
          "161859.870000",
          "161901.360000",
          "161902.850000",
          "161904.340000",
          "161905.830000",
          "161907.320000",
          "161908.810000",
          "161910.300000",
          "161911.790000",
          "161913.280000",
          "161914.770000",
          "161916.260000",
          "161917.750000",
          "161919.240000",
          "161920.730000",
          "161922.220000",
          "161923.710000",
          "161925.200000",
          "161926.690000",
          "161928.180000",
          "161929.670000",
          "161931.160000",
          "161932.650000",
          "161934.140000",
          "161935.630000",
          "161937.120000",
          "161938.610000",
          "161940.100000",
          "161941.590000",
          "161943.080000",
          "161944.570000",
          "161946.060000",
          "161947.550000",
          "161949.040000",
          "161950.530000",
          "161952.020000",
          "161953.510000",
          "161955.000000",
          "161956.490000",
          "161957.980000",
          "161959.470000",
          "162000.960000",
          "162002.450000",
          "162003.940000",
          "162005.430000",
          "162006.920000",
          "162008.410000",
          "162009.900000",
          "162011.390000",
          "162012.880000",
          "162014.370000",
          "162015.860000",
          "162017.350000",
          "162018.840000",
          "162020.330000",
          "162021.820000",
          "162023.310000",
          "162024.800000",
          "162026.290000",
          "162027.780000",
          "162029.270000",
          "162030.760000",
          "162032.250000",
          "162033.740000",
          "162035.230000",
          "162036.720000",
          "162038.210000",
          "162039.700000",
          "162041.190000",
          "162042.680000",
          "162044.170000",
          "162045.660000",
          "162047.150000",
          "162048.640000",
          "162050.130000",
          "162051.620000",
          "162053.110000",
          "162054.600000",
          "162056.090000",
          "162057.580000",
          "162059.070000",
          "162100.560000",
          "162102.050000",
          "162103.540000",
          "162105.030000",
          "162106.520000",
          "162108.010000",
          "162109.500000",
          "162110.990000",
          "162112.480000",
          "162113.970000",
          "162115.460000",
          "162116.950000",
          "162118.440000",
          "162119.930000",
          "162121.420000",
          "162122.910000",
          "162124.400000",
          "162125.890000",
          "162127.380000",
          "162128.870000",
          "162130.360000",
          "162131.850000",
          "162133.340000",
          "162134.830000",
          "162136.320000",
          "162137.810000",
          "162139.300000",
          "162140.790000",
          "162142.280000",
          "162143.770000",
          "162145.260000",
          "162146.750000",
          "162148.240000",
          "162149.730000",
          "162151.220000",
          "162152.710000",
          "162154.200000",
          "162155.690000",
          "162157.180000",
          "162158.670000",
          "162200.160000",
          "162201.650000",
          "162203.140000",
          "162204.630000",
          "162206.120000",
          "162207.610000",
          "162209.100000",
          "162210.590000",
          "162212.080000",
          "162213.570000",
          "162215.060000",
          "162216.550000",
          "162218.040000",
          "162219.530000",
          "162221.020000",
          "162222.510000",
          "162224.000000",
          "162225.490000",
          "162226.980000",
          "162228.470000",
          "162229.960000",
          "162231.450000",
          "162232.940000",
          "162234.430000",
          "162235.920000",
          "162237.410000",
          "162238.900000",
          "162240.390000",
          "162241.880000",
          "162243.370000",
          "162244.860000",
          "162246.350000",
          "162247.840000"
        ],
        "ContentTime": [
          "161409.166000",
          "161409.170000",
          "161409.173000",
          "161409.175000",
          "161409.262000",
          "161409.265000",
          "161409.267000",
          "161409.270000",
          "161409.273000",
          "161409.276000",
          "161409.279000",
          "161409.282000",
          "161409.285000",
          "161409.288000",
          "161409.291000",
          "161409.294000",
          "161409.297000",
          "161409.299000",
          "161409.302000",
          "161409.305000",
          "161409.308000",
          "161409.311000",
          "161409.314000",
          "161409.317000",
          "161409.320000",
          "161409.333000",
          "161409.336000",
          "161409.339000",
          "161409.342000",
          "161409.345000",
          "161409.348000",
          "161409.351000",
          "161409.354000",
          "161409.357000",
          "161409.364000",
          "161429.134000",
          "161429.137000",
          "161429.140000",
          "161429.143000",
          "161429.146000",
          "161429.149000",
          "161429.152000",
          "161429.155000",
          "161429.158000",
          "161429.161000",
          "161429.164000",
          "161429.167000",
          "161429.170000",
          "161429.173000",
          "161429.176000",
          "161429.179000",
          "161429.182000",
          "161429.185000",
          "161429.188000",
          "161429.191000",
          "161449.134000",
          "161449.137000",
          "161449.145000",
          "161449.148000",
          "161449.151000",
          "161449.154000",
          "161449.157000",
          "161449.160000",
          "161449.163000",
          "161449.166000",
          "161449.169000",
          "161449.172000",
          "161449.175000",
          "161449.177000",
          "161449.180000",
          "161449.183000",
          "161449.186000",
          "161449.189000",
          "161449.192000",
          "161449.195000",
          "161509.134000",
          "161509.137000",
          "161509.140000",
          "161509.143000",
          "161509.146000",
          "161509.148000",
          "161509.151000",
          "161509.154000",
          "161509.157000",
          "161509.160000",
          "161509.163000",
          "161509.166000",
          "161509.169000",
          "161509.172000",
          "161509.175000",
          "161509.178000",
          "161509.180000",
          "161509.183000",
          "161509.186000",
          "161509.189000",
          "161549.133000",
          "161549.136000",
          "161549.139000",
          "161549.142000",
          "161549.145000",
          "161549.148000",
          "161549.151000",
          "161549.154000",
          "161549.157000",
          "161549.160000",
          "161549.163000",
          "161549.166000",
          "161549.169000",
          "161549.173000",
          "161549.175000",
          "161549.178000",
          "161549.181000",
          "161549.184000",
          "161549.187000",
          "161549.190000",
          "161549.193000",
          "161549.197000",
          "161549.200000",
          "161549.203000",
          "161549.206000",
          "161549.209000",
          "161549.212000",
          "161549.215000",
          "161549.218000",
          "161549.221000",
          "161549.224000",
          "161629.134000",
          "161629.137000",
          "161629.140000",
          "161629.143000",
          "161629.146000",
          "161629.149000",
          "161629.152000",
          "161629.155000",
          "161629.157000",
          "161629.160000",
          "161629.163000",
          "161629.166000",
          "161629.169000",
          "161629.172000",
          "161629.175000",
          "161629.178000",
          "161629.181000",
          "161629.184000",
          "161629.186000",
          "161629.189000",
          "161629.192000",
          "161629.195000",
          "161629.198000",
          "161629.201000",
          "161629.204000",
          "161629.207000",
          "161629.210000",
          "161709.134000",
          "161709.137000",
          "161709.140000",
          "161709.143000",
          "161709.146000",
          "161709.149000",
          "161709.152000",
          "161709.155000",
          "161709.163000",
          "161709.166000",
          "161709.170000",
          "161709.173000",
          "161709.176000",
          "161709.178000",
          "161709.182000",
          "161709.185000",
          "161709.188000",
          "161709.191000",
          "161709.194000",
          "161709.196000",
          "161709.200000",
          "161709.203000",
          "161709.206000",
          "161709.209000",
          "161709.212000",
          "161709.215000",
          "161749.134000",
          "161749.137000",
          "161749.140000",
          "161749.155000",
          "161749.158000",
          "161749.161000",
          "161749.164000",
          "161749.166000",
          "161749.169000",
          "161749.172000",
          "161749.175000",
          "161749.178000",
          "161749.181000",
          "161749.184000",
          "161749.187000",
          "161749.190000",
          "161749.193000",
          "161749.196000",
          "161749.199000",
          "161749.202000",
          "161749.205000",
          "161749.208000",
          "161749.211000",
          "161749.214000",
          "161749.217000",
          "161749.219000",
          "161749.222000",
          "161829.134000",
          "161829.137000",
          "161829.141000",
          "161829.144000",
          "161829.147000",
          "161829.150000",
          "161829.152000",
          "161829.155000",
          "161829.158000",
          "161829.161000",
          "161829.164000",
          "161829.167000",
