{
  "aor": 0.0007739364303178483,
  "aqi": 0.009810751442542788,
  "bids_meta": {
    "AcquisitionMatrixPE": 104,
    "AcquisitionNumber": 1,
    "AcquisitionTime": "17:34:29.377500",
    "BandwidthPerPixelPhaseEncode": 17.17,
    "BaseResolution": 104,
    "BodyPartExamined": "BRAIN",
    "CogAtlasID": "trm_4c898da401420",
    "ConsistencyInfo": "N4_VE11C_LATEST_20160120",
    "ConversionSoftware": "dcm2niix",
    "ConversionSoftwareVersion": "v1.0.20171215 (OpenJPEG build) GCC7.3.0",
    "DerivedVendorReportedEchoSpacing": 0.000560011,
    "DeviceSerialNumber": "167006",
    "DwellTime": 2.1e-06,
    "EchoTime": 0.037,
    "EchoTrainLength": 104,
    "EffectiveEchoSpacing": 0.000560011,
    "FlipAngle": 52,
    "ImageComments": "Unaliased_MB4_PE3_LB",
    "ImageOrientationPatientDICOM": [
      0.999464,
      0.00104955,
      -0.0327188,
      -0.0125603,
      0.935283,
      -0.353677
    ],
    "ImageType": [
      "ORIGINAL",
      "PRIMARY",
      "M",
      "MB",
      "ND",
      "MOSAIC"
    ],
    "InPlanePhaseEncodingDirectionDICOM": "COL",
    "InstitutionAddress": "Chemin_Queen-Mary_4565_Montreal_District_CA_H3W_1W5",
    "InstitutionName": "IUGM",
    "InstitutionalDepartmentName": "Department",
    "MRAcquisitionType": "2D",
    "MagneticFieldStrength": 3,
    "Manufacturer": "Siemens",
    "ManufacturersModelName": "Prisma_fit",
    "Modality": "MR",
    "MultibandAccelerationFactor": 4,
    "PartialFourier": 1,
    "PatientPosition": "HFS",
    "PercentPhaseFOV": 100,
    "PhaseEncodingDirection": "j-",
    "PhaseEncodingSteps": 104,
    "PhaseResolution": 1,
    "PixelBandwidth": 2290,
    "ProcedureStepDescription": "video5_generic",
    "ProtocolName": "func_task-life1",
    "PulseSequenceDetails": "%CustomerSeq%_cmrr_mbep2d_bold",
    "ReceiveCoilActiveElements": "HC1-7;NC1,2",
    "ReceiveCoilName": "HeadNeck_64",
    "ReconMatrixPE": 104,
    "RepetitionTime": 1.49,
    "SAR": 0.035882,
    "ScanOptions": "FS",
    "ScanningSequence": "EP",
    "SequenceName": "epfid2d1_104",
    "SequenceVariant": "SK_SS",
    "SeriesDescription": "func_task-life1",
    "SeriesNumber": 7,
    "ShimSetting": [
      603,
      -7242,
      -8865,
      348,
      40,
      -405,
      26,
      29
    ],
    "SliceThickness": 2,
    "SliceTiming": [
      0,
      0.785,
      0.0975,
      0.8825,
      0.195,
      0.98,
      0.295,
      1.0775,
      0.3925,
      1.175,
      0.49,
      1.275,
      0.5875,
      1.3725,
      0.685,
      0,
      0.785,
      0.0975,
      0.8825,
      0.195,
      0.98,
      0.295,
      1.0775,
      0.3925,
      1.175,
      0.49,
      1.275,
      0.5875,
      1.3725,
      0.685,
      0,
      0.785,
      0.0975,
      0.8825,
      0.195,
      0.98,
      0.295,
      1.0775,
      0.3925,
      1.175,
      0.49,
      1.275,
      0.5875,
      1.3725,
      0.685,
      0,
      0.785,
      0.0975,
      0.8825,
      0.195,
      0.98,
      0.295,
      1.0775,
      0.3925,
      1.175,
      0.49,
      1.275,
      0.5875,
      1.3725,
      0.685
    ],
    "SoftwareVersions": "syngo_MR_E11",
    "SpacingBetweenSlices": 2,
    "StationName": "MRC35049",
    "TaskName": "life01",
    "TotalReadoutTime": 0.0576811,
    "TxRefAmp": 237.192,
    "dataset": "<unset>",
    "dcmmeta_affine": [
      [
        -1.9989280700683594,
        -0.025120500475168228,
        -0.060460351407527924,
        105.59588623046875
      ],
      [
        -0.0020990953780710697,
        1.8705666065216064,
        -0.707796573638916,
        -60.508609771728516
      ],
      [
        -0.06543765962123871,
        0.7073537707328796,
        1.8695905208587646,
        -72.5686264038086
      ],
      [
        0.0,
        0.0,
        0.0,
        1.0
      ]
    ],
    "dcmmeta_reorient_transform": [
      [
        0.0,
        -1.0,
        0.0,
        103.0
      ],
      [
        1.0,
        0.0,
        0.0,
        0.0
      ],
      [
        0.0,
        0.0,
        1.0,
        0.0
      ],
      [
        0.0,
        0.0,
        0.0,
        1.0
      ]
    ],
    "dcmmeta_shape": [
      104,
      104,
      60,
      410
    ],
    "dcmmeta_slice_dim": 2,
    "dcmmeta_version": 0.6,
    "global": {
      "const": {
        "AcquisitionMatrix": [
          104,
          0,
          0,
          104
        ],
        "AngioFlag": "N",
        "BitsAllocated": 16,
        "BitsStored": 16,
        "BodyPartExamined": "BRAIN",
        "Columns": 832,
        "EchoNumbers": 1,
        "EchoTime": 37.0,
        "EchoTrainLength": 104,
        "FlipAngle": 52.0,
        "HighBit": 15,
        "ImageOrientationPatient": [
          0.99946404467916,
          0.00104954768959,
          -0.0327188301018,
          -0.0125602503849,
          0.93528332331332,
          -0.3536768938484
        ],
        "ImagePositionPatient": [
          -821.47443855255,
          -813.8100842335,
          281.58490291007
        ],
        "ImageType": [
          "ORIGINAL",
          "PRIMARY",
          "M",
          "MB",
          "ND",
          "MOSAIC"
        ],
        "ImagedNucleus": "1H",
        "ImagingFrequency": 123.259369,
        "InPlanePhaseEncodingDirection": "COL",
        "MRAcquisitionType": "2D",
        "MagneticFieldStrength": 3.0,
        "Manufacturer": "SIEMENS",
        "ManufacturerModelName": "Prisma_fit",
        "Modality": "MR",
        "NumberOfAverages": 1.0,
        "NumberOfPhaseEncodingSteps": 104,
        "PercentPhaseFieldOfView": 100.0,
        "PercentSampling": 100.0,
        "PerformedProcedureStepStartTime": "173120.986000",
        "PhotometricInterpretation": "MONOCHROME2",
        "PixelBandwidth": 2290.0,
        "PixelRepresentation": 0,
        "PixelSpacing": [
          2.0,
          2.0
        ],
        "ProtocolName": "func_task-life1",
        "RepetitionTime": 1490.0,
        "Rows": 832,
        "SAR": 0.03588196964402,
        "SamplesPerPixel": 1,
        "ScanOptions": "FS",
        "ScanningSequence": "EP",
        "SequenceName": "epfid2d1_104",
        "SequenceVariant": [
          "SK",
          "SS"
        ],
        "SeriesDescription": "func_task-life1",
        "SeriesNumber": 7,
        "SeriesTime": "173554.108000",
        "SliceLocation": -49.615092331108,
        "SliceThickness": 2.0,
        "SmallestImagePixelValue": 0,
        "SoftwareVersions": "syngo MR E11",
        "SpacingBetweenSlices": 2.0000000253892,
        "SpecificCharacterSet": "ISO_IR 100",
        "StudyID": "1",
        "StudyTime": "173120.924000",
        "TransmitCoilName": "Body",
        "VariableFlipAngleFlag": "N",
        "WindowCenterWidthExplanation": "Algo1",
        "dBdt": 0.0
      },
      "slices": {}
    },
    "modality": "bold",
    "run_id": 1,
    "session_id": "001",
    "subject_id": "05",
    "task_id": "life01",
    "time": {
      "samples": {
        "AcquisitionNumber": [
          1,
          2,
          3,
          4,
          5,
          6,
          7,
          8,
          9,
          10,
          11,
          12,
          13,
          14,
          15,
          16,
          17,
          18,
          19,
          20,
          21,
          22,
          23,
          24,
          25,
          26,
          27,
          28,
          29,
          30,
          31,
          32,
          33,
          34,
          35,
          36,
          37,
          38,
          39,
          40,
          41,
          42,
          43,
          44,
          45,
          46,
          47,
          48,
          49,
          50,
          51,
          52,
          53,
          54,
          55,
          56,
          57,
          58,
          59,
          60,
          61,
          62,
          63,
          64,
          65,
          66,
          67,
          68,
          69,
          70,
          71,
          72,
          73,
          74,
          75,
          76,
          77,
          78,
          79,
          80,
          81,
          82,
          83,
          84,
          85,
          86,
          87,
          88,
          89,
          90,
          91,
          92,
          93,
          94,
          95,
          96,
          97,
          98,
          99,
          100,
          101,
          102,
          103,
          104,
          105,
          106,
          107,
          108,
          109,
          110,
          111,
          112,
          113,
          114,
          115,
          116,
          117,
          118,
          119,
          120,
          121,
          122,
          123,
          124,
          125,
          126,
          127,
          128,
          129,
          130,
          131,
          132,
          133,
          134,
          135,
          136,
          137,
          138,
          139,
          140,
          141,
          142,
          143,
          144,
          145,
          146,
          147,
          148,
          149,
          150,
          151,
          152,
          153,
          154,
          155,
          156,
          157,
          158,
          159,
          160,
          161,
          162,
          163,
          164,
          165,
          166,
          167,
          168,
          169,
          170,
          171,
          172,
          173,
          174,
          175,
          176,
          177,
          178,
          179,
          180,
          181,
          182,
          183,
          184,
          185,
          186,
          187,
          188,
          189,
          190,
          191,
          192,
          193,
          194,
          195,
          196,
          197,
          198,
          199,
          200,
          201,
          202,
          203,
          204,
          205,
          206,
          207,
          208,
          209,
          210,
          211,
          212,
          213,
          214,
          215,
          216,
          217,
          218,
          219,
          220,
          221,
          222,
          223,
          224,
          225,
          226,
          227,
          228,
          229,
          230,
          231,
          232,
          233,
          234,
          235,
          236,
          237,
          238,
          239,
          240,
          241,
          242,
          243,
          244,
          245,
          246,
          247,
          248,
          249,
          250,
          251,
          252,
          253,
          254,
          255,
          256,
          257,
          258,
          259,
          260,
          261,
          262,
          263,
          264,
          265,
          266,
          267,
          268,
          269,
          270,
          271,
          272,
          273,
          274,
          275,
          276,
          277,
          278,
          279,
          280,
          281,
          282,
          283,
          284,
          285,
          286,
          287,
          288,
          289,
          290,
          291,
          292,
          293,
          294,
          295,
          296,
          297,
          298,
          299,
          300,
          301,
          302,
          303,
          304,
          305,
          306,
          307,
          308,
          309,
          310,
          311,
          312,
          313,
          314,
          315,
          316,
          317,
          318,
          319,
          320,
          321,
          322,
          323,
          324,
          325,
          326,
          327,
          328,
          329,
          330,
          331,
          332,
          333,
          334,
          335,
          336,
          337,
          338,
          339,
          340,
          341,
          342,
          343,
          344,
          345,
          346,
          347,
          348,
          349,
          350,
          351,
          352,
          353,
          354,
          355,
          356,
          357,
          358,
          359,
          360,
          361,
          362,
          363,
          364,
          365,
          366,
          367,
          368,
          369,
          370,
          371,
          372,
          373,
          374,
          375,
          376,
          377,
          378,
          379,
          380,
          381,
          382,
          383,
          384,
          385,
          386,
          387,
          388,
          389,
          390,
          391,
          392,
          393,
          394,
          395,
          396,
          397,
          398,
          399,
          400,
          401,
          402,
          403,
          404,
          405,
          406,
          407,
          408,
          409,
          410
        ],
        "AcquisitionTime": [
          "173429.377500",
          "173430.867500",
          "173432.357500",
          "173433.847500",
          "173435.337500",
          "173436.827500",
          "173438.317500",
          "173439.807500",
          "173441.297500",
          "173442.787500",
          "173444.277500",
          "173445.767500",
          "173447.257500",
          "173448.747500",
          "173450.237500",
          "173451.727500",
          "173453.217500",
          "173454.707500",
          "173456.197500",
          "173457.687500",
          "173459.177500",
          "173500.667500",
          "173502.157500",
          "173503.647500",
          "173505.137500",
          "173506.627500",
          "173508.117500",
          "173509.607500",
          "173511.097500",
          "173512.587500",
          "173514.077500",
          "173515.567500",
          "173517.057500",
          "173518.547500",
          "173520.037500",
          "173521.527500",
          "173523.017500",
          "173524.507500",
          "173525.997500",
          "173527.487500",
          "173528.977500",
          "173530.467500",
          "173531.957500",
          "173533.447500",
          "173534.937500",
          "173536.427500",
          "173537.917500",
          "173539.407500",
          "173540.897500",
          "173542.387500",
          "173543.877500",
          "173545.367500",
          "173546.857500",
          "173548.347500",
          "173549.837500",
          "173551.327500",
          "173552.817500",
          "173554.307500",
          "173555.797500",
          "173557.287500",
          "173558.777500",
          "173600.267500",
          "173601.757500",
          "173603.247500",
          "173604.737500",
          "173606.227500",
          "173607.717500",
          "173609.207500",
          "173610.697500",
          "173612.187500",
          "173613.677500",
          "173615.167500",
          "173616.657500",
          "173618.147500",
          "173619.637500",
          "173621.127500",
          "173622.617500",
          "173624.107500",
          "173625.597500",
          "173627.087500",
          "173628.577500",
          "173630.067500",
          "173631.557500",
          "173633.047500",
          "173634.537500",
          "173636.027500",
          "173637.517500",
          "173639.007500",
          "173640.497500",
          "173641.987500",
          "173643.477500",
          "173644.967500",
          "173646.457500",
          "173647.947500",
          "173649.437500",
          "173650.927500",
          "173652.417500",
          "173653.907500",
          "173655.397500",
          "173656.887500",
          "173658.377500",
          "173659.867500",
          "173701.357500",
          "173702.847500",
          "173704.337500",
          "173705.827500",
          "173707.317500",
          "173708.807500",
          "173710.297500",
          "173711.787500",
          "173713.277500",
          "173714.767500",
          "173716.257500",
          "173717.747500",
          "173719.237500",
          "173720.727500",
          "173722.217500",
          "173723.707500",
          "173725.197500",
          "173726.687500",
          "173728.177500",
          "173729.667500",
          "173731.157500",
          "173732.647500",
          "173734.137500",
          "173735.627500",
          "173737.117500",
          "173738.607500",
          "173740.097500",
          "173741.587500",
          "173743.077500",
          "173744.567500",
          "173746.057500",
          "173747.547500",
          "173749.037500",
          "173750.527500",
          "173752.017500",
          "173753.507500",
          "173754.997500",
          "173756.487500",
          "173757.977500",
          "173759.467500",
          "173800.957500",
          "173802.447500",
          "173803.937500",
          "173805.427500",
          "173806.917500",
          "173808.407500",
          "173809.897500",
          "173811.387500",
          "173812.877500",
          "173814.367500",
          "173815.857500",
          "173817.347500",
          "173818.837500",
          "173820.327500",
          "173821.817500",
          "173823.307500",
          "173824.797500",
          "173826.287500",
          "173827.777500",
          "173829.267500",
          "173830.757500",
          "173832.247500",
          "173833.737500",
          "173835.227500",
          "173836.717500",
          "173838.207500",
          "173839.697500",
          "173841.187500",
          "173842.677500",
          "173844.167500",
          "173845.657500",
          "173847.147500",
          "173848.637500",
          "173850.127500",
          "173851.617500",
          "173853.107500",
          "173854.597500",
          "173856.087500",
          "173857.577500",
          "173859.067500",
          "173900.557500",
          "173902.047500",
          "173903.537500",
          "173905.027500",
          "173906.517500",
          "173908.007500",
          "173909.497500",
          "173910.987500",
          "173912.477500",
          "173913.967500",
          "173915.457500",
          "173916.947500",
          "173918.437500",
          "173919.927500",
          "173921.417500",
          "173922.907500",
          "173924.397500",
          "173925.887500",
          "173927.377500",
          "173928.867500",
          "173930.357500",
          "173931.847500",
          "173933.337500",
          "173934.827500",
          "173936.317500",
          "173937.807500",
          "173939.297500",
          "173940.787500",
          "173942.277500",
          "173943.767500",
          "173945.257500",
          "173946.747500",
          "173948.237500",
          "173949.727500",
          "173951.217500",
          "173952.707500",
          "173954.197500",
          "173955.687500",
          "173957.177500",
          "173958.667500",
          "174000.157500",
          "174001.647500",
          "174003.137500",
          "174004.627500",
          "174006.117500",
          "174007.607500",
          "174009.097500",
          "174010.587500",
          "174012.077500",
          "174013.567500",
          "174015.057500",
          "174016.547500",
          "174018.037500",
          "174019.527500",
          "174021.017500",
          "174022.507500",
          "174023.997500",
          "174025.487500",
          "174026.977500",
          "174028.467500",
          "174029.957500",
          "174031.447500",
          "174032.937500",
          "174034.427500",
          "174035.917500",
          "174037.407500",
          "174038.897500",
          "174040.387500",
          "174041.877500",
          "174043.367500",
          "174044.857500",
          "174046.347500",
          "174047.837500",
          "174049.327500",
          "174050.817500",
          "174052.307500",
          "174053.797500",
          "174055.287500",
          "174056.777500",
          "174058.267500",
          "174059.757500",
          "174101.247500",
          "174102.737500",
          "174104.227500",
          "174105.717500",
          "174107.207500",
          "174108.697500",
          "174110.187500",
          "174111.677500",
          "174113.167500",
          "174114.657500",
          "174116.147500",
          "174117.637500",
          "174119.127500",
          "174120.617500",
          "174122.107500",
          "174123.597500",
          "174125.087500",
          "174126.577500",
          "174128.067500",
          "174129.557500",
          "174131.047500",
          "174132.537500",
          "174134.027500",
          "174135.517500",
          "174137.007500",
          "174138.497500",
          "174139.987500",
          "174141.477500",
          "174142.967500",
          "174144.457500",
          "174145.947500",
          "174147.437500",
          "174148.927500",
          "174150.417500",
          "174151.907500",
          "174153.397500",
          "174154.887500",
          "174156.377500",
          "174157.867500",
          "174159.357500",
          "174200.847500",
          "174202.337500",
          "174203.827500",
          "174205.317500",
          "174206.807500",
          "174208.297500",
          "174209.787500",
          "174211.277500",
          "174212.767500",
          "174214.257500",
          "174215.747500",
          "174217.237500",
          "174218.727500",
          "174220.217500",
          "174221.707500",
          "174223.197500",
          "174224.687500",
          "174226.177500",
          "174227.667500",
          "174229.157500",
          "174230.647500",
          "174232.137500",
          "174233.627500",
          "174235.117500",
          "174236.607500",
          "174238.097500",
          "174239.587500",
          "174241.077500",
          "174242.567500",
          "174244.057500",
          "174245.547500",
          "174247.037500",
          "174248.527500",
          "174250.017500",
          "174251.507500",
          "174252.997500",
          "174254.487500",
          "174255.977500",
          "174257.467500",
          "174258.957500",
          "174300.447500",
          "174301.937500",
          "174303.427500",
          "174304.917500",
          "174306.407500",
          "174307.897500",
          "174309.387500",
          "174310.877500",
          "174312.367500",
          "174313.857500",
          "174315.347500",
          "174316.837500",
          "174318.327500",
          "174319.817500",
          "174321.307500",
          "174322.797500",
          "174324.287500",
          "174325.777500",
          "174327.267500",
          "174328.757500",
          "174330.247500",
          "174331.737500",
          "174333.227500",
          "174334.717500",
          "174336.207500",
          "174337.697500",
          "174339.187500",
          "174340.677500",
          "174342.167500",
          "174343.657500",
          "174345.147500",
          "174346.637500",
          "174348.127500",
          "174349.617500",
          "174351.107500",
          "174352.597500",
          "174354.087500",
          "174355.577500",
          "174357.067500",
          "174358.557500",
          "174400.047500",
          "174401.537500",
          "174403.027500",
          "174404.517500",
          "174406.007500",
          "174407.497500",
          "174408.987500",
          "174410.477500",
          "174411.967500",
          "174413.457500",
          "174414.947500",
          "174416.437500",
          "174417.927500",
          "174419.417500",
          "174420.907500",
          "174422.397500",
          "174423.887500",
          "174425.377500",
          "174426.867500",
          "174428.357500",
          "174429.847500",
          "174431.337500",
          "174432.827500",
          "174434.317500",
          "174435.807500",
          "174437.297500",
          "174438.787500"
        ],
        "ContentTime": [
          "173554.111000",
          "173554.114000",
          "173554.117000",
          "173554.120000",
          "173554.123000",
          "173554.126000",
          "173554.129000",
          "173554.131000",
          "173554.134000",
          "173554.137000",
          "173554.140000",
          "173554.143000",
          "173554.146000",
          "173554.148000",
          "173554.151000",
          "173554.154000",
          "173554.164000",
          "173554.166000",
          "173554.169000",
          "173554.172000",
          "173554.175000",
          "173554.178000",
          "173554.181000",
          "173554.184000",
          "173554.186000",
          "173554.198000",
          "173554.201000",
          "173554.204000",
          "173554.207000",
          "173554.210000",
          "173614.078000",
          "173614.081000",
          "173614.084000",
          "173614.086000",
          "173614.089000",
          "173614.092000",
          "173614.095000",
          "173614.098000",
          "173614.101000",
          "173614.103000",
          "173614.106000",
          "173614.109000",
          "173614.112000",
          "173614.115000",
          "173614.117000",
          "173614.120000",
          "173614.123000",
          "173614.126000",
          "173614.129000",
          "173614.132000",
          "173614.134000",
          "173634.078000",
          "173634.081000",
          "173634.084000",
          "173634.086000",
          "173634.095000",
          "173634.098000",
          "173634.101000",
          "173634.104000",
          "173634.107000",
          "173634.109000",
          "173634.112000",
          "173634.115000",
          "173634.118000",
          "173634.121000",
          "173634.123000",
          "173634.126000",
          "173634.129000",
          "173634.132000",
          "173634.135000",
          "173634.138000",
          "173654.078000",
          "173654.081000",
          "173654.096000",
          "173654.098000",
          "173654.101000",
          "173654.104000",
          "173654.107000",
          "173654.110000",
          "173654.112000",
          "173654.115000",
          "173654.118000",
          "173654.121000",
          "173654.124000",
          "173654.126000",
          "173654.129000",
          "173654.132000",
          "173654.135000",
          "173654.138000",
          "173654.140000",
          "173654.143000",
          "173734.078000",
          "173734.091000",
          "173734.094000",
          "173734.097000",
          "173734.100000",
          "173734.103000",
          "173734.105000",
          "173734.108000",
          "173734.111000",
          "173734.114000",
          "173734.117000",
          "173734.120000",
          "173734.123000",
          "173734.125000",
          "173734.128000",
          "173734.131000",
          "173734.134000",
          "173734.137000",
          "173734.140000",
          "173734.142000",
          "173734.145000",
          "173734.148000",
          "173734.151000",
          "173734.166000",
          "173734.169000",
          "173734.172000",
          "173734.175000",
          "173734.178000",
          "173734.180000",
          "173734.183000",
          "173734.186000",
          "173734.189000",
          "173814.078000",
          "173814.081000",
          "173814.084000",
          "173814.087000",
          "173814.089000",
          "173814.092000",
          "173814.095000",
          "173814.098000",
          "173814.101000",
          "173814.104000",
          "173814.107000",
          "173814.109000",
          "173814.112000",
          "173814.115000",
          "173814.118000",
          "173814.121000",
          "173814.124000",
          "173814.126000",
          "173814.129000",
          "173814.132000",
          "173814.135000",
          "173814.138000",
          "173814.141000",
          "173814.143000",
          "173814.146000",
          "173814.149000",
          "173814.152000",
          "173854.078000",
          "173854.081000",
          "173854.084000",
          "173854.087000",
          "173854.089000",
          "173854.092000",
          "173854.095000",
          "173854.098000",
          "173854.101000",
          "173854.104000",
          "173854.107000",
          "173854.109000",
          "173854.112000",
          "173854.115000",
          "173854.118000",
          "173854.121000",
          "173854.124000",
          "173854.132000",
          "173854.135000",
          "173854.138000",
          "173854.140000",
          "173854.143000",
          "173854.146000",
          "173854.149000",
          "173854.152000",
          "173854.154000",
          "173854.157000",
          "173934.079000",
          "173934.082000",
          "173934.085000",
          "173934.088000",
          "173934.090000",
          "173934.093000",
          "173934.096000",
          "173934.099000",
          "173934.102000",
          "173934.105000",
          "173934.108000",
          "173934.110000",
          "173934.113000",
          "173934.116000",
          "173934.119000",
          "173934.122000",
          "173934.125000",
          "173934.127000",
          "173934.130000",
          "173934.133000",
          "173934.136000",
          "173934.139000",
          "173934.142000",
          "173934.145000",
          "173934.147000",
          "173934.150000",
          "173934.153000",
          "174014.078000",
          "174014.081000",
          "174014.084000",
          "174014.086000",
          "174014.089000",
          "174014.092000",
          "174014.095000",
          "174014.098000",
          "174014.101000",
          "174014.104000",
          "174014.115000",
          "174014.118000",
          "174014.121000",
