{
  "aor": 0.0008481173594132029,
  "aqi": 0.011668115256723717,
  "bids_meta": {
    "AcquisitionMatrixPE": 104,
    "AcquisitionNumber": 1,
    "AcquisitionTime": "18:06:25.992500",
    "BandwidthPerPixelPhaseEncode": 17.17,
    "BaseResolution": 104,
    "BodyPartExamined": "BRAIN",
    "CogAtlasID": "trm_4c898da401420",
    "ConsistencyInfo": "N4_VE11C_LATEST_20160120",
    "ConversionSoftware": "dcm2niix",
    "ConversionSoftwareVersion": "v1.0.20171215 (OpenJPEG build) GCC7.3.0",
    "DerivedVendorReportedEchoSpacing": 0.000560011,
    "DeviceSerialNumber": "167006",
    "DwellTime": 2.1e-06,
    "EchoTime": 0.037,
    "EchoTrainLength": 104,
    "EffectiveEchoSpacing": 0.000560011,
    "FlipAngle": 52,
    "ImageComments": "Unaliased_MB4_PE3_LB",
    "ImageOrientationPatientDICOM": [
      0.999464,
      0.00104955,
      -0.0327188,
      -0.0125603,
      0.935283,
      -0.353677
    ],
    "ImageType": [
      "ORIGINAL",
      "PRIMARY",
      "M",
      "MB",
      "ND",
      "MOSAIC"
    ],
    "InPlanePhaseEncodingDirectionDICOM": "COL",
    "InstitutionAddress": "Chemin_Queen-Mary_4565_Montreal_District_CA_H3W_1W5",
    "InstitutionName": "IUGM",
    "InstitutionalDepartmentName": "Department",
    "MRAcquisitionType": "2D",
    "MagneticFieldStrength": 3,
    "Manufacturer": "Siemens",
    "ManufacturersModelName": "Prisma_fit",
    "Modality": "MR",
    "MultibandAccelerationFactor": 4,
    "PartialFourier": 1,
    "PatientPosition": "HFS",
    "PercentPhaseFOV": 100,
    "PhaseEncodingDirection": "j-",
    "PhaseEncodingSteps": 104,
    "PhaseResolution": 1,
    "PixelBandwidth": 2290,
    "ProcedureStepDescription": "video5_generic",
    "ProtocolName": "func_task-life4",
    "PulseSequenceDetails": "%CustomerSeq%_cmrr_mbep2d_bold",
    "ReceiveCoilActiveElements": "HC1-7;NC1,2",
    "ReceiveCoilName": "HeadNeck_64",
    "ReconMatrixPE": 104,
    "RepetitionTime": 1.49,
    "SAR": 0.035882,
    "ScanOptions": "FS",
    "ScanningSequence": "EP",
    "SequenceName": "epfid2d1_104",
    "SequenceVariant": "SK_SS",
    "SeriesDescription": "func_task-life4",
    "SeriesNumber": 13,
    "ShimSetting": [
      603,
      -7242,
      -8865,
      348,
      40,
      -405,
      26,
      29
    ],
    "SliceThickness": 2,
    "SliceTiming": [
      0,
      0.785,
      0.0975,
      0.8825,
      0.195,
      0.98,
      0.295,
      1.0775,
      0.3925,
      1.175,
      0.49,
      1.275,
      0.5875,
      1.3725,
      0.685,
      0,
      0.785,
      0.0975,
      0.8825,
      0.195,
      0.98,
      0.295,
      1.0775,
      0.3925,
      1.175,
      0.49,
      1.275,
      0.5875,
      1.3725,
      0.685,
      0,
      0.785,
      0.0975,
      0.8825,
      0.195,
      0.98,
      0.295,
      1.0775,
      0.3925,
      1.175,
      0.49,
      1.275,
      0.5875,
      1.3725,
      0.685,
      0,
      0.785,
      0.0975,
      0.8825,
      0.195,
      0.98,
      0.295,
      1.0775,
      0.3925,
      1.175,
      0.49,
      1.275,
      0.5875,
      1.3725,
      0.685
    ],
    "SoftwareVersions": "syngo_MR_E11",
    "SpacingBetweenSlices": 2,
    "StationName": "MRC35049",
    "TaskName": "life04",
    "TotalReadoutTime": 0.0576811,
    "TxRefAmp": 237.192,
    "dataset": "<unset>",
    "dcmmeta_affine": [
      [
        -1.9989280700683594,
        -0.025120500475168228,
        -0.060460351407527924,
        105.59588623046875
      ],
      [
        -0.0020990953780710697,
        1.8705666065216064,
        -0.707796573638916,
        -60.508609771728516
      ],
      [
        -0.06543765962123871,
        0.7073537707328796,
        1.8695905208587646,
        -72.5686264038086
      ],
      [
        0.0,
        0.0,
        0.0,
        1.0
      ]
    ],
    "dcmmeta_reorient_transform": [
      [
        0.0,
        -1.0,
        0.0,
        103.0
      ],
      [
        1.0,
        0.0,
        0.0,
        0.0
      ],
      [
        0.0,
        0.0,
        1.0,
        0.0
      ],
      [
        0.0,
        0.0,
        0.0,
        1.0
      ]
    ],
    "dcmmeta_shape": [
      104,
      104,
      60,
      410
    ],
    "dcmmeta_slice_dim": 2,
    "dcmmeta_version": 0.6,
    "global": {
      "const": {
        "AcquisitionMatrix": [
          104,
          0,
          0,
          104
        ],
        "AngioFlag": "N",
        "BitsAllocated": 16,
        "BitsStored": 16,
        "BodyPartExamined": "BRAIN",
        "Columns": 832,
        "EchoNumbers": 1,
        "EchoTime": 37.0,
        "EchoTrainLength": 104,
        "FlipAngle": 52.0,
        "HighBit": 15,
        "ImageOrientationPatient": [
          0.99946404467916,
          0.00104954768959,
          -0.0327188301018,
          -0.0125602503849,
          0.93528332331332,
          -0.3536768938484
        ],
        "ImagePositionPatient": [
          -821.47443855255,
          -813.8100842335,
          281.58490291007
        ],
        "ImageType": [
          "ORIGINAL",
          "PRIMARY",
          "M",
          "MB",
          "ND",
          "MOSAIC"
        ],
        "ImagedNucleus": "1H",
        "ImagingFrequency": 123.259382,
        "InPlanePhaseEncodingDirection": "COL",
        "MRAcquisitionType": "2D",
        "MagneticFieldStrength": 3.0,
        "Manufacturer": "SIEMENS",
        "ManufacturerModelName": "Prisma_fit",
        "Modality": "MR",
        "NumberOfAverages": 1.0,
        "NumberOfPhaseEncodingSteps": 104,
        "PercentPhaseFieldOfView": 100.0,
        "PercentSampling": 100.0,
        "PerformedProcedureStepStartTime": "173120.986000",
        "PhotometricInterpretation": "MONOCHROME2",
        "PixelBandwidth": 2290.0,
        "PixelRepresentation": 0,
        "PixelSpacing": [
          2.0,
          2.0
        ],
        "ProtocolName": "func_task-life4",
        "RepetitionTime": 1490.0,
        "Rows": 832,
        "SAR": 0.03588196964402,
        "SamplesPerPixel": 1,
        "ScanOptions": "FS",
        "ScanningSequence": "EP",
        "SequenceName": "epfid2d1_104",
        "SequenceVariant": [
          "SK",
          "SS"
        ],
        "SeriesDescription": "func_task-life4",
        "SeriesNumber": 13,
        "SeriesTime": "180754.112000",
        "SliceLocation": -49.615092331108,
        "SliceThickness": 2.0,
        "SmallestImagePixelValue": 0,
        "SoftwareVersions": "syngo MR E11",
        "SpacingBetweenSlices": 2.0000000253892,
        "SpecificCharacterSet": "ISO_IR 100",
        "StudyID": "1",
        "StudyTime": "173120.924000",
        "TransmitCoilName": "Body",
        "VariableFlipAngleFlag": "N",
        "WindowCenterWidthExplanation": "Algo1",
        "dBdt": 0.0
      },
      "slices": {}
    },
    "modality": "bold",
    "run_id": 1,
    "session_id": "001",
    "subject_id": "05",
    "task_id": "life04",
    "time": {
      "samples": {
        "AcquisitionNumber": [
          1,
          2,
          3,
          4,
          5,
          6,
          7,
          8,
          9,
          10,
          11,
          12,
          13,
          14,
          15,
          16,
          17,
          18,
          19,
          20,
          21,
          22,
          23,
          24,
          25,
          26,
          27,
          28,
          29,
          30,
          31,
          32,
          33,
          34,
          35,
          36,
          37,
          38,
          39,
          40,
          41,
          42,
          43,
          44,
          45,
          46,
          47,
          48,
          49,
          50,
          51,
          52,
          53,
          54,
          55,
          56,
          57,
          58,
          59,
          60,
          61,
          62,
          63,
          64,
          65,
          66,
          67,
          68,
          69,
          70,
          71,
          72,
          73,
          74,
          75,
          76,
          77,
          78,
          79,
          80,
          81,
          82,
          83,
          84,
          85,
          86,
          87,
          88,
          89,
          90,
          91,
          92,
          93,
          94,
          95,
          96,
          97,
          98,
          99,
          100,
          101,
          102,
          103,
          104,
          105,
          106,
          107,
          108,
          109,
          110,
          111,
          112,
          113,
          114,
          115,
          116,
          117,
          118,
          119,
          120,
          121,
          122,
          123,
          124,
          125,
          126,
          127,
          128,
          129,
          130,
          131,
          132,
          133,
          134,
          135,
          136,
          137,
          138,
          139,
          140,
          141,
          142,
          143,
          144,
          145,
          146,
          147,
          148,
          149,
          150,
          151,
          152,
          153,
          154,
          155,
          156,
          157,
          158,
          159,
          160,
          161,
          162,
          163,
          164,
          165,
          166,
          167,
          168,
          169,
          170,
          171,
          172,
          173,
          174,
          175,
          176,
          177,
          178,
          179,
          180,
          181,
          182,
          183,
          184,
          185,
          186,
          187,
          188,
          189,
          190,
          191,
          192,
          193,
          194,
          195,
          196,
          197,
          198,
          199,
          200,
          201,
          202,
          203,
          204,
          205,
          206,
          207,
          208,
          209,
          210,
          211,
          212,
          213,
          214,
          215,
          216,
          217,
          218,
          219,
          220,
          221,
          222,
          223,
          224,
          225,
          226,
          227,
          228,
          229,
          230,
          231,
          232,
          233,
          234,
          235,
          236,
          237,
          238,
          239,
          240,
          241,
          242,
          243,
          244,
          245,
          246,
          247,
          248,
          249,
          250,
          251,
          252,
          253,
          254,
          255,
          256,
          257,
          258,
          259,
          260,
          261,
          262,
          263,
          264,
          265,
          266,
          267,
          268,
          269,
          270,
          271,
          272,
          273,
          274,
          275,
          276,
          277,
          278,
          279,
          280,
          281,
          282,
          283,
          284,
          285,
          286,
          287,
          288,
          289,
          290,
          291,
          292,
          293,
          294,
          295,
          296,
          297,
          298,
          299,
          300,
          301,
          302,
          303,
          304,
          305,
          306,
          307,
          308,
          309,
          310,
          311,
          312,
          313,
          314,
          315,
          316,
          317,
          318,
          319,
          320,
          321,
          322,
          323,
          324,
          325,
          326,
          327,
          328,
          329,
          330,
          331,
          332,
          333,
          334,
          335,
          336,
          337,
          338,
          339,
          340,
          341,
          342,
          343,
          344,
          345,
          346,
          347,
          348,
          349,
          350,
          351,
          352,
          353,
          354,
          355,
          356,
          357,
          358,
          359,
          360,
          361,
          362,
          363,
          364,
          365,
          366,
          367,
          368,
          369,
          370,
          371,
          372,
          373,
          374,
          375,
          376,
          377,
          378,
          379,
          380,
          381,
          382,
          383,
          384,
          385,
          386,
          387,
          388,
          389,
          390,
          391,
          392,
          393,
          394,
          395,
          396,
          397,
          398,
          399,
          400,
          401,
          402,
          403,
          404,
          405,
          406,
          407,
          408,
          409,
          410
        ],
        "AcquisitionTime": [
          "180625.992500",
          "180627.482500",
          "180628.972500",
          "180630.462500",
          "180631.952500",
          "180633.442500",
          "180634.932500",
          "180636.422500",
          "180637.912500",
          "180639.402500",
          "180640.892500",
          "180642.382500",
          "180643.872500",
          "180645.362500",
          "180646.852500",
          "180648.342500",
          "180649.832500",
          "180651.322500",
          "180652.812500",
          "180654.302500",
          "180655.792500",
          "180657.282500",
          "180658.772500",
          "180700.262500",
          "180701.752500",
          "180703.242500",
          "180704.732500",
          "180706.222500",
          "180707.712500",
          "180709.202500",
          "180710.692500",
          "180712.182500",
          "180713.672500",
          "180715.162500",
          "180716.652500",
          "180718.142500",
          "180719.632500",
          "180721.122500",
          "180722.612500",
          "180724.102500",
          "180725.592500",
          "180727.082500",
          "180728.572500",
          "180730.062500",
          "180731.552500",
          "180733.042500",
          "180734.532500",
          "180736.022500",
          "180737.512500",
          "180739.002500",
          "180740.492500",
          "180741.982500",
          "180743.472500",
          "180744.962500",
          "180746.452500",
          "180747.942500",
          "180749.432500",
          "180750.922500",
          "180752.412500",
          "180753.902500",
          "180755.392500",
          "180756.882500",
          "180758.372500",
          "180759.862500",
          "180801.352500",
          "180802.842500",
          "180804.332500",
          "180805.822500",
          "180807.312500",
          "180808.802500",
          "180810.292500",
          "180811.782500",
          "180813.272500",
          "180814.762500",
          "180816.252500",
          "180817.742500",
          "180819.232500",
          "180820.722500",
          "180822.212500",
          "180823.702500",
          "180825.192500",
          "180826.682500",
          "180828.172500",
          "180829.662500",
          "180831.152500",
          "180832.642500",
          "180834.132500",
          "180835.622500",
          "180837.112500",
          "180838.602500",
          "180840.092500",
          "180841.582500",
          "180843.072500",
          "180844.562500",
          "180846.052500",
          "180847.542500",
          "180849.032500",
          "180850.522500",
          "180852.012500",
          "180853.502500",
          "180854.992500",
          "180856.482500",
          "180857.972500",
          "180859.462500",
          "180900.952500",
          "180902.442500",
          "180903.932500",
          "180905.422500",
          "180906.912500",
          "180908.402500",
          "180909.892500",
          "180911.382500",
          "180912.872500",
          "180914.362500",
          "180915.852500",
          "180917.342500",
          "180918.832500",
          "180920.322500",
          "180921.812500",
          "180923.302500",
          "180924.792500",
          "180926.282500",
          "180927.772500",
          "180929.262500",
          "180930.752500",
          "180932.242500",
          "180933.732500",
          "180935.222500",
          "180936.712500",
          "180938.202500",
          "180939.692500",
          "180941.182500",
          "180942.672500",
          "180944.162500",
          "180945.652500",
          "180947.142500",
          "180948.632500",
          "180950.122500",
          "180951.612500",
          "180953.102500",
          "180954.592500",
          "180956.082500",
          "180957.572500",
          "180959.062500",
          "181000.552500",
          "181002.042500",
          "181003.532500",
          "181005.022500",
          "181006.512500",
          "181008.002500",
          "181009.492500",
          "181010.982500",
          "181012.472500",
          "181013.962500",
          "181015.452500",
          "181016.942500",
          "181018.432500",
          "181019.922500",
          "181021.412500",
          "181022.902500",
          "181024.392500",
          "181025.882500",
          "181027.372500",
          "181028.862500",
          "181030.352500",
          "181031.842500",
          "181033.332500",
          "181034.822500",
          "181036.312500",
          "181037.802500",
          "181039.292500",
          "181040.782500",
          "181042.272500",
          "181043.762500",
          "181045.252500",
          "181046.742500",
          "181048.232500",
          "181049.722500",
          "181051.212500",
          "181052.702500",
          "181054.192500",
          "181055.682500",
          "181057.172500",
          "181058.662500",
          "181100.152500",
          "181101.642500",
          "181103.132500",
          "181104.622500",
          "181106.112500",
          "181107.602500",
          "181109.092500",
          "181110.582500",
          "181112.072500",
          "181113.562500",
          "181115.052500",
          "181116.542500",
          "181118.032500",
          "181119.522500",
          "181121.012500",
          "181122.502500",
          "181123.992500",
          "181125.482500",
          "181126.972500",
          "181128.462500",
          "181129.952500",
          "181131.442500",
          "181132.932500",
          "181134.422500",
          "181135.912500",
          "181137.402500",
          "181138.892500",
          "181140.382500",
          "181141.872500",
          "181143.362500",
          "181144.852500",
          "181146.342500",
          "181147.832500",
          "181149.322500",
          "181150.812500",
          "181152.302500",
          "181153.792500",
          "181155.282500",
          "181156.772500",
          "181158.262500",
          "181159.752500",
          "181201.242500",
          "181202.732500",
          "181204.222500",
          "181205.712500",
          "181207.202500",
          "181208.692500",
          "181210.182500",
          "181211.672500",
          "181213.162500",
          "181214.652500",
          "181216.142500",
          "181217.632500",
          "181219.122500",
          "181220.612500",
          "181222.102500",
          "181223.592500",
          "181225.082500",
          "181226.572500",
          "181228.062500",
          "181229.552500",
          "181231.042500",
          "181232.532500",
          "181234.022500",
          "181235.512500",
          "181237.002500",
          "181238.492500",
          "181239.982500",
          "181241.472500",
          "181242.962500",
          "181244.452500",
          "181245.942500",
          "181247.432500",
          "181248.922500",
          "181250.412500",
          "181251.902500",
          "181253.392500",
          "181254.882500",
          "181256.372500",
          "181257.862500",
          "181259.352500",
          "181300.842500",
          "181302.332500",
          "181303.822500",
          "181305.312500",
          "181306.802500",
          "181308.292500",
          "181309.782500",
          "181311.272500",
          "181312.762500",
          "181314.252500",
          "181315.742500",
          "181317.232500",
          "181318.722500",
          "181320.212500",
          "181321.702500",
          "181323.192500",
          "181324.682500",
          "181326.172500",
          "181327.662500",
          "181329.152500",
          "181330.642500",
          "181332.132500",
          "181333.622500",
          "181335.112500",
          "181336.602500",
          "181338.092500",
          "181339.582500",
          "181341.072500",
          "181342.562500",
          "181344.052500",
          "181345.542500",
          "181347.032500",
          "181348.522500",
          "181350.012500",
          "181351.502500",
          "181352.992500",
          "181354.482500",
          "181355.972500",
          "181357.462500",
          "181358.952500",
          "181400.442500",
          "181401.932500",
          "181403.422500",
          "181404.912500",
          "181406.402500",
          "181407.892500",
          "181409.382500",
          "181410.872500",
          "181412.362500",
          "181413.852500",
          "181415.342500",
          "181416.832500",
          "181418.322500",
          "181419.812500",
          "181421.302500",
          "181422.792500",
          "181424.282500",
          "181425.772500",
          "181427.262500",
          "181428.752500",
          "181430.242500",
          "181431.732500",
          "181433.222500",
          "181434.712500",
          "181436.202500",
          "181437.692500",
          "181439.182500",
          "181440.672500",
          "181442.162500",
          "181443.652500",
          "181445.142500",
          "181446.632500",
          "181448.122500",
          "181449.612500",
          "181451.102500",
          "181452.592500",
          "181454.082500",
          "181455.572500",
          "181457.062500",
          "181458.552500",
          "181500.042500",
          "181501.532500",
          "181503.022500",
          "181504.512500",
          "181506.002500",
          "181507.492500",
          "181508.982500",
          "181510.472500",
          "181511.962500",
          "181513.452500",
          "181514.942500",
          "181516.432500",
          "181517.922500",
          "181519.412500",
          "181520.902500",
          "181522.392500",
          "181523.882500",
          "181525.372500",
          "181526.862500",
          "181528.352500",
          "181529.842500",
          "181531.332500",
          "181532.822500",
          "181534.312500",
          "181535.802500",
          "181537.292500",
          "181538.782500",
          "181540.272500",
          "181541.762500",
          "181543.252500",
          "181544.742500",
          "181546.232500",
          "181547.722500",
          "181549.212500",
          "181550.702500",
          "181552.192500",
          "181553.682500",
          "181555.172500",
          "181556.662500",
          "181558.152500",
          "181559.642500",
          "181601.132500",
          "181602.622500",
          "181604.112500",
          "181605.602500",
          "181607.092500",
          "181608.582500",
          "181610.072500",
          "181611.562500",
          "181613.052500",
          "181614.542500",
          "181616.032500",
          "181617.522500",
          "181619.012500",
          "181620.502500",
          "181621.992500",
          "181623.482500",
          "181624.972500",
          "181626.462500",
          "181627.952500",
          "181629.442500",
          "181630.932500",
          "181632.422500",
          "181633.912500",
          "181635.402500"
        ],
        "ContentTime": [
          "180754.114000",
          "180754.119000",
          "180754.122000",
          "180754.130000",
          "180754.133000",
          "180754.136000",
          "180754.139000",
          "180754.142000",
          "180754.144000",
          "180754.147000",
          "180754.150000",
          "180754.153000",
          "180754.156000",
          "180754.159000",
          "180754.161000",
          "180754.164000",
          "180754.167000",
          "180754.170000",
          "180754.173000",
          "180754.176000",
          "180754.178000",
          "180754.181000",
          "180754.184000",
          "180754.187000",
          "180754.190000",
          "180754.193000",
          "180754.195000",
          "180754.198000",
          "180754.201000",
          "180754.204000",
          "180754.207000",
          "180754.210000",
          "180754.212000",
          "180754.215000",
          "180754.218000",
          "180814.078000",
          "180814.081000",
          "180814.084000",
          "180814.087000",
          "180814.089000",
          "180814.092000",
          "180814.095000",
          "180814.098000",
          "180814.101000",
          "180814.104000",
          "180814.106000",
          "180814.109000",
          "180814.112000",
          "180814.118000",
          "180814.121000",
          "180814.124000",
          "180814.127000",
          "180814.129000",
          "180814.132000",
          "180814.135000",
          "180834.078000",
          "180834.082000",
          "180834.084000",
          "180834.087000",
          "180834.090000",
          "180834.093000",
          "180834.096000",
          "180834.098000",
          "180834.101000",
          "180834.104000",
          "180834.107000",
          "180834.110000",
          "180834.113000",
          "180834.115000",
          "180834.118000",
          "180834.121000",
          "180834.124000",
          "180834.126000",
          "180834.129000",
          "180834.132000",
          "180854.078000",
          "180854.081000",
          "180854.095000",
          "180854.098000",
          "180854.101000",
          "180854.103000",
          "180854.106000",
          "180854.109000",
          "180854.112000",
          "180854.115000",
          "180854.118000",
          "180854.120000",
          "180854.123000",
          "180854.126000",
          "180854.129000",
          "180854.132000",
          "180854.135000",
          "180854.137000",
          "180854.140000",
          "180854.143000",
          "180934.079000",
          "180934.082000",
          "180934.085000",
          "180934.087000",
          "180934.090000",
          "180934.093000",
          "180934.096000",
          "180934.099000",
          "180934.102000",
          "180934.105000",
          "180934.107000",
          "180934.110000",
          "180934.113000",
          "180934.116000",
          "180934.119000",
          "180934.122000",
          "180934.124000",
          "180934.127000",
          "180934.130000",
          "180934.133000",
          "180934.136000",
          "180934.139000",
          "180934.142000",
          "180934.144000",
          "180934.147000",
          "180934.159000",
          "180934.162000",
          "180934.165000",
          "180934.167000",
          "180934.170000",
          "181014.078000",
          "181014.081000",
          "181014.084000",
          "181014.087000",
          "181014.090000",
          "181014.092000",
          "181014.095000",
          "181014.098000",
          "181014.101000",
          "181014.104000",
          "181014.106000",
          "181014.109000",
          "181014.112000",
          "181014.115000",
          "181014.118000",
          "181014.120000",
          "181014.123000",
          "181014.126000",
          "181014.129000",
          "181014.132000",
          "181014.135000",
          "181014.137000",
          "181014.140000",
          "181014.143000",
          "181014.146000",
          "181014.149000",
          "181014.152000",
          "181054.078000",
          "181054.081000",
          "181054.084000",
          "181054.086000",
          "181054.089000",
          "181054.092000",
          "181054.095000",
          "181054.098000",
          "181054.101000",
          "181054.103000",
          "181054.106000",
          "181054.109000",
          "181054.112000",
          "181054.115000",
          "181054.117000",
          "181054.120000",
          "181054.123000",
          "181054.126000",
          "181054.129000",
          "181054.132000",
          "181054.145000",
          "181054.148000",
          "181054.151000",
          "181054.154000",
          "181054.157000",
          "181054.160000",
          "181054.163000",
          "181134.078000",
          "181134.081000",
          "181134.084000",
          "181134.087000",
          "181134.090000",
          "181134.093000",
          "181134.095000",
          "181134.098000",
          "181134.101000",
          "181134.104000",
          "181134.107000",
          "181134.110000",
          "181134.113000",
          "181134.115000",
          "181134.118000",
          "181134.121000",
          "181134.124000",
          "181134.127000",
          "181134.130000",
          "181134.133000",
          "181134.136000",
          "181134.138000",
          "181134.141000",
          "181134.144000",
          "181134.147000",
          "181134.150000",
          "181134.153000",
          "181214.078000",
          "181214.081000",
          "181214.084000",
          "181214.087000",
          "181214.090000",
          "181214.093000",
          "181214.095000",
          "181214.098000",
          "181214.101000",
          "181214.104000",
          "181214.107000",
