{
  "aor": 0.0008392176039119803,
  "aqi": 0.01099302968215159,
  "bids_meta": {
    "AcquisitionMatrixPE": 104,
    "AcquisitionNumber": 1,
    "AcquisitionTime": "17:55:42.547500",
    "BandwidthPerPixelPhaseEncode": 17.17,
    "BaseResolution": 104,
    "BodyPartExamined": "BRAIN",
    "CogAtlasID": "trm_4c898da401420",
    "ConsistencyInfo": "N4_VE11C_LATEST_20160120",
    "ConversionSoftware": "dcm2niix",
    "ConversionSoftwareVersion": "v1.0.20171215 (OpenJPEG build) GCC7.3.0",
    "DerivedVendorReportedEchoSpacing": 0.000560011,
    "DeviceSerialNumber": "167006",
    "DwellTime": 2.1e-06,
    "EchoTime": 0.037,
    "EchoTrainLength": 104,
    "EffectiveEchoSpacing": 0.000560011,
    "FlipAngle": 52,
    "ImageComments": "Unaliased_MB4_PE3_LB",
    "ImageOrientationPatientDICOM": [
      0.999464,
      0.00104955,
      -0.0327188,
      -0.0125603,
      0.935283,
      -0.353677
    ],
    "ImageType": [
      "ORIGINAL",
      "PRIMARY",
      "M",
      "MB",
      "ND",
      "MOSAIC"
    ],
    "InPlanePhaseEncodingDirectionDICOM": "COL",
    "InstitutionAddress": "Chemin_Queen-Mary_4565_Montreal_District_CA_H3W_1W5",
    "InstitutionName": "IUGM",
    "InstitutionalDepartmentName": "Department",
    "MRAcquisitionType": "2D",
    "MagneticFieldStrength": 3,
    "Manufacturer": "Siemens",
    "ManufacturersModelName": "Prisma_fit",
    "Modality": "MR",
    "MultibandAccelerationFactor": 4,
    "PartialFourier": 1,
    "PatientPosition": "HFS",
    "PercentPhaseFOV": 100,
    "PhaseEncodingDirection": "j-",
    "PhaseEncodingSteps": 104,
    "PhaseResolution": 1,
    "PixelBandwidth": 2290,
    "ProcedureStepDescription": "video5_generic",
    "ProtocolName": "func_task-life3",
    "PulseSequenceDetails": "%CustomerSeq%_cmrr_mbep2d_bold",
    "ReceiveCoilActiveElements": "HC1-7;NC1,2",
    "ReceiveCoilName": "HeadNeck_64",
    "ReconMatrixPE": 104,
    "RepetitionTime": 1.49,
    "SAR": 0.035882,
    "ScanOptions": "FS",
    "ScanningSequence": "EP",
    "SequenceName": "epfid2d1_104",
    "SequenceVariant": "SK_SS",
    "SeriesDescription": "func_task-life3",
    "SeriesNumber": 11,
    "ShimSetting": [
      603,
      -7242,
      -8865,
      348,
      40,
      -405,
      26,
      29
    ],
    "SliceThickness": 2,
    "SliceTiming": [
      0,
      0.7825,
      0.0975,
      0.88,
      0.195,
      0.98,
      0.2925,
      1.0775,
      0.39,
      1.175,
      0.49,
      1.2725,
      0.5875,
      1.37,
      0.685,
      0,
      0.7825,
      0.0975,
      0.88,
      0.195,
      0.98,
      0.2925,
      1.0775,
      0.39,
      1.175,
      0.49,
      1.2725,
      0.5875,
      1.37,
      0.685,
      0,
      0.7825,
      0.0975,
      0.88,
      0.195,
      0.98,
      0.2925,
      1.0775,
      0.39,
      1.175,
      0.49,
      1.2725,
      0.5875,
      1.37,
      0.685,
      0,
      0.7825,
      0.0975,
      0.88,
      0.195,
      0.98,
      0.2925,
      1.0775,
      0.39,
      1.175,
      0.49,
      1.2725,
      0.5875,
      1.37,
      0.685
    ],
    "SoftwareVersions": "syngo_MR_E11",
    "SpacingBetweenSlices": 2,
    "StationName": "MRC35049",
    "TaskName": "life03",
    "TotalReadoutTime": 0.0576811,
    "TxRefAmp": 237.192,
    "dataset": "<unset>",
    "dcmmeta_affine": [
      [
        -1.9989280700683594,
        -0.025120500475168228,
        -0.060460351407527924,
        105.59588623046875
      ],
      [
        -0.0020990953780710697,
        1.8705666065216064,
        -0.707796573638916,
        -60.508609771728516
      ],
      [
        -0.06543765962123871,
        0.7073537707328796,
        1.8695905208587646,
        -72.5686264038086
      ],
      [
        0.0,
        0.0,
        0.0,
        1.0
      ]
    ],
    "dcmmeta_reorient_transform": [
      [
        0.0,
        -1.0,
        0.0,
        103.0
      ],
      [
        1.0,
        0.0,
        0.0,
        0.0
      ],
      [
        0.0,
        0.0,
        1.0,
        0.0
      ],
      [
        0.0,
        0.0,
        0.0,
        1.0
      ]
    ],
    "dcmmeta_shape": [
      104,
      104,
      60,
      410
    ],
    "dcmmeta_slice_dim": 2,
    "dcmmeta_version": 0.6,
    "global": {
      "const": {
        "AcquisitionMatrix": [
          104,
          0,
          0,
          104
        ],
        "AngioFlag": "N",
        "BitsAllocated": 16,
        "BitsStored": 16,
        "BodyPartExamined": "BRAIN",
        "Columns": 832,
        "EchoNumbers": 1,
        "EchoTime": 37.0,
        "EchoTrainLength": 104,
        "FlipAngle": 52.0,
        "HighBit": 15,
        "ImageOrientationPatient": [
          0.99946404467916,
          0.00104954768959,
          -0.0327188301018,
          -0.0125602503849,
          0.93528332331332,
          -0.3536768938484
        ],
        "ImagePositionPatient": [
          -821.47443855255,
          -813.8100842335,
          281.58490291007
        ],
        "ImageType": [
          "ORIGINAL",
          "PRIMARY",
          "M",
          "MB",
          "ND",
          "MOSAIC"
        ],
        "ImagedNucleus": "1H",
        "ImagingFrequency": 123.259379,
        "InPlanePhaseEncodingDirection": "COL",
        "MRAcquisitionType": "2D",
        "MagneticFieldStrength": 3.0,
        "Manufacturer": "SIEMENS",
        "ManufacturerModelName": "Prisma_fit",
        "Modality": "MR",
        "NumberOfAverages": 1.0,
        "NumberOfPhaseEncodingSteps": 104,
        "PercentPhaseFieldOfView": 100.0,
        "PercentSampling": 100.0,
        "PerformedProcedureStepStartTime": "173120.986000",
        "PhotometricInterpretation": "MONOCHROME2",
        "PixelBandwidth": 2290.0,
        "PixelRepresentation": 0,
        "PixelSpacing": [
          2.0,
          2.0
        ],
        "ProtocolName": "func_task-life3",
        "RepetitionTime": 1490.0,
        "Rows": 832,
        "SAR": 0.03588196964402,
        "SamplesPerPixel": 1,
        "ScanOptions": "FS",
        "ScanningSequence": "EP",
        "SequenceName": "epfid2d1_104",
        "SequenceVariant": [
          "SK",
          "SS"
        ],
        "SeriesDescription": "func_task-life3",
        "SeriesNumber": 11,
        "SeriesTime": "175712.135000",
        "SliceLocation": -49.615092331108,
        "SliceThickness": 2.0,
        "SmallestImagePixelValue": 0,
        "SoftwareVersions": "syngo MR E11",
        "SpacingBetweenSlices": 2.0000000253892,
        "SpecificCharacterSet": "ISO_IR 100",
        "StudyID": "1",
        "StudyTime": "173120.924000",
        "TransmitCoilName": "Body",
        "VariableFlipAngleFlag": "N",
        "WindowCenterWidthExplanation": "Algo1",
        "dBdt": 0.0
      },
      "slices": {}
    },
    "modality": "bold",
    "run_id": 1,
    "session_id": "001",
    "subject_id": "05",
    "task_id": "life03",
    "time": {
      "samples": {
        "AcquisitionNumber": [
          1,
          2,
          3,
          4,
          5,
          6,
          7,
          8,
          9,
          10,
          11,
          12,
          13,
          14,
          15,
          16,
          17,
          18,
          19,
          20,
          21,
          22,
          23,
          24,
          25,
          26,
          27,
          28,
          29,
          30,
          31,
          32,
          33,
          34,
          35,
          36,
          37,
          38,
          39,
          40,
          41,
          42,
          43,
          44,
          45,
          46,
          47,
          48,
          49,
          50,
          51,
          52,
          53,
          54,
          55,
          56,
          57,
          58,
          59,
          60,
          61,
          62,
          63,
          64,
          65,
          66,
          67,
          68,
          69,
          70,
          71,
          72,
          73,
          74,
          75,
          76,
          77,
          78,
          79,
          80,
          81,
          82,
          83,
          84,
          85,
          86,
          87,
          88,
          89,
          90,
          91,
          92,
          93,
          94,
          95,
          96,
          97,
          98,
          99,
          100,
          101,
          102,
          103,
          104,
          105,
          106,
          107,
          108,
          109,
          110,
          111,
          112,
          113,
          114,
          115,
          116,
          117,
          118,
          119,
          120,
          121,
          122,
          123,
          124,
          125,
          126,
          127,
          128,
          129,
          130,
          131,
          132,
          133,
          134,
          135,
          136,
          137,
          138,
          139,
          140,
          141,
          142,
          143,
          144,
          145,
          146,
          147,
          148,
          149,
          150,
          151,
          152,
          153,
          154,
          155,
          156,
          157,
          158,
          159,
          160,
          161,
          162,
          163,
          164,
          165,
          166,
          167,
          168,
          169,
          170,
          171,
          172,
          173,
          174,
          175,
          176,
          177,
          178,
          179,
          180,
          181,
          182,
          183,
          184,
          185,
          186,
          187,
          188,
          189,
          190,
          191,
          192,
          193,
          194,
          195,
          196,
          197,
          198,
          199,
          200,
          201,
          202,
          203,
          204,
          205,
          206,
          207,
          208,
          209,
          210,
          211,
          212,
          213,
          214,
          215,
          216,
          217,
          218,
          219,
          220,
          221,
          222,
          223,
          224,
          225,
          226,
          227,
          228,
          229,
          230,
          231,
          232,
          233,
          234,
          235,
          236,
          237,
          238,
          239,
          240,
          241,
          242,
          243,
          244,
          245,
          246,
          247,
          248,
          249,
          250,
          251,
          252,
          253,
          254,
          255,
          256,
          257,
          258,
          259,
          260,
          261,
          262,
          263,
          264,
          265,
          266,
          267,
          268,
          269,
          270,
          271,
          272,
          273,
          274,
          275,
          276,
          277,
          278,
          279,
          280,
          281,
          282,
          283,
          284,
          285,
          286,
          287,
          288,
          289,
          290,
          291,
          292,
          293,
          294,
          295,
          296,
          297,
          298,
          299,
          300,
          301,
          302,
          303,
          304,
          305,
          306,
          307,
          308,
          309,
          310,
          311,
          312,
          313,
          314,
          315,
          316,
          317,
          318,
          319,
          320,
          321,
          322,
          323,
          324,
          325,
          326,
          327,
          328,
          329,
          330,
          331,
          332,
          333,
          334,
          335,
          336,
          337,
          338,
          339,
          340,
          341,
          342,
          343,
          344,
          345,
          346,
          347,
          348,
          349,
          350,
          351,
          352,
          353,
          354,
          355,
          356,
          357,
          358,
          359,
          360,
          361,
          362,
          363,
          364,
          365,
          366,
          367,
          368,
          369,
          370,
          371,
          372,
          373,
          374,
          375,
          376,
          377,
          378,
          379,
          380,
          381,
          382,
          383,
          384,
          385,
          386,
          387,
          388,
          389,
          390,
          391,
          392,
          393,
          394,
          395,
          396,
          397,
          398,
          399,
          400,
          401,
          402,
          403,
          404,
          405,
          406,
          407,
          408,
          409,
          410
        ],
        "AcquisitionTime": [
          "175542.547500",
          "175544.037500",
          "175545.527500",
          "175547.017500",
          "175548.507500",
          "175549.997500",
          "175551.487500",
          "175552.977500",
          "175554.467500",
          "175555.957500",
          "175557.447500",
          "175558.937500",
          "175600.427500",
          "175601.917500",
          "175603.407500",
          "175604.897500",
          "175606.387500",
          "175607.877500",
          "175609.367500",
          "175610.857500",
          "175612.347500",
          "175613.837500",
          "175615.327500",
          "175616.817500",
          "175618.307500",
          "175619.797500",
          "175621.287500",
          "175622.777500",
          "175624.267500",
          "175625.757500",
          "175627.247500",
          "175628.737500",
          "175630.227500",
          "175631.717500",
          "175633.207500",
          "175634.697500",
          "175636.187500",
          "175637.677500",
          "175639.167500",
          "175640.657500",
          "175642.147500",
          "175643.637500",
          "175645.127500",
          "175646.617500",
          "175648.107500",
          "175649.597500",
          "175651.087500",
          "175652.577500",
          "175654.067500",
          "175655.557500",
          "175657.047500",
          "175658.537500",
          "175700.027500",
          "175701.517500",
          "175703.007500",
          "175704.497500",
          "175705.987500",
          "175707.477500",
          "175708.967500",
          "175710.457500",
          "175711.947500",
          "175713.437500",
          "175714.927500",
          "175716.417500",
          "175717.907500",
          "175719.397500",
          "175720.887500",
          "175722.377500",
          "175723.867500",
          "175725.357500",
          "175726.847500",
          "175728.337500",
          "175729.827500",
          "175731.317500",
          "175732.807500",
          "175734.297500",
          "175735.787500",
          "175737.277500",
          "175738.767500",
          "175740.257500",
          "175741.747500",
          "175743.237500",
          "175744.727500",
          "175746.217500",
          "175747.707500",
          "175749.197500",
          "175750.687500",
          "175752.177500",
          "175753.667500",
          "175755.157500",
          "175756.647500",
          "175758.137500",
          "175759.627500",
          "175801.117500",
          "175802.607500",
          "175804.097500",
          "175805.587500",
          "175807.077500",
          "175808.567500",
          "175810.057500",
          "175811.547500",
          "175813.037500",
          "175814.527500",
          "175816.017500",
          "175817.507500",
          "175818.997500",
          "175820.487500",
          "175821.977500",
          "175823.467500",
          "175824.957500",
          "175826.447500",
          "175827.937500",
          "175829.427500",
          "175830.917500",
          "175832.407500",
          "175833.897500",
          "175835.387500",
          "175836.877500",
          "175838.367500",
          "175839.857500",
          "175841.347500",
          "175842.837500",
          "175844.327500",
          "175845.817500",
          "175847.307500",
          "175848.797500",
          "175850.287500",
          "175851.777500",
          "175853.267500",
          "175854.757500",
          "175856.247500",
          "175857.737500",
          "175859.227500",
          "175900.717500",
          "175902.207500",
          "175903.697500",
          "175905.187500",
          "175906.677500",
          "175908.167500",
          "175909.657500",
          "175911.147500",
          "175912.637500",
          "175914.127500",
          "175915.617500",
          "175917.107500",
          "175918.597500",
          "175920.087500",
          "175921.577500",
          "175923.067500",
          "175924.557500",
          "175926.047500",
          "175927.537500",
          "175929.027500",
          "175930.517500",
          "175932.007500",
          "175933.497500",
          "175934.987500",
          "175936.477500",
          "175937.967500",
          "175939.457500",
          "175940.947500",
          "175942.437500",
          "175943.927500",
          "175945.417500",
          "175946.907500",
          "175948.397500",
          "175949.887500",
          "175951.377500",
          "175952.867500",
          "175954.357500",
          "175955.847500",
          "175957.337500",
          "175958.827500",
          "180000.317500",
          "180001.807500",
          "180003.297500",
          "180004.787500",
          "180006.277500",
          "180007.767500",
          "180009.257500",
          "180010.747500",
          "180012.237500",
          "180013.727500",
          "180015.217500",
          "180016.707500",
          "180018.197500",
          "180019.687500",
          "180021.177500",
          "180022.667500",
          "180024.157500",
          "180025.647500",
          "180027.137500",
          "180028.627500",
          "180030.117500",
          "180031.607500",
          "180033.097500",
          "180034.587500",
          "180036.077500",
          "180037.567500",
          "180039.057500",
          "180040.547500",
          "180042.037500",
          "180043.527500",
          "180045.017500",
          "180046.507500",
          "180047.997500",
          "180049.487500",
          "180050.977500",
          "180052.467500",
          "180053.957500",
          "180055.447500",
          "180056.937500",
          "180058.427500",
          "180059.917500",
          "180101.407500",
          "180102.897500",
          "180104.387500",
          "180105.877500",
          "180107.367500",
          "180108.857500",
          "180110.347500",
          "180111.837500",
          "180113.327500",
          "180114.817500",
          "180116.307500",
          "180117.797500",
          "180119.287500",
          "180120.777500",
          "180122.267500",
          "180123.757500",
          "180125.247500",
          "180126.737500",
          "180128.227500",
          "180129.717500",
          "180131.207500",
          "180132.697500",
          "180134.187500",
          "180135.677500",
          "180137.167500",
          "180138.657500",
          "180140.147500",
          "180141.637500",
          "180143.127500",
          "180144.617500",
          "180146.107500",
          "180147.597500",
          "180149.087500",
          "180150.577500",
          "180152.067500",
          "180153.557500",
          "180155.047500",
          "180156.537500",
          "180158.027500",
          "180159.517500",
          "180201.007500",
          "180202.497500",
          "180203.987500",
          "180205.477500",
          "180206.967500",
          "180208.457500",
          "180209.947500",
          "180211.437500",
          "180212.927500",
          "180214.417500",
          "180215.907500",
          "180217.397500",
          "180218.887500",
          "180220.377500",
          "180221.867500",
          "180223.357500",
          "180224.847500",
          "180226.337500",
          "180227.827500",
          "180229.317500",
          "180230.807500",
          "180232.297500",
          "180233.787500",
          "180235.277500",
          "180236.767500",
          "180238.257500",
          "180239.747500",
          "180241.237500",
          "180242.727500",
          "180244.217500",
          "180245.707500",
          "180247.197500",
          "180248.687500",
          "180250.177500",
          "180251.667500",
          "180253.157500",
          "180254.647500",
          "180256.137500",
          "180257.627500",
          "180259.117500",
          "180300.607500",
          "180302.097500",
          "180303.587500",
          "180305.077500",
          "180306.567500",
          "180308.057500",
          "180309.547500",
          "180311.037500",
          "180312.527500",
          "180314.017500",
          "180315.507500",
          "180316.997500",
          "180318.487500",
          "180319.977500",
          "180321.467500",
          "180322.957500",
          "180324.447500",
          "180325.937500",
          "180327.427500",
          "180328.917500",
          "180330.407500",
          "180331.897500",
          "180333.387500",
          "180334.877500",
          "180336.367500",
          "180337.857500",
          "180339.347500",
          "180340.837500",
          "180342.327500",
          "180343.817500",
          "180345.307500",
          "180346.797500",
          "180348.287500",
          "180349.777500",
          "180351.267500",
          "180352.757500",
          "180354.247500",
          "180355.737500",
          "180357.227500",
          "180358.717500",
          "180400.207500",
          "180401.697500",
          "180403.187500",
          "180404.677500",
          "180406.167500",
          "180407.657500",
          "180409.147500",
          "180410.637500",
          "180412.127500",
          "180413.617500",
          "180415.107500",
          "180416.597500",
          "180418.087500",
          "180419.577500",
          "180421.067500",
          "180422.557500",
          "180424.047500",
          "180425.537500",
          "180427.027500",
          "180428.517500",
          "180430.007500",
          "180431.497500",
          "180432.987500",
          "180434.477500",
          "180435.967500",
          "180437.457500",
          "180438.947500",
          "180440.437500",
          "180441.927500",
          "180443.417500",
          "180444.907500",
          "180446.397500",
          "180447.887500",
          "180449.377500",
          "180450.867500",
          "180452.357500",
          "180453.847500",
          "180455.337500",
          "180456.827500",
          "180458.317500",
          "180459.807500",
          "180501.297500",
          "180502.787500",
          "180504.277500",
          "180505.767500",
          "180507.257500",
          "180508.747500",
          "180510.237500",
          "180511.727500",
          "180513.217500",
          "180514.707500",
          "180516.197500",
          "180517.687500",
          "180519.177500",
          "180520.667500",
          "180522.157500",
          "180523.647500",
          "180525.137500",
          "180526.627500",
          "180528.117500",
          "180529.607500",
          "180531.097500",
          "180532.587500",
          "180534.077500",
          "180535.567500",
          "180537.057500",
          "180538.547500",
          "180540.037500",
          "180541.527500",
          "180543.017500",
          "180544.507500",
          "180545.997500",
          "180547.487500",
          "180548.977500",
          "180550.467500",
          "180551.957500"
        ],
        "ContentTime": [
          "175712.138000",
          "175712.142000",
          "175712.145000",
          "175712.147000",
          "175712.150000",
          "175712.153000",
          "175712.156000",
          "175712.159000",
          "175712.162000",
          "175712.164000",
          "175712.167000",
          "175712.170000",
          "175712.173000",
          "175712.176000",
          "175712.179000",
          "175712.181000",
          "175712.184000",
          "175712.187000",
          "175712.190000",
          "175712.199000",
          "175712.202000",
          "175712.205000",
          "175712.208000",
          "175712.211000",
          "175712.213000",
          "175712.216000",
          "175712.219000",
          "175712.222000",
          "175712.225000",
          "175712.228000",
          "175712.231000",
          "175712.233000",
          "175712.236000",
          "175712.239000",
          "175712.242000",
          "175712.245000",
          "175732.103000",
          "175732.106000",
          "175732.109000",
          "175732.112000",
          "175732.115000",
          "175732.117000",
          "175732.120000",
          "175732.123000",
          "175732.126000",
          "175732.129000",
          "175732.132000",
          "175732.134000",
          "175732.140000",
          "175732.143000",
          "175732.146000",
          "175732.149000",
          "175732.152000",
          "175732.155000",
          "175732.157000",
          "175732.160000",
          "175752.103000",
          "175752.106000",
          "175752.109000",
          "175752.112000",
          "175752.114000",
          "175752.117000",
          "175752.120000",
          "175752.123000",
          "175752.126000",
          "175752.129000",
          "175752.131000",
          "175752.134000",
          "175752.137000",
          "175752.140000",
          "175752.143000",
          "175752.145000",
          "175752.148000",
          "175752.151000",
          "175752.154000",
          "175752.157000",
          "175752.160000",
          "175812.104000",
          "175812.107000",
          "175812.110000",
          "175812.113000",
          "175812.116000",
          "175812.118000",
          "175812.121000",
          "175812.124000",
          "175812.127000",
          "175812.130000",
          "175812.132000",
          "175812.135000",
          "175812.138000",
          "175812.141000",
          "175812.144000",
          "175812.147000",
          "175812.149000",
          "175812.152000",
          "175812.155000",
          "175812.158000",
          "175852.103000",
          "175852.106000",
          "175852.109000",
          "175852.112000",
          "175852.115000",
          "175852.118000",
          "175852.120000",
          "175852.124000",
          "175852.127000",
          "175852.130000",
          "175852.133000",
          "175852.135000",
          "175852.138000",
          "175852.141000",
          "175852.144000",
          "175852.147000",
          "175852.150000",
          "175852.153000",
          "175852.155000",
          "175852.158000",
          "175852.166000",
          "175852.169000",
          "175852.172000",
          "175852.175000",
          "175852.178000",
          "175852.181000",
          "175852.184000",
          "175852.186000",
          "175852.189000",
          "175932.103000",
          "175932.106000",
          "175932.109000",
          "175932.112000",
          "175932.114000",
          "175932.117000",
          "175932.120000",
          "175932.123000",
          "175932.127000",
          "175932.130000",
          "175932.133000",
          "175932.135000",
          "175932.138000",
          "175932.141000",
          "175932.144000",
          "175932.147000",
          "175932.160000",
          "175932.162000",
          "175932.165000",
          "175932.168000",
          "175932.171000",
          "175932.174000",
          "175932.177000",
          "175932.180000",
          "175932.182000",
          "175932.185000",
          "175932.188000",
          "180012.103000",
          "180012.106000",
          "180012.109000",
          "180012.112000",
          "180012.114000",
          "180012.117000",
          "180012.120000",
          "180012.123000",
          "180012.126000",
          "180012.129000",
          "180012.132000",
          "180012.134000",
          "180012.137000",
          "180012.140000",
          "180012.143000",
          "180012.146000",
          "180012.149000",
          "180012.152000",
          "180012.155000",
          "180012.158000",
          "180012.161000",
          "180012.164000",
          "180012.167000",
          "180012.169000",
          "180012.172000",
          "180012.175000",
          "180012.178000",
          "180052.103000",
          "180052.106000",
          "180052.109000",
          "180052.112000",
          "180052.114000",
          "180052.117000",
          "180052.120000",
          "180052.123000",
          "180052.126000",
          "180052.129000",
          "180052.132000",
          "180052.135000",
          "180052.138000",
          "180052.140000",
          "180052.143000",
          "180052.146000",
          "180052.149000",
          "180052.152000",
          "180052.155000",
          "180052.158000",
          "180052.160000",
          "180052.163000",
          "180052.166000",
          "180052.169000",
          "180052.172000",
          "180052.175000",
          "180052.177000",
          "180132.103000",
          "180132.106000",
          "180132.109000",
          "180132.112000",
          "180132.114000",
          "180132.117000",
          "180132.120000",
          "180132.123000",
          "180132.144000",
          "180132.147000",
