{
  "aor": 0.0008239690721649484,
  "aqi": 0.006921822603092783,
  "bids_meta": {
    "AcquisitionMatrixPE": 104,
    "AcquisitionNumber": 1,
    "AcquisitionTime": "18:17:27.495000",
    "BandwidthPerPixelPhaseEncode": 17.17,
    "BaseResolution": 104,
    "BodyPartExamined": "BRAIN",
    "CogAtlasID": "trm_4c898da401420",
    "ConsistencyInfo": "N4_VE11C_LATEST_20160120",
    "ConversionSoftware": "dcm2niix",
    "ConversionSoftwareVersion": "v1.0.20171215 (OpenJPEG build) GCC7.3.0",
    "DerivedVendorReportedEchoSpacing": 0.000560011,
    "DeviceSerialNumber": "167006",
    "DwellTime": 2.1e-06,
    "EchoTime": 0.037,
    "EchoTrainLength": 104,
    "EffectiveEchoSpacing": 0.000560011,
    "FlipAngle": 52,
    "ImageComments": "Unaliased_MB4_PE3_LB",
    "ImageOrientationPatientDICOM": [
      0.999464,
      0.00104955,
      -0.0327188,
      -0.0125603,
      0.935283,
      -0.353677
    ],
    "ImageType": [
      "ORIGINAL",
      "PRIMARY",
      "M",
      "MB",
      "ND",
      "MOSAIC"
    ],
    "InPlanePhaseEncodingDirectionDICOM": "COL",
    "InstitutionAddress": "Chemin_Queen-Mary_4565_Montreal_District_CA_H3W_1W5",
    "InstitutionName": "IUGM",
    "InstitutionalDepartmentName": "Department",
    "MRAcquisitionType": "2D",
    "MagneticFieldStrength": 3,
    "Manufacturer": "Siemens",
    "ManufacturersModelName": "Prisma_fit",
    "Modality": "MR",
    "MultibandAccelerationFactor": 4,
    "PartialFourier": 1,
    "PatientPosition": "HFS",
    "PercentPhaseFOV": 100,
    "PhaseEncodingDirection": "j-",
    "PhaseEncodingSteps": 104,
    "PhaseResolution": 1,
    "PixelBandwidth": 2290,
    "ProcedureStepDescription": "video5_generic",
    "ProtocolName": "func_task-life5",
    "PulseSequenceDetails": "%CustomerSeq%_cmrr_mbep2d_bold",
    "ReceiveCoilActiveElements": "HC1-7;NC1,2",
    "ReceiveCoilName": "HeadNeck_64",
    "ReconMatrixPE": 104,
    "RepetitionTime": 1.49,
    "SAR": 0.0358736,
    "ScanOptions": "FS",
    "ScanningSequence": "EP",
    "SequenceName": "epfid2d1_104",
    "SequenceVariant": "SK_SS",
    "SeriesDescription": "func_task-life5",
    "SeriesNumber": 15,
    "ShimSetting": [
      603,
      -7242,
      -8865,
      348,
      40,
      -405,
      26,
      29
    ],
    "SliceThickness": 2,
    "SliceTiming": [
      0,
      0.785,
      0.0975,
      0.8825,
      0.195,
      0.98,
      0.295,
      1.0775,
      0.3925,
      1.175,
      0.49,
      1.275,
      0.5875,
      1.3725,
      0.685,
      0,
      0.785,
      0.0975,
      0.8825,
      0.195,
      0.98,
      0.295,
      1.0775,
      0.3925,
      1.175,
      0.49,
      1.275,
      0.5875,
      1.3725,
      0.685,
      0,
      0.785,
      0.0975,
      0.8825,
      0.195,
      0.98,
      0.295,
      1.0775,
      0.3925,
      1.175,
      0.49,
      1.275,
      0.5875,
      1.3725,
      0.685,
      0,
      0.785,
      0.0975,
      0.8825,
      0.195,
      0.98,
      0.295,
      1.0775,
      0.3925,
      1.175,
      0.49,
      1.275,
      0.5875,
      1.3725,
      0.685
    ],
    "SoftwareVersions": "syngo_MR_E11",
    "SpacingBetweenSlices": 2,
    "StationName": "MRC35049",
    "TaskName": "life05",
    "TotalReadoutTime": 0.0576811,
    "TxRefAmp": 237.192,
    "dataset": "<unset>",
    "dcmmeta_affine": [
      [
        -1.9989280700683594,
        -0.025120500475168228,
        -0.060460351407527924,
        105.59588623046875
      ],
      [
        -0.0020990953780710697,
        1.8705666065216064,
        -0.707796573638916,
        -60.508609771728516
      ],
      [
        -0.06543765962123871,
        0.7073537707328796,
        1.8695905208587646,
        -72.5686264038086
      ],
      [
        0.0,
        0.0,
        0.0,
        1.0
      ]
    ],
    "dcmmeta_reorient_transform": [
      [
        0.0,
        -1.0,
        0.0,
        103.0
      ],
      [
        1.0,
        0.0,
        0.0,
        0.0
      ],
      [
        0.0,
        0.0,
        1.0,
        0.0
      ],
      [
        0.0,
        0.0,
        0.0,
        1.0
      ]
    ],
    "dcmmeta_shape": [
      104,
      104,
      60,
      391
    ],
    "dcmmeta_slice_dim": 2,
    "dcmmeta_version": 0.6,
    "global": {
      "const": {
        "AcquisitionMatrix": [
          104,
          0,
          0,
          104
        ],
        "AngioFlag": "N",
        "BitsAllocated": 16,
        "BitsStored": 16,
        "BodyPartExamined": "BRAIN",
        "Columns": 832,
        "EchoNumbers": 1,
        "EchoTime": 37.0,
        "EchoTrainLength": 104,
        "FlipAngle": 52.0,
        "HighBit": 15,
        "ImageOrientationPatient": [
          0.99946404467916,
          0.00104954768959,
          -0.0327188301018,
          -0.0125602503849,
          0.93528332331332,
          -0.3536768938484
        ],
        "ImagePositionPatient": [
          -821.47443855255,
          -813.8100842335,
          281.58490291007
        ],
        "ImageType": [
          "ORIGINAL",
          "PRIMARY",
          "M",
          "MB",
          "ND",
          "MOSAIC"
        ],
        "ImagedNucleus": "1H",
        "ImagingFrequency": 123.259384,
        "InPlanePhaseEncodingDirection": "COL",
        "MRAcquisitionType": "2D",
        "MagneticFieldStrength": 3.0,
        "Manufacturer": "SIEMENS",
        "ManufacturerModelName": "Prisma_fit",
        "Modality": "MR",
        "NumberOfAverages": 1.0,
        "NumberOfPhaseEncodingSteps": 104,
        "PercentPhaseFieldOfView": 100.0,
        "PercentSampling": 100.0,
        "PerformedProcedureStepStartTime": "173120.986000",
        "PhotometricInterpretation": "MONOCHROME2",
        "PixelBandwidth": 2290.0,
        "PixelRepresentation": 0,
        "PixelSpacing": [
          2.0,
          2.0
        ],
        "ProtocolName": "func_task-life5",
        "RepetitionTime": 1490.0,
        "Rows": 832,
        "SAR": 0.03587360758835,
        "SamplesPerPixel": 1,
        "ScanOptions": "FS",
        "ScanningSequence": "EP",
        "SequenceName": "epfid2d1_104",
        "SequenceVariant": [
          "SK",
          "SS"
        ],
        "SeriesDescription": "func_task-life5",
        "SeriesNumber": 15,
        "SeriesTime": "181840.860000",
        "SliceLocation": -49.615092331108,
        "SliceThickness": 2.0,
        "SmallestImagePixelValue": 0,
        "SoftwareVersions": "syngo MR E11",
        "SpacingBetweenSlices": 2.0000000253892,
        "SpecificCharacterSet": "ISO_IR 100",
        "StudyID": "1",
        "StudyTime": "173120.924000",
        "TransmitCoilName": "Body",
        "VariableFlipAngleFlag": "N",
        "WindowCenterWidthExplanation": "Algo1",
        "dBdt": 0.0
      },
      "slices": {}
    },
    "modality": "bold",
    "run_id": 1,
    "session_id": "001",
    "subject_id": "05",
    "task_id": "life05",
    "time": {
      "samples": {
        "AcquisitionNumber": [
          1,
          2,
          3,
          4,
          5,
          6,
          7,
          8,
          9,
          10,
          11,
          12,
          13,
          14,
          15,
          16,
          17,
          18,
          19,
          20,
          21,
          22,
          23,
          24,
          25,
          26,
          27,
          28,
          29,
          30,
          31,
          32,
          33,
          34,
          35,
          36,
          37,
          38,
          39,
          40,
          41,
          42,
          43,
          44,
          45,
          46,
          47,
          48,
          49,
          50,
          51,
          52,
          53,
          54,
          55,
          56,
          57,
          58,
          59,
          60,
          61,
          62,
          63,
          64,
          65,
          66,
          67,
          68,
          69,
          70,
          71,
          72,
          73,
          74,
          75,
          76,
          77,
          78,
          79,
          80,
          81,
          82,
          83,
          84,
          85,
          86,
          87,
          88,
          89,
          90,
          91,
          92,
          93,
          94,
          95,
          96,
          97,
          98,
          99,
          100,
          101,
          102,
          103,
          104,
          105,
          106,
          107,
          108,
          109,
          110,
          111,
          112,
          113,
          114,
          115,
          116,
          117,
          118,
          119,
          120,
          121,
          122,
          123,
          124,
          125,
          126,
          127,
          128,
          129,
          130,
          131,
          132,
          133,
          134,
          135,
          136,
          137,
          138,
          139,
          140,
          141,
          142,
          143,
          144,
          145,
          146,
          147,
          148,
          149,
          150,
          151,
          152,
          153,
          154,
          155,
          156,
          157,
          158,
          159,
          160,
          161,
          162,
          163,
          164,
          165,
          166,
          167,
          168,
          169,
          170,
          171,
          172,
          173,
          174,
          175,
          176,
          177,
          178,
          179,
          180,
          181,
          182,
          183,
          184,
          185,
          186,
          187,
          188,
          189,
          190,
          191,
          192,
          193,
          194,
          195,
          196,
          197,
          198,
          199,
          200,
          201,
          202,
          203,
          204,
          205,
          206,
          207,
          208,
          209,
          210,
          211,
          212,
          213,
          214,
          215,
          216,
          217,
          218,
          219,
          220,
          221,
          222,
          223,
          224,
          225,
          226,
          227,
          228,
          229,
          230,
          231,
          232,
          233,
          234,
          235,
          236,
          237,
          238,
          239,
          240,
          241,
          242,
          243,
          244,
          245,
          246,
          247,
          248,
          249,
          250,
          251,
          252,
          253,
          254,
          255,
          256,
          257,
          258,
          259,
          260,
          261,
          262,
          263,
          264,
          265,
          266,
          267,
          268,
          269,
          270,
          271,
          272,
          273,
          274,
          275,
          276,
          277,
          278,
          279,
          280,
          281,
          282,
          283,
          284,
          285,
          286,
          287,
          288,
          289,
          290,
          291,
          292,
          293,
          294,
          295,
          296,
          297,
          298,
          299,
          300,
          301,
          302,
          303,
          304,
          305,
          306,
          307,
          308,
          309,
          310,
          311,
          312,
          313,
          314,
          315,
          316,
          317,
          318,
          319,
          320,
          321,
          322,
          323,
          324,
          325,
          326,
          327,
          328,
          329,
          330,
          331,
          332,
          333,
          334,
          335,
          336,
          337,
          338,
          339,
          340,
          341,
          342,
          343,
          344,
          345,
          346,
          347,
          348,
          349,
          350,
          351,
          352,
          353,
          354,
          355,
          356,
          357,
          358,
          359,
          360,
          361,
          362,
          363,
          364,
          365,
          366,
          367,
          368,
          369,
          370,
          371,
          372,
          373,
          374,
          375,
          376,
          377,
          378,
          379,
          380,
          381,
          382,
          383,
          384,
          385,
          386,
          387,
          388,
          389,
          390,
          391
        ],
        "AcquisitionTime": [
          "181727.495000",
          "181728.985000",
          "181730.475000",
          "181731.965000",
          "181733.455000",
          "181734.945000",
          "181736.435000",
          "181737.925000",
          "181739.415000",
          "181740.905000",
          "181742.395000",
          "181743.885000",
          "181745.375000",
          "181746.865000",
          "181748.355000",
          "181749.845000",
          "181751.335000",
          "181752.825000",
          "181754.315000",
          "181755.805000",
          "181757.295000",
          "181758.785000",
          "181800.275000",
          "181801.765000",
          "181803.255000",
          "181804.745000",
          "181806.235000",
          "181807.725000",
          "181809.215000",
          "181810.705000",
          "181812.195000",
          "181813.685000",
          "181815.175000",
          "181816.665000",
          "181818.155000",
          "181819.645000",
          "181821.135000",
          "181822.625000",
          "181824.115000",
          "181825.605000",
          "181827.095000",
          "181828.585000",
          "181830.075000",
          "181831.565000",
          "181833.055000",
          "181834.545000",
          "181836.035000",
          "181837.525000",
          "181839.015000",
          "181840.505000",
          "181841.995000",
          "181843.485000",
          "181844.975000",
          "181846.465000",
          "181847.955000",
          "181849.445000",
          "181850.935000",
          "181852.425000",
          "181853.915000",
          "181855.405000",
          "181856.895000",
          "181858.385000",
          "181859.875000",
          "181901.365000",
          "181902.855000",
          "181904.345000",
          "181905.835000",
          "181907.325000",
          "181908.815000",
          "181910.305000",
          "181911.795000",
          "181913.285000",
          "181914.775000",
          "181916.265000",
          "181917.755000",
          "181919.245000",
          "181920.735000",
          "181922.225000",
          "181923.715000",
          "181925.205000",
          "181926.695000",
          "181928.185000",
          "181929.675000",
          "181931.165000",
          "181932.655000",
          "181934.145000",
          "181935.635000",
          "181937.125000",
          "181938.615000",
          "181940.105000",
          "181941.595000",
          "181943.085000",
          "181944.575000",
          "181946.065000",
          "181947.555000",
          "181949.045000",
          "181950.535000",
          "181952.025000",
          "181953.515000",
          "181955.005000",
          "181956.495000",
          "181957.985000",
          "181959.475000",
          "182000.965000",
          "182002.455000",
          "182003.945000",
          "182005.435000",
          "182006.925000",
          "182008.415000",
          "182009.905000",
          "182011.395000",
          "182012.885000",
          "182014.375000",
          "182015.865000",
          "182017.355000",
          "182018.845000",
          "182020.335000",
          "182021.825000",
          "182023.315000",
          "182024.805000",
          "182026.295000",
          "182027.785000",
          "182029.275000",
          "182030.765000",
          "182032.255000",
          "182033.745000",
          "182035.235000",
          "182036.725000",
          "182038.215000",
          "182039.705000",
          "182041.195000",
          "182042.685000",
          "182044.175000",
          "182045.665000",
          "182047.155000",
          "182048.645000",
          "182050.135000",
          "182051.625000",
          "182053.115000",
          "182054.605000",
          "182056.095000",
          "182057.585000",
          "182059.075000",
          "182100.565000",
          "182102.055000",
          "182103.545000",
          "182105.035000",
          "182106.525000",
          "182108.015000",
          "182109.505000",
          "182110.995000",
          "182112.485000",
          "182113.975000",
          "182115.465000",
          "182116.955000",
          "182118.445000",
          "182119.935000",
          "182121.425000",
          "182122.915000",
          "182124.405000",
          "182125.895000",
          "182127.385000",
          "182128.875000",
          "182130.365000",
          "182131.855000",
          "182133.345000",
          "182134.835000",
          "182136.325000",
          "182137.815000",
          "182139.305000",
          "182140.795000",
          "182142.285000",
          "182143.775000",
          "182145.265000",
          "182146.755000",
          "182148.245000",
          "182149.735000",
          "182151.225000",
          "182152.715000",
          "182154.205000",
          "182155.695000",
          "182157.185000",
          "182158.675000",
          "182200.165000",
          "182201.655000",
          "182203.145000",
          "182204.635000",
          "182206.125000",
          "182207.615000",
          "182209.105000",
          "182210.595000",
          "182212.085000",
          "182213.575000",
          "182215.065000",
          "182216.555000",
          "182218.045000",
          "182219.535000",
          "182221.025000",
          "182222.515000",
          "182224.005000",
          "182225.495000",
          "182226.985000",
          "182228.475000",
          "182229.965000",
          "182231.455000",
          "182232.945000",
          "182234.435000",
          "182235.925000",
          "182237.415000",
          "182238.905000",
          "182240.395000",
          "182241.885000",
          "182243.375000",
          "182244.865000",
          "182246.355000",
          "182247.845000",
          "182249.335000",
          "182250.825000",
          "182252.315000",
          "182253.805000",
          "182255.295000",
          "182256.785000",
          "182258.275000",
          "182259.765000",
          "182301.255000",
          "182302.745000",
          "182304.235000",
          "182305.725000",
          "182307.215000",
          "182308.705000",
          "182310.195000",
          "182311.685000",
          "182313.175000",
          "182314.665000",
          "182316.155000",
          "182317.645000",
          "182319.135000",
          "182320.625000",
          "182322.115000",
          "182323.605000",
          "182325.095000",
          "182326.585000",
          "182328.075000",
          "182329.565000",
          "182331.055000",
          "182332.545000",
          "182334.035000",
          "182335.525000",
          "182337.015000",
          "182338.505000",
          "182339.995000",
          "182341.485000",
          "182342.975000",
          "182344.465000",
          "182345.955000",
          "182347.445000",
          "182348.935000",
          "182350.425000",
          "182351.915000",
          "182353.405000",
          "182354.895000",
          "182356.385000",
          "182357.875000",
          "182359.365000",
          "182400.855000",
          "182402.345000",
          "182403.835000",
          "182405.325000",
          "182406.815000",
          "182408.305000",
          "182409.795000",
          "182411.285000",
          "182412.775000",
          "182414.265000",
          "182415.755000",
          "182417.245000",
          "182418.735000",
          "182420.225000",
          "182421.715000",
          "182423.205000",
          "182424.695000",
          "182426.185000",
          "182427.675000",
          "182429.165000",
          "182430.655000",
          "182432.145000",
          "182433.635000",
          "182435.125000",
          "182436.615000",
          "182438.105000",
          "182439.595000",
          "182441.085000",
          "182442.575000",
          "182444.065000",
          "182445.555000",
          "182447.045000",
          "182448.535000",
          "182450.025000",
          "182451.515000",
          "182453.005000",
          "182454.495000",
          "182455.985000",
          "182457.475000",
          "182458.965000",
          "182500.455000",
          "182501.945000",
          "182503.435000",
          "182504.925000",
          "182506.415000",
          "182507.905000",
          "182509.395000",
          "182510.885000",
          "182512.375000",
          "182513.865000",
          "182515.355000",
          "182516.845000",
          "182518.335000",
          "182519.825000",
          "182521.315000",
          "182522.805000",
          "182524.295000",
          "182525.785000",
          "182527.275000",
          "182528.765000",
          "182530.255000",
          "182531.745000",
          "182533.235000",
          "182534.725000",
          "182536.215000",
          "182537.705000",
          "182539.195000",
          "182540.685000",
          "182542.175000",
          "182543.665000",
          "182545.155000",
          "182546.645000",
          "182548.135000",
          "182549.625000",
          "182551.115000",
          "182552.605000",
          "182554.095000",
          "182555.585000",
          "182557.075000",
          "182558.565000",
          "182600.055000",
          "182601.545000",
          "182603.035000",
          "182604.525000",
          "182606.015000",
          "182607.505000",
          "182608.995000",
          "182610.485000",
          "182611.975000",
          "182613.465000",
          "182614.955000",
          "182616.445000",
          "182617.935000",
          "182619.425000",
          "182620.915000",
          "182622.405000",
          "182623.895000",
          "182625.385000",
          "182626.875000",
          "182628.365000",
          "182629.855000",
          "182631.345000",
          "182632.835000",
          "182634.325000",
          "182635.815000",
          "182637.305000",
          "182638.795000",
          "182640.285000",
          "182641.775000",
          "182643.265000",
          "182644.755000",
          "182646.245000",
          "182647.735000",
          "182649.225000",
          "182650.715000",
          "182652.205000",
          "182653.695000",
          "182655.185000",
          "182656.675000",
          "182658.165000",
          "182659.655000",
          "182701.145000",
          "182702.635000",
          "182704.125000",
          "182705.615000",
          "182707.105000",
          "182708.595000"
        ],
        "ContentTime": [
          "181840.862000",
          "181840.866000",
          "181840.873000",
          "181840.881000",
          "181840.889000",
          "181840.892000",
          "181840.895000",
          "181840.897000",
          "181840.900000",
          "181840.903000",
          "181840.906000",
          "181840.909000",
          "181840.912000",
          "181840.915000",
          "181840.917000",
          "181840.920000",
          "181840.924000",
          "181840.927000",
          "181840.930000",
          "181840.932000",
          "181900.861000",
          "181900.864000",
          "181900.867000",
          "181900.870000",
          "181900.872000",
          "181900.875000",
          "181900.878000",
          "181900.881000",
          "181900.884000",
          "181900.887000",
          "181900.890000",
          "181900.892000",
          "181900.895000",
          "181900.898000",
          "181900.901000",
          "181900.904000",
          "181900.907000",
          "181900.910000",
          "181900.925000",
          "181900.928000",
          "181920.860000",
          "181920.863000",
          "181920.866000",
          "181920.869000",
          "181920.871000",
          "181920.874000",
          "181920.877000",
          "181920.880000",
          "181920.883000",
          "181920.886000",
          "181920.888000",
          "181920.891000",
          "181920.894000",
          "181920.897000",
          "181920.900000",
          "181920.903000",
          "181920.905000",
          "181920.908000",
          "181920.911000",
          "181920.914000",
          "181940.860000",
          "181940.863000",
          "181940.866000",
          "181940.868000",
          "181940.871000",
          "181940.874000",
          "181940.877000",
          "181940.880000",
          "181940.883000",
          "181940.885000",
          "181940.888000",
          "181940.891000",
          "181940.894000",
          "181940.897000",
          "181940.900000",
          "181940.902000",
          "181940.905000",
          "181940.908000",
          "181940.911000",
          "181940.914000",
          "181940.917000",
          "182000.860000",
          "182000.863000",
          "182000.866000",
          "182000.869000",
          "182000.871000",
          "182000.874000",
          "182000.877000",
          "182000.880000",
          "182000.883000",
          "182000.886000",
          "182000.889000",
          "182000.891000",
          "182000.894000",
          "182000.897000",
          "182000.900000",
          "182000.903000",
          "182000.906000",
          "182000.908000",
          "182000.911000",
          "182000.914000",
          "182040.861000",
          "182040.864000",
          "182040.867000",
          "182040.870000",
          "182040.872000",
          "182040.875000",
          "182040.878000",
          "182040.881000",
          "182040.884000",
          "182040.887000",
          "182040.889000",
          "182040.892000",
          "182040.895000",
          "182040.898000",
          "182040.901000",
          "182040.904000",
          "182040.906000",
          "182040.909000",
          "182040.912000",
          "182040.915000",
          "182040.918000",
          "182040.921000",
          "182040.923000",
          "182040.926000",
          "182040.929000",
          "182040.932000",
          "182040.935000",
          "182040.938000",
          "182120.861000",
          "182120.864000",
          "182120.867000",
          "182120.870000",
          "182120.873000",
          "182120.875000",
          "182120.878000",
          "182120.881000",
          "182120.884000",
          "182120.887000",
          "182120.890000",
          "182120.893000",
          "182120.895000",
          "182120.899000",
          "182120.902000",
          "182120.904000",
          "182120.907000",
          "182120.910000",
          "182120.913000",
          "182120.917000",
          "182120.920000",
          "182120.923000",
          "182120.926000",
          "182120.929000",
          "182120.931000",
          "182120.934000",
          "182200.860000",
          "182200.863000",
          "182200.866000",
          "182200.869000",
          "182200.871000",
          "182200.874000",
          "182200.877000",
          "182200.880000",
          "182200.883000",
          "182200.886000",
          "182200.889000",
          "182200.891000",
          "182200.894000",
          "182200.897000",
          "182200.900000",
          "182200.903000",
          "182200.906000",
          "182200.909000",
          "182200.911000",
          "182200.914000",
          "182200.917000",
          "182200.920000",
          "182200.923000",
          "182200.926000",
          "182200.929000",
          "182200.931000",
          "182200.934000",
          "182240.861000",
          "182240.864000",
          "182240.867000",
          "182240.870000",
          "182240.873000",
          "182240.875000",
          "182240.878000",
          "182240.881000",
          "182240.884000",
          "182240.887000",
          "182240.890000",
          "182240.893000",
          "182240.895000",
          "182240.898000",
          "182240.901000",
          "182240.904000",
          "182240.907000",
          "182240.910000",
          "182240.913000",
          "182240.915000",
          "182240.918000",
          "182240.921000",
          "182240.924000",
          "182240.927000",
          "182240.930000",
          "182240.933000",
          "182240.936000",
          "182320.861000",
          "182320.864000",
          "182320.867000",
          "182320.870000",
          "182320.873000",
          "182320.875000",
          "182320.878000",
          "182320.881000",
          "182320.884000",
          "182320.887000",
          "182320.890000",
          "182320.893000",
          "182320.914000",
          "182320.917000",
          "182320.920000",
          "182320.923000",
          "182320.926000",
          "182320.929000",
          "182320.932000",
          "182320.934000",
          "182320.937000",
          "182320.940000",
          "182320.943000",
          "182320.946000",
          "182320.949000",
          "182320.952000",
          "182320.955000",
          "182400.860000",
          "182400.863000",
          "182400.866000",
          "182400.869000",
          "182400.871000",
          "182400.874000",
          "182400.877000",
          "182400.880000",
          "182400.883000",
          "182400.886000",
