{
  "aor": 0.0005804691358024692,
  "aqi": 0.008298480592592593,
  "bids_meta": {
    "AcquisitionMatrixPE": 104,
    "AcquisitionNumber": 1,
    "AcquisitionTime": "16:08:27.917500",
    "BandwidthPerPixelPhaseEncode": 17.17,
    "BaseResolution": 104,
    "BodyPartExamined": "BRAIN",
    "CogAtlasID": "trm_4c898da401420",
    "ConsistencyInfo": "N4_VE11C_LATEST_20160120",
    "ConversionSoftware": "dcm2niix",
    "ConversionSoftwareVersion": "v1.0.20171215 (OpenJPEG build) GCC7.3.0",
    "DerivedVendorReportedEchoSpacing": 0.000560011,
    "DeviceSerialNumber": "167006",
    "DwellTime": 2.1e-06,
    "EchoTime": 0.037,
    "EchoTrainLength": 104,
    "EffectiveEchoSpacing": 0.000560011,
    "FlipAngle": 52,
    "ImageComments": "Unaliased_MB4_PE3_LB",
    "ImageOrientationPatientDICOM": [
      0.995622,
      0.0872001,
      0.0336667,
      -0.0748611,
      0.959539,
      -0.271441
    ],
    "ImageType": [
      "ORIGINAL",
      "PRIMARY",
      "M",
      "MB",
      "ND",
      "MOSAIC"
    ],
    "InPlanePhaseEncodingDirectionDICOM": "COL",
    "InstitutionAddress": "Chemin_Queen-Mary_4565_Montreal_District_CA_H3W_1W5",
    "InstitutionName": "IUGM",
    "InstitutionalDepartmentName": "Department",
    "MRAcquisitionType": "2D",
    "MagneticFieldStrength": 3,
    "Manufacturer": "Siemens",
    "ManufacturersModelName": "Prisma_fit",
    "Modality": "MR",
    "MultibandAccelerationFactor": 4,
    "PartialFourier": 1,
    "PatientPosition": "HFS",
    "PercentPhaseFOV": 100,
    "PhaseEncodingDirection": "j-",
    "PhaseEncodingSteps": 104,
    "PhaseResolution": 1,
    "PixelBandwidth": 2290,
    "ProcedureStepDescription": "video5_generic",
    "ProtocolName": "func_task-life4",
    "PulseSequenceDetails": "%CustomerSeq%_cmrr_mbep2d_bold",
    "ReceiveCoilActiveElements": "HC1-7;NC1,2",
    "ReceiveCoilName": "HeadNeck_64",
    "ReconMatrixPE": 104,
    "RepetitionTime": 1.49,
    "SAR": 0.0373677,
    "ScanOptions": "FS",
    "ScanningSequence": "EP",
    "SequenceName": "epfid2d1_104",
    "SequenceVariant": "SK_SS",
    "SeriesDescription": "func_task-life4",
    "SeriesNumber": 9,
    "ShimSetting": [
      644,
      -7197,
      -8833,
      685,
      145,
      17,
      -19,
      -23
    ],
    "SliceThickness": 2,
    "SliceTiming": [
      0,
      0.785,
      0.0975,
      0.8825,
      0.1975,
      0.98,
      0.295,
      1.0775,
      0.3925,
      1.1775,
      0.49,
      1.275,
      0.5875,
      1.3725,
      0.6875,
      0,
      0.785,
      0.0975,
      0.8825,
      0.1975,
      0.98,
      0.295,
      1.0775,
      0.3925,
      1.1775,
      0.49,
      1.275,
      0.5875,
      1.3725,
      0.6875,
      0,
      0.785,
      0.0975,
      0.8825,
      0.1975,
      0.98,
      0.295,
      1.0775,
      0.3925,
      1.1775,
      0.49,
      1.275,
      0.5875,
      1.3725,
      0.6875,
      0,
      0.785,
      0.0975,
      0.8825,
      0.1975,
      0.98,
      0.295,
      1.0775,
      0.3925,
      1.1775,
      0.49,
      1.275,
      0.5875,
      1.3725,
      0.6875
    ],
    "SoftwareVersions": "syngo_MR_E11",
    "SpacingBetweenSlices": 2,
    "StationName": "MRC35049",
    "TaskName": "life04",
    "TotalReadoutTime": 0.0576811,
    "TxRefAmp": 248.784,
    "dataset": "<unset>",
    "dcmmeta_affine": [
      [
        -1.9912434816360474,
        -0.14972229301929474,
        0.11194836348295212,
        110.39571380615234
      ],
      [
        -0.17440013587474823,
        1.9190787076950073,
        -0.535463809967041,
        -52.85001754760742
      ],
      [
        0.06733343005180359,
        0.5428813695907593,
        1.9237322807312012,
        -62.30253601074219
      ],
      [
        0.0,
        0.0,
        0.0,
        1.0
      ]
    ],
    "dcmmeta_reorient_transform": [
      [
        0.0,
        -1.0,
        0.0,
        103.0
      ],
      [
        1.0,
        0.0,
        0.0,
        0.0
      ],
      [
        0.0,
        0.0,
        1.0,
        0.0
      ],
      [
        0.0,
        0.0,
        0.0,
        1.0
      ]
    ],
    "dcmmeta_shape": [
      104,
      104,
      60,
      406
    ],
    "dcmmeta_slice_dim": 2,
    "dcmmeta_version": 0.6,
    "global": {
      "const": {
        "AcquisitionMatrix": [
          104,
          0,
          0,
          104
        ],
        "AngioFlag": "N",
        "BitsAllocated": 16,
        "BitsStored": 16,
        "BodyPartExamined": "BRAIN",
        "Columns": 832,
        "EchoNumbers": 1,
        "EchoTime": 37.0,
        "EchoTrainLength": 104,
        "FlipAngle": 52.0,
        "HighBit": 15,
        "ImageOrientationPatient": [
          0.99562176546646,
          0.08720007165013,
          0.03366671403133,
          -0.0748611440759,
          0.95953935117351,
          -0.2714406798127
        ],
        "ImagePositionPatient": [
          -765.28805393159,
          -906.84138908981,
          166.71369125432
        ],
        "ImageType": [
          "ORIGINAL",
          "PRIMARY",
          "M",
          "MB",
          "ND",
          "MOSAIC"
        ],
        "ImagedNucleus": "1H",
        "ImagingFrequency": 123.259378,
        "InPlanePhaseEncodingDirection": "COL",
        "MRAcquisitionType": "2D",
        "MagneticFieldStrength": 3.0,
        "Manufacturer": "SIEMENS",
        "ManufacturerModelName": "Prisma_fit",
        "Modality": "MR",
        "NumberOfAverages": 1.0,
        "NumberOfPhaseEncodingSteps": 104,
        "PercentPhaseFieldOfView": 100.0,
        "PercentSampling": 100.0,
        "PerformedProcedureStepStartTime": "153547.848000",
        "PhotometricInterpretation": "MONOCHROME2",
        "PixelBandwidth": 2290.0,
        "PixelRepresentation": 0,
        "PixelSpacing": [
          2.0,
          2.0
        ],
        "ProtocolName": "func_task-life4",
        "RepetitionTime": 1490.0,
        "Rows": 832,
        "SAR": 0.03736772330066,
        "SamplesPerPixel": 1,
        "ScanOptions": "FS",
        "ScanningSequence": "EP",
        "SequenceName": "epfid2d1_104",
        "SequenceVariant": [
          "SK",
          "SS"
        ],
        "SeriesDescription": "func_task-life4",
        "SeriesNumber": 9,
        "SeriesTime": "160952.143000",
        "SliceLocation": -39.597754238979,
        "SliceThickness": 2.0,
        "SmallestImagePixelValue": 0,
        "SoftwareVersions": "syngo MR E11",
        "SpacingBetweenSlices": 1.9999999600846,
        "SpecificCharacterSet": "ISO_IR 100",
        "StudyID": "1",
        "StudyTime": "153547.798000",
        "TransmitCoilName": "Body",
        "VariableFlipAngleFlag": "N",
        "WindowCenterWidthExplanation": "Algo1",
        "dBdt": 0.0
      },
      "slices": {}
    },
    "modality": "bold",
    "run_id": 2,
    "session_id": "010",
    "subject_id": "01",
    "task_id": "life04",
    "time": {
      "samples": {
        "AcquisitionNumber": [
          1,
          2,
          3,
          4,
          5,
          6,
          7,
          8,
          9,
          10,
          11,
          12,
          13,
          14,
          15,
          16,
          17,
          18,
          19,
          20,
          21,
          22,
          23,
          24,
          25,
          26,
          27,
          28,
          29,
          30,
          31,
          32,
          33,
          34,
          35,
          36,
          37,
          38,
          39,
          40,
          41,
          42,
          43,
          44,
          45,
          46,
          47,
          48,
          49,
          50,
          51,
          52,
          53,
          54,
          55,
          56,
          57,
          58,
          59,
          60,
          61,
          62,
          63,
          64,
          65,
          66,
          67,
          68,
          69,
          70,
          71,
          72,
          73,
          74,
          75,
          76,
          77,
          78,
          79,
          80,
          81,
          82,
          83,
          84,
          85,
          86,
          87,
          88,
          89,
          90,
          91,
          92,
          93,
          94,
          95,
          96,
          97,
          98,
          99,
          100,
          101,
          102,
          103,
          104,
          105,
          106,
          107,
          108,
          109,
          110,
          111,
          112,
          113,
          114,
          115,
          116,
          117,
          118,
          119,
          120,
          121,
          122,
          123,
          124,
          125,
          126,
          127,
          128,
          129,
          130,
          131,
          132,
          133,
          134,
          135,
          136,
          137,
          138,
          139,
          140,
          141,
          142,
          143,
          144,
          145,
          146,
          147,
          148,
          149,
          150,
          151,
          152,
          153,
          154,
          155,
          156,
          157,
          158,
          159,
          160,
          161,
          162,
          163,
          164,
          165,
          166,
          167,
          168,
          169,
          170,
          171,
          172,
          173,
          174,
          175,
          176,
          177,
          178,
          179,
          180,
          181,
          182,
          183,
          184,
          185,
          186,
          187,
          188,
          189,
          190,
          191,
          192,
          193,
          194,
          195,
          196,
          197,
          198,
          199,
          200,
          201,
          202,
          203,
          204,
          205,
          206,
          207,
          208,
          209,
          210,
          211,
          212,
          213,
          214,
          215,
          216,
          217,
          218,
          219,
          220,
          221,
          222,
          223,
          224,
          225,
          226,
          227,
          228,
          229,
          230,
          231,
          232,
          233,
          234,
          235,
          236,
          237,
          238,
          239,
          240,
          241,
          242,
          243,
          244,
          245,
          246,
          247,
          248,
          249,
          250,
          251,
          252,
          253,
          254,
          255,
          256,
          257,
          258,
          259,
          260,
          261,
          262,
          263,
          264,
          265,
          266,
          267,
          268,
          269,
          270,
          271,
          272,
          273,
          274,
          275,
          276,
          277,
          278,
          279,
          280,
          281,
          282,
          283,
          284,
          285,
          286,
          287,
          288,
          289,
          290,
          291,
          292,
          293,
          294,
          295,
          296,
          297,
          298,
          299,
          300,
          301,
          302,
          303,
          304,
          305,
          306,
          307,
          308,
          309,
          310,
          311,
          312,
          313,
          314,
          315,
          316,
          317,
          318,
          319,
          320,
          321,
          322,
          323,
          324,
          325,
          326,
          327,
          328,
          329,
          330,
          331,
          332,
          333,
          334,
          335,
          336,
          337,
          338,
          339,
          340,
          341,
          342,
          343,
          344,
          345,
          346,
          347,
          348,
          349,
          350,
          351,
          352,
          353,
          354,
          355,
          356,
          357,
          358,
          359,
          360,
          361,
          362,
          363,
          364,
          365,
          366,
          367,
          368,
          369,
          370,
          371,
          372,
          373,
          374,
          375,
          376,
          377,
          378,
          379,
          380,
          381,
          382,
          383,
          384,
          385,
          386,
          387,
          388,
          389,
          390,
          391,
          392,
          393,
          394,
          395,
          396,
          397,
          398,
          399,
          400,
          401,
          402,
          403,
          404,
          405,
          406
        ],
        "AcquisitionTime": [
          "160827.917500",
          "160829.407500",
          "160830.897500",
          "160832.387500",
          "160833.877500",
          "160835.367500",
          "160836.857500",
          "160838.347500",
          "160839.837500",
          "160841.327500",
          "160842.817500",
          "160844.307500",
          "160845.797500",
          "160847.287500",
          "160848.777500",
          "160850.267500",
          "160851.757500",
          "160853.247500",
          "160854.737500",
          "160856.227500",
          "160857.717500",
          "160859.207500",
          "160900.697500",
          "160902.187500",
          "160903.677500",
          "160905.167500",
          "160906.657500",
          "160908.147500",
          "160909.637500",
          "160911.127500",
          "160912.617500",
          "160914.107500",
          "160915.597500",
          "160917.087500",
          "160918.577500",
          "160920.067500",
          "160921.557500",
          "160923.047500",
          "160924.537500",
          "160926.027500",
          "160927.517500",
          "160929.007500",
          "160930.497500",
          "160931.987500",
          "160933.477500",
          "160934.967500",
          "160936.457500",
          "160937.947500",
          "160939.437500",
          "160940.927500",
          "160942.417500",
          "160943.907500",
          "160945.397500",
          "160946.887500",
          "160948.377500",
          "160949.867500",
          "160951.357500",
          "160952.847500",
          "160954.337500",
          "160955.827500",
          "160957.317500",
          "160958.807500",
          "161000.297500",
          "161001.787500",
          "161003.277500",
          "161004.767500",
          "161006.257500",
          "161007.747500",
          "161009.237500",
          "161010.727500",
          "161012.217500",
          "161013.707500",
          "161015.197500",
          "161016.687500",
          "161018.177500",
          "161019.667500",
          "161021.157500",
          "161022.647500",
          "161024.137500",
          "161025.627500",
          "161027.117500",
          "161028.607500",
          "161030.097500",
          "161031.587500",
          "161033.077500",
          "161034.567500",
          "161036.057500",
          "161037.547500",
          "161039.037500",
          "161040.527500",
          "161042.017500",
          "161043.507500",
          "161044.997500",
          "161046.487500",
          "161047.977500",
          "161049.467500",
          "161050.957500",
          "161052.447500",
          "161053.937500",
          "161055.427500",
          "161056.917500",
          "161058.407500",
          "161059.897500",
          "161101.387500",
          "161102.877500",
          "161104.367500",
          "161105.857500",
          "161107.347500",
          "161108.837500",
          "161110.327500",
          "161111.817500",
          "161113.307500",
          "161114.797500",
          "161116.287500",
          "161117.777500",
          "161119.267500",
          "161120.757500",
          "161122.247500",
          "161123.737500",
          "161125.227500",
          "161126.717500",
          "161128.207500",
          "161129.697500",
          "161131.187500",
          "161132.677500",
          "161134.167500",
          "161135.657500",
          "161137.147500",
          "161138.637500",
          "161140.127500",
          "161141.617500",
          "161143.107500",
          "161144.597500",
          "161146.087500",
          "161147.577500",
          "161149.067500",
          "161150.557500",
          "161152.047500",
          "161153.537500",
          "161155.027500",
          "161156.517500",
          "161158.007500",
          "161159.497500",
          "161200.987500",
          "161202.477500",
          "161203.967500",
          "161205.457500",
          "161206.947500",
          "161208.437500",
          "161209.927500",
          "161211.417500",
          "161212.907500",
          "161214.397500",
          "161215.887500",
          "161217.377500",
          "161218.867500",
          "161220.357500",
          "161221.847500",
          "161223.337500",
          "161224.827500",
          "161226.317500",
          "161227.807500",
          "161229.297500",
          "161230.787500",
          "161232.277500",
          "161233.767500",
          "161235.257500",
          "161236.747500",
          "161238.237500",
          "161239.727500",
          "161241.217500",
          "161242.707500",
          "161244.197500",
          "161245.687500",
          "161247.177500",
          "161248.667500",
          "161250.157500",
          "161251.647500",
          "161253.137500",
          "161254.627500",
          "161256.117500",
          "161257.607500",
          "161259.097500",
          "161300.587500",
          "161302.077500",
          "161303.567500",
          "161305.057500",
          "161306.547500",
          "161308.037500",
          "161309.527500",
          "161311.017500",
          "161312.507500",
          "161313.997500",
          "161315.487500",
          "161316.977500",
          "161318.467500",
          "161319.957500",
          "161321.447500",
          "161322.937500",
          "161324.427500",
          "161325.917500",
          "161327.407500",
          "161328.897500",
          "161330.387500",
          "161331.877500",
          "161333.367500",
          "161334.857500",
          "161336.347500",
          "161337.837500",
          "161339.327500",
          "161340.817500",
          "161342.307500",
          "161343.797500",
          "161345.287500",
          "161346.777500",
          "161348.267500",
          "161349.757500",
          "161351.247500",
          "161352.737500",
          "161354.227500",
          "161355.717500",
          "161357.207500",
          "161358.697500",
          "161400.187500",
          "161401.677500",
          "161403.167500",
          "161404.657500",
          "161406.147500",
          "161407.637500",
          "161409.127500",
          "161410.617500",
          "161412.107500",
          "161413.597500",
          "161415.087500",
          "161416.577500",
          "161418.067500",
          "161419.557500",
          "161421.047500",
          "161422.537500",
          "161424.027500",
          "161425.517500",
          "161427.007500",
          "161428.497500",
          "161429.987500",
          "161431.477500",
          "161432.967500",
          "161434.457500",
          "161435.947500",
          "161437.437500",
          "161438.927500",
          "161440.417500",
          "161441.907500",
          "161443.397500",
          "161444.887500",
          "161446.377500",
          "161447.867500",
          "161449.357500",
          "161450.847500",
          "161452.337500",
          "161453.827500",
          "161455.317500",
          "161456.807500",
          "161458.297500",
          "161459.787500",
          "161501.277500",
          "161502.767500",
          "161504.257500",
          "161505.747500",
          "161507.237500",
          "161508.727500",
          "161510.217500",
          "161511.707500",
          "161513.197500",
          "161514.687500",
          "161516.177500",
          "161517.667500",
          "161519.157500",
          "161520.647500",
          "161522.137500",
          "161523.627500",
          "161525.117500",
          "161526.607500",
          "161528.097500",
          "161529.587500",
          "161531.077500",
          "161532.567500",
          "161534.057500",
          "161535.547500",
          "161537.037500",
          "161538.527500",
          "161540.017500",
          "161541.507500",
          "161542.997500",
          "161544.487500",
          "161545.977500",
          "161547.467500",
          "161548.957500",
          "161550.447500",
          "161551.937500",
          "161553.427500",
          "161554.917500",
          "161556.407500",
          "161557.897500",
          "161559.387500",
          "161600.877500",
          "161602.367500",
          "161603.857500",
          "161605.347500",
          "161606.837500",
          "161608.327500",
          "161609.817500",
          "161611.307500",
          "161612.797500",
          "161614.287500",
          "161615.777500",
          "161617.267500",
          "161618.757500",
          "161620.247500",
          "161621.737500",
          "161623.227500",
          "161624.717500",
          "161626.207500",
          "161627.697500",
          "161629.187500",
          "161630.677500",
          "161632.167500",
          "161633.657500",
          "161635.147500",
          "161636.637500",
          "161638.127500",
          "161639.617500",
          "161641.107500",
          "161642.597500",
          "161644.087500",
          "161645.577500",
          "161647.067500",
          "161648.557500",
          "161650.047500",
          "161651.537500",
          "161653.027500",
          "161654.517500",
          "161656.007500",
          "161657.497500",
          "161658.987500",
          "161700.477500",
          "161701.967500",
          "161703.457500",
          "161704.947500",
          "161706.437500",
          "161707.927500",
          "161709.417500",
          "161710.907500",
          "161712.397500",
          "161713.887500",
          "161715.377500",
          "161716.867500",
          "161718.357500",
          "161719.847500",
          "161721.337500",
          "161722.827500",
          "161724.317500",
          "161725.807500",
          "161727.297500",
          "161728.787500",
          "161730.277500",
          "161731.767500",
          "161733.257500",
          "161734.747500",
          "161736.237500",
          "161737.727500",
          "161739.217500",
          "161740.707500",
          "161742.197500",
          "161743.687500",
          "161745.177500",
          "161746.667500",
          "161748.157500",
          "161749.647500",
          "161751.137500",
          "161752.627500",
          "161754.117500",
          "161755.607500",
          "161757.097500",
          "161758.587500",
          "161800.077500",
          "161801.567500",
          "161803.057500",
          "161804.547500",
          "161806.037500",
          "161807.527500",
          "161809.017500",
          "161810.507500",
          "161811.997500",
          "161813.487500",
          "161814.977500",
          "161816.467500",
          "161817.957500",
          "161819.447500",
          "161820.937500",
          "161822.427500",
          "161823.917500",
          "161825.407500",
          "161826.897500",
          "161828.387500",
          "161829.877500",
          "161831.367500"
        ],
        "ContentTime": [
          "160952.146000",
          "160952.149000",
          "160952.152000",
          "160952.155000",
          "160952.158000",
          "160952.161000",
          "160952.164000",
          "160952.173000",
          "160952.176000",
          "160952.179000",
          "160952.186000",
          "160952.189000",
          "160952.192000",
          "160952.195000",
          "160952.197000",
          "160952.200000",
          "160952.203000",
          "160952.206000",
          "160952.209000",
          "160952.212000",
          "160952.215000",
          "160952.217000",
          "160952.220000",
          "160952.223000",
          "160952.226000",
          "160952.242000",
          "160952.245000",
          "160952.262000",
          "160952.264000",
          "160952.268000",
          "160952.271000",
          "161012.103000",
          "161012.106000",
          "161012.109000",
          "161012.112000",
          "161012.115000",
          "161012.118000",
          "161012.121000",
          "161012.124000",
          "161012.126000",
          "161012.129000",
          "161012.132000",
          "161012.135000",
          "161012.138000",
          "161012.141000",
          "161012.144000",
          "161012.146000",
          "161012.149000",
          "161012.152000",
          "161012.155000",
          "161012.158000",
          "161012.161000",
          "161032.103000",
          "161032.106000",
          "161032.108000",
          "161032.111000",
          "161032.114000",
          "161032.117000",
          "161032.120000",
          "161032.123000",
          "161032.126000",
          "161032.129000",
          "161032.131000",
          "161032.134000",
          "161032.137000",
          "161032.140000",
          "161032.143000",
          "161032.146000",
          "161032.149000",
          "161032.152000",
          "161032.154000",
          "161032.157000",
          "161052.103000",
          "161052.106000",
          "161052.109000",
          "161052.111000",
          "161052.115000",
          "161052.117000",
          "161052.120000",
          "161052.123000",
          "161052.126000",
          "161052.129000",
          "161052.132000",
          "161052.134000",
          "161052.137000",
          "161052.140000",
          "161052.143000",
          "161052.146000",
          "161052.149000",
          "161052.151000",
          "161052.154000",
          "161052.157000",
          "161132.104000",
          "161132.107000",
          "161132.110000",
          "161132.113000",
          "161132.116000",
          "161132.118000",
          "161132.121000",
          "161132.124000",
          "161132.127000",
          "161132.130000",
          "161132.133000",
          "161132.136000",
          "161132.139000",
          "161132.142000",
          "161132.145000",
          "161132.148000",
          "161132.150000",
          "161132.153000",
          "161132.156000",
          "161132.159000",
          "161132.162000",
          "161132.165000",
          "161132.168000",
          "161132.171000",
          "161132.174000",
          "161132.177000",
          "161132.180000",
          "161132.182000",
          "161132.185000",
          "161132.188000",
          "161132.191000",
          "161212.103000",
          "161212.106000",
          "161212.109000",
          "161212.112000",
          "161212.114000",
          "161212.117000",
          "161212.120000",
          "161212.123000",
          "161212.126000",
          "161212.129000",
          "161212.132000",
          "161212.135000",
          "161212.138000",
          "161212.141000",
          "161212.143000",
          "161212.146000",
          "161212.149000",
          "161212.152000",
          "161212.155000",
          "161212.158000",
          "161212.161000",
          "161212.164000",
          "161212.166000",
          "161212.169000",
          "161212.172000",
          "161212.175000",
          "161212.178000",
          "161252.103000",
          "161252.107000",
          "161252.110000",
          "161252.113000",
          "161252.116000",
          "161252.119000",
          "161252.121000",
          "161252.124000",
          "161252.127000",
          "161252.130000",
          "161252.133000",
          "161252.136000",
          "161252.139000",
          "161252.142000",
          "161252.145000",
          "161252.147000",
          "161252.150000",
          "161252.153000",
          "161252.156000",
          "161252.159000",
          "161252.162000",
          "161252.165000",
          "161252.167000",
          "161252.170000",
          "161252.173000",
          "161252.176000",
          "161332.103000",
          "161332.106000",
          "161332.109000",
          "161332.112000",
          "161332.115000",
          "161332.117000",
          "161332.120000",
          "161332.123000",
          "161332.126000",
          "161332.129000",
          "161332.132000",
          "161332.135000",
          "161332.138000",
          "161332.140000",
          "161332.143000",
          "161332.146000",
          "161332.149000",
          "161332.152000",
          "161332.155000",
          "161332.158000",
          "161332.161000",
          "161332.163000",
          "161332.167000",
          "161332.169000",
          "161332.172000",
          "161332.175000",
          "161332.178000",
          "161412.103000",
          "161412.106000",
          "161412.109000",
          "161412.112000",
          "161412.114000",
          "161412.117000",
          "161412.120000",
          "161412.123000",
          "161412.126000",
          "161412.129000",
          "161412.132000",
          "161412.135000",
          "161412.137000",
          "161412.140000",
          "161412.143000",
          "161412.146000",
          "161412.149000",
          "161412.152000",
          "161412.155000",
          "161412.158000",
