{
  "aor": 0.00042081632653061225,
  "aqi": 0.008177969234693877,
  "bids_meta": {
    "AcquisitionMatrixPE": 104,
    "AcquisitionNumber": 1,
    "AcquisitionTime": "16:19:5.950000",
    "BandwidthPerPixelPhaseEncode": 17.17,
    "BaseResolution": 104,
    "BodyPartExamined": "BRAIN",
    "CogAtlasID": "trm_4c898da401420",
    "ConsistencyInfo": "N4_VE11C_LATEST_20160120",
    "ConversionSoftware": "dcm2niix",
    "ConversionSoftwareVersion": "v1.0.20171215 (OpenJPEG build) GCC7.3.0",
    "DerivedVendorReportedEchoSpacing": 0.000560011,
    "DeviceSerialNumber": "167006",
    "DwellTime": 2.1e-06,
    "EchoTime": 0.037,
    "EchoTrainLength": 104,
    "EffectiveEchoSpacing": 0.000560011,
    "FlipAngle": 52,
    "ImageComments": "Unaliased_MB4_PE3_LB",
    "ImageOrientationPatientDICOM": [
      0.995622,
      0.0872001,
      0.0336667,
      -0.0748611,
      0.959539,
      -0.271441
    ],
    "ImageType": [
      "ORIGINAL",
      "PRIMARY",
      "M",
      "MB",
      "ND",
      "MOSAIC"
    ],
    "InPlanePhaseEncodingDirectionDICOM": "COL",
    "InstitutionAddress": "Chemin_Queen-Mary_4565_Montreal_District_CA_H3W_1W5",
    "InstitutionName": "IUGM",
    "InstitutionalDepartmentName": "Department",
    "MRAcquisitionType": "2D",
    "MagneticFieldStrength": 3,
    "Manufacturer": "Siemens",
    "ManufacturersModelName": "Prisma_fit",
    "Modality": "MR",
    "MultibandAccelerationFactor": 4,
    "PartialFourier": 1,
    "PatientPosition": "HFS",
    "PercentPhaseFOV": 100,
    "PhaseEncodingDirection": "j-",
    "PhaseEncodingSteps": 104,
    "PhaseResolution": 1,
    "PixelBandwidth": 2290,
    "ProcedureStepDescription": "video5_generic",
    "ProtocolName": "func_task-life5",
    "PulseSequenceDetails": "%CustomerSeq%_cmrr_mbep2d_bold",
    "ReceiveCoilActiveElements": "HC1-7;NC1,2",
    "ReceiveCoilName": "HeadNeck_64",
    "ReconMatrixPE": 104,
    "RepetitionTime": 1.49,
    "SAR": 0.0373677,
    "ScanOptions": "FS",
    "ScanningSequence": "EP",
    "SequenceName": "epfid2d1_104",
    "SequenceVariant": "SK_SS",
    "SeriesDescription": "func_task-life5",
    "SeriesNumber": 11,
    "ShimSetting": [
      644,
      -7197,
      -8833,
      685,
      145,
      17,
      -19,
      -23
    ],
    "SliceThickness": 2,
    "SliceTiming": [
      0,
      0.7825,
      0.0975,
      0.88,
      0.195,
      0.98,
      0.2925,
      1.0775,
      0.39,
      1.175,
      0.49,
      1.2725,
      0.5875,
      1.37,
      0.685,
      0,
      0.7825,
      0.0975,
      0.88,
      0.195,
      0.98,
      0.2925,
      1.0775,
      0.39,
      1.175,
      0.49,
      1.2725,
      0.5875,
      1.37,
      0.685,
      0,
      0.7825,
      0.0975,
      0.88,
      0.195,
      0.98,
      0.2925,
      1.0775,
      0.39,
      1.175,
      0.49,
      1.2725,
      0.5875,
      1.37,
      0.685,
      0,
      0.7825,
      0.0975,
      0.88,
      0.195,
      0.98,
      0.2925,
      1.0775,
      0.39,
      1.175,
      0.49,
      1.2725,
      0.5875,
      1.37,
      0.685
    ],
    "SoftwareVersions": "syngo_MR_E11",
    "SpacingBetweenSlices": 2,
    "StationName": "MRC35049",
    "TaskName": "life05",
    "TotalReadoutTime": 0.0576811,
    "TxRefAmp": 248.784,
    "dataset": "<unset>",
    "dcmmeta_affine": [
      [
        -1.9912434816360474,
        -0.14972229301929474,
        0.11194836348295212,
        110.39571380615234
      ],
      [
        -0.17440013587474823,
        1.9190787076950073,
        -0.535463809967041,
        -52.85001754760742
      ],
      [
        0.06733343005180359,
        0.5428813695907593,
        1.9237322807312012,
        -62.30253601074219
      ],
      [
        0.0,
        0.0,
        0.0,
        1.0
      ]
    ],
    "dcmmeta_reorient_transform": [
      [
        0.0,
        -1.0,
        0.0,
        103.0
      ],
      [
        1.0,
        0.0,
        0.0,
        0.0
      ],
      [
        0.0,
        0.0,
        1.0,
        0.0
      ],
      [
        0.0,
        0.0,
        0.0,
        1.0
      ]
    ],
    "dcmmeta_shape": [
      104,
      104,
      60,
      392
    ],
    "dcmmeta_slice_dim": 2,
    "dcmmeta_version": 0.6,
    "global": {
      "const": {
        "AcquisitionMatrix": [
          104,
          0,
          0,
          104
        ],
        "AngioFlag": "N",
        "BitsAllocated": 16,
        "BitsStored": 16,
        "BodyPartExamined": "BRAIN",
        "Columns": 832,
        "EchoNumbers": 1,
        "EchoTime": 37.0,
        "EchoTrainLength": 104,
        "FlipAngle": 52.0,
        "HighBit": 15,
        "ImageOrientationPatient": [
          0.99562176546646,
          0.08720007165013,
          0.03366671403133,
          -0.0748611440759,
          0.95953935117351,
          -0.2714406798127
        ],
        "ImagePositionPatient": [
          -765.28805393159,
          -906.84138908981,
          166.71369125432
        ],
        "ImageType": [
          "ORIGINAL",
          "PRIMARY",
          "M",
          "MB",
          "ND",
          "MOSAIC"
        ],
        "ImagedNucleus": "1H",
        "ImagingFrequency": 123.259383,
        "InPlanePhaseEncodingDirection": "COL",
        "MRAcquisitionType": "2D",
        "MagneticFieldStrength": 3.0,
        "Manufacturer": "SIEMENS",
        "ManufacturerModelName": "Prisma_fit",
        "Modality": "MR",
        "NumberOfAverages": 1.0,
        "NumberOfPhaseEncodingSteps": 104,
        "PercentPhaseFieldOfView": 100.0,
        "PercentSampling": 100.0,
        "PerformedProcedureStepStartTime": "153547.848000",
        "PhotometricInterpretation": "MONOCHROME2",
        "PixelBandwidth": 2290.0,
        "PixelRepresentation": 0,
        "PixelSpacing": [
          2.0,
          2.0
        ],
        "ProtocolName": "func_task-life5",
        "RepetitionTime": 1490.0,
        "Rows": 832,
        "SAR": 0.03736772330066,
        "SamplesPerPixel": 1,
        "ScanOptions": "FS",
        "ScanningSequence": "EP",
        "SequenceName": "epfid2d1_104",
        "SequenceVariant": [
          "SK",
          "SS"
        ],
        "SeriesDescription": "func_task-life5",
        "SeriesNumber": 11,
        "SeriesTime": "162028.711000",
        "SliceLocation": -39.597754238979,
        "SliceThickness": 2.0,
        "SmallestImagePixelValue": 0,
        "SoftwareVersions": "syngo MR E11",
        "SpacingBetweenSlices": 1.9999999600846,
        "SpecificCharacterSet": "ISO_IR 100",
        "StudyID": "1",
        "StudyTime": "153547.798000",
        "TransmitCoilName": "Body",
        "VariableFlipAngleFlag": "N",
        "WindowCenterWidthExplanation": "Algo1",
        "dBdt": 0.0
      },
      "slices": {}
    },
    "modality": "bold",
    "run_id": 2,
    "session_id": "010",
    "subject_id": "01",
    "task_id": "life05",
    "time": {
      "samples": {
        "AcquisitionNumber": [
          1,
          2,
          3,
          4,
          5,
          6,
          7,
          8,
          9,
          10,
          11,
          12,
          13,
          14,
          15,
          16,
          17,
          18,
          19,
          20,
          21,
          22,
          23,
          24,
          25,
          26,
          27,
          28,
          29,
          30,
          31,
          32,
          33,
          34,
          35,
          36,
          37,
          38,
          39,
          40,
          41,
          42,
          43,
          44,
          45,
          46,
          47,
          48,
          49,
          50,
          51,
          52,
          53,
          54,
          55,
          56,
          57,
          58,
          59,
          60,
          61,
          62,
          63,
          64,
          65,
          66,
          67,
          68,
          69,
          70,
          71,
          72,
          73,
          74,
          75,
          76,
          77,
          78,
          79,
          80,
          81,
          82,
          83,
          84,
          85,
          86,
          87,
          88,
          89,
          90,
          91,
          92,
          93,
          94,
          95,
          96,
          97,
          98,
          99,
          100,
          101,
          102,
          103,
          104,
          105,
          106,
          107,
          108,
          109,
          110,
          111,
          112,
          113,
          114,
          115,
          116,
          117,
          118,
          119,
          120,
          121,
          122,
          123,
          124,
          125,
          126,
          127,
          128,
          129,
          130,
          131,
          132,
          133,
          134,
          135,
          136,
          137,
          138,
          139,
          140,
          141,
          142,
          143,
          144,
          145,
          146,
          147,
          148,
          149,
          150,
          151,
          152,
          153,
          154,
          155,
          156,
          157,
          158,
          159,
          160,
          161,
          162,
          163,
          164,
          165,
          166,
          167,
          168,
          169,
          170,
          171,
          172,
          173,
          174,
          175,
          176,
          177,
          178,
          179,
          180,
          181,
          182,
          183,
          184,
          185,
          186,
          187,
          188,
          189,
          190,
          191,
          192,
          193,
          194,
          195,
          196,
          197,
          198,
          199,
          200,
          201,
          202,
          203,
          204,
          205,
          206,
          207,
          208,
          209,
          210,
          211,
          212,
          213,
          214,
          215,
          216,
          217,
          218,
          219,
          220,
          221,
          222,
          223,
          224,
          225,
          226,
          227,
          228,
          229,
          230,
          231,
          232,
          233,
          234,
          235,
          236,
          237,
          238,
          239,
          240,
          241,
          242,
          243,
          244,
          245,
          246,
          247,
          248,
          249,
          250,
          251,
          252,
          253,
          254,
          255,
          256,
          257,
          258,
          259,
          260,
          261,
          262,
          263,
          264,
          265,
          266,
          267,
          268,
          269,
          270,
          271,
          272,
          273,
          274,
          275,
          276,
          277,
          278,
          279,
          280,
          281,
          282,
          283,
          284,
          285,
          286,
          287,
          288,
          289,
          290,
          291,
          292,
          293,
          294,
          295,
          296,
          297,
          298,
          299,
          300,
          301,
          302,
          303,
          304,
          305,
          306,
          307,
          308,
          309,
          310,
          311,
          312,
          313,
          314,
          315,
          316,
          317,
          318,
          319,
          320,
          321,
          322,
          323,
          324,
          325,
          326,
          327,
          328,
          329,
          330,
          331,
          332,
          333,
          334,
          335,
          336,
          337,
          338,
          339,
          340,
          341,
          342,
          343,
          344,
          345,
          346,
          347,
          348,
          349,
          350,
          351,
          352,
          353,
          354,
          355,
          356,
          357,
          358,
          359,
          360,
          361,
          362,
          363,
          364,
          365,
          366,
          367,
          368,
          369,
          370,
          371,
          372,
          373,
          374,
          375,
          376,
          377,
          378,
          379,
          380,
          381,
          382,
          383,
          384,
          385,
          386,
          387,
          388,
          389,
          390,
          391,
          392
        ],
        "AcquisitionTime": [
          "161905.950000",
          "161907.440000",
          "161908.930000",
          "161910.420000",
          "161911.910000",
          "161913.400000",
          "161914.890000",
          "161916.380000",
          "161917.870000",
          "161919.360000",
          "161920.850000",
          "161922.340000",
          "161923.830000",
          "161925.320000",
          "161926.810000",
          "161928.300000",
          "161929.790000",
          "161931.280000",
          "161932.770000",
          "161934.260000",
          "161935.750000",
          "161937.240000",
          "161938.730000",
          "161940.220000",
          "161941.710000",
          "161943.200000",
          "161944.690000",
          "161946.180000",
          "161947.670000",
          "161949.160000",
          "161950.650000",
          "161952.140000",
          "161953.630000",
          "161955.120000",
          "161956.610000",
          "161958.100000",
          "161959.590000",
          "162001.080000",
          "162002.570000",
          "162004.060000",
          "162005.550000",
          "162007.040000",
          "162008.530000",
          "162010.020000",
          "162011.510000",
          "162013.000000",
          "162014.490000",
          "162015.980000",
          "162017.470000",
          "162018.960000",
          "162020.450000",
          "162021.940000",
          "162023.430000",
          "162024.920000",
          "162026.410000",
          "162027.900000",
          "162029.390000",
          "162030.880000",
          "162032.370000",
          "162033.860000",
          "162035.350000",
          "162036.840000",
          "162038.330000",
          "162039.820000",
          "162041.310000",
          "162042.800000",
          "162044.290000",
          "162045.780000",
          "162047.270000",
          "162048.760000",
          "162050.250000",
          "162051.740000",
          "162053.230000",
          "162054.720000",
          "162056.210000",
          "162057.700000",
          "162059.190000",
          "162100.680000",
          "162102.170000",
          "162103.660000",
          "162105.150000",
          "162106.640000",
          "162108.130000",
          "162109.620000",
          "162111.110000",
          "162112.600000",
          "162114.090000",
          "162115.580000",
          "162117.070000",
          "162118.560000",
          "162120.050000",
          "162121.540000",
          "162123.030000",
          "162124.520000",
          "162126.010000",
          "162127.500000",
          "162128.990000",
          "162130.480000",
          "162131.970000",
          "162133.460000",
          "162134.950000",
          "162136.440000",
          "162137.930000",
          "162139.420000",
          "162140.910000",
          "162142.400000",
          "162143.890000",
          "162145.380000",
          "162146.870000",
          "162148.360000",
          "162149.850000",
          "162151.340000",
          "162152.830000",
          "162154.320000",
          "162155.810000",
          "162157.300000",
          "162158.790000",
          "162200.280000",
          "162201.770000",
          "162203.260000",
          "162204.750000",
          "162206.240000",
          "162207.730000",
          "162209.220000",
          "162210.710000",
          "162212.200000",
          "162213.690000",
          "162215.180000",
          "162216.670000",
          "162218.160000",
          "162219.650000",
          "162221.140000",
          "162222.630000",
          "162224.120000",
          "162225.610000",
          "162227.100000",
          "162228.590000",
          "162230.080000",
          "162231.570000",
          "162233.060000",
          "162234.550000",
          "162236.040000",
          "162237.530000",
          "162239.020000",
          "162240.510000",
          "162242.000000",
          "162243.490000",
          "162244.980000",
          "162246.470000",
          "162247.960000",
          "162249.450000",
          "162250.940000",
          "162252.430000",
          "162253.920000",
          "162255.410000",
          "162256.900000",
          "162258.390000",
          "162259.880000",
          "162301.370000",
          "162302.860000",
          "162304.350000",
          "162305.840000",
          "162307.330000",
          "162308.820000",
          "162310.310000",
          "162311.800000",
          "162313.290000",
          "162314.780000",
          "162316.270000",
          "162317.760000",
          "162319.250000",
          "162320.740000",
          "162322.230000",
          "162323.720000",
          "162325.210000",
          "162326.700000",
          "162328.190000",
          "162329.680000",
          "162331.170000",
          "162332.660000",
          "162334.150000",
          "162335.640000",
          "162337.130000",
          "162338.620000",
          "162340.110000",
          "162341.600000",
          "162343.090000",
          "162344.580000",
          "162346.070000",
          "162347.560000",
          "162349.050000",
          "162350.540000",
          "162352.030000",
          "162353.520000",
          "162355.010000",
          "162356.500000",
          "162357.990000",
          "162359.480000",
          "162400.970000",
          "162402.460000",
          "162403.950000",
          "162405.440000",
          "162406.930000",
          "162408.420000",
          "162409.910000",
          "162411.400000",
          "162412.890000",
          "162414.380000",
          "162415.870000",
          "162417.360000",
          "162418.850000",
          "162420.340000",
          "162421.830000",
          "162423.320000",
          "162424.810000",
          "162426.300000",
          "162427.790000",
          "162429.280000",
          "162430.770000",
          "162432.260000",
          "162433.750000",
          "162435.240000",
          "162436.730000",
          "162438.220000",
          "162439.710000",
          "162441.200000",
          "162442.690000",
          "162444.180000",
          "162445.670000",
          "162447.160000",
          "162448.650000",
          "162450.140000",
          "162451.630000",
          "162453.120000",
          "162454.610000",
          "162456.100000",
          "162457.590000",
          "162459.080000",
          "162500.570000",
          "162502.060000",
          "162503.550000",
          "162505.040000",
          "162506.530000",
          "162508.020000",
          "162509.510000",
          "162511.000000",
          "162512.490000",
          "162513.980000",
          "162515.470000",
          "162516.960000",
          "162518.450000",
          "162519.940000",
          "162521.430000",
          "162522.920000",
          "162524.410000",
          "162525.900000",
          "162527.390000",
          "162528.880000",
          "162530.370000",
          "162531.860000",
          "162533.350000",
          "162534.840000",
          "162536.330000",
          "162537.820000",
          "162539.310000",
          "162540.800000",
          "162542.290000",
          "162543.780000",
          "162545.270000",
          "162546.760000",
          "162548.250000",
          "162549.740000",
          "162551.230000",
          "162552.720000",
          "162554.210000",
          "162555.700000",
          "162557.190000",
          "162558.680000",
          "162600.170000",
          "162601.660000",
          "162603.150000",
          "162604.640000",
          "162606.130000",
          "162607.620000",
          "162609.110000",
          "162610.600000",
          "162612.090000",
          "162613.580000",
          "162615.070000",
          "162616.560000",
          "162618.050000",
          "162619.540000",
          "162621.030000",
          "162622.520000",
          "162624.010000",
          "162625.500000",
          "162626.990000",
          "162628.480000",
          "162629.970000",
          "162631.460000",
          "162632.950000",
          "162634.440000",
          "162635.930000",
          "162637.420000",
          "162638.910000",
          "162640.400000",
          "162641.890000",
          "162643.380000",
          "162644.870000",
          "162646.360000",
          "162647.850000",
          "162649.340000",
          "162650.830000",
          "162652.320000",
          "162653.810000",
          "162655.300000",
          "162656.790000",
          "162658.280000",
          "162659.770000",
          "162701.260000",
          "162702.750000",
          "162704.240000",
          "162705.730000",
          "162707.220000",
          "162708.710000",
          "162710.200000",
          "162711.690000",
          "162713.180000",
          "162714.670000",
          "162716.160000",
          "162717.650000",
          "162719.140000",
          "162720.630000",
          "162722.120000",
          "162723.610000",
          "162725.100000",
          "162726.590000",
          "162728.080000",
          "162729.570000",
          "162731.060000",
          "162732.550000",
          "162734.040000",
          "162735.530000",
          "162737.020000",
          "162738.510000",
          "162740.000000",
          "162741.490000",
          "162742.980000",
          "162744.470000",
          "162745.960000",
          "162747.450000",
          "162748.940000",
          "162750.430000",
          "162751.920000",
          "162753.410000",
          "162754.900000",
          "162756.390000",
          "162757.880000",
          "162759.370000",
          "162800.860000",
          "162802.350000",
          "162803.840000",
          "162805.330000",
          "162806.820000",
          "162808.310000",
          "162809.800000",
          "162811.290000",
          "162812.780000",
          "162814.270000",
          "162815.760000",
          "162817.250000",
          "162818.740000",
          "162820.230000",
          "162821.720000",
          "162823.210000",
          "162824.700000",
          "162826.190000",
          "162827.680000",
          "162829.170000",
          "162830.660000",
          "162832.150000",
          "162833.640000",
          "162835.130000",
          "162836.620000",
          "162838.110000",
          "162839.600000",
          "162841.090000",
          "162842.580000",
          "162844.070000",
          "162845.560000",
          "162847.050000",
          "162848.540000"
        ],
        "ContentTime": [
          "162028.713000",
          "162028.717000",
          "162028.720000",
          "162028.723000",
          "162028.726000",
          "162028.729000",
          "162028.732000",
          "162028.735000",
          "162028.737000",
          "162028.740000",
          "162028.743000",
          "162028.746000",
          "162028.749000",
          "162028.752000",
          "162028.755000",
          "162028.758000",
          "162028.760000",
          "162028.763000",
          "162028.766000",
          "162028.769000",
          "162028.772000",
          "162028.775000",
          "162028.778000",
          "162028.780000",
          "162028.783000",
          "162028.786000",
          "162028.789000",
          "162028.792000",
          "162028.795000",
          "162028.798000",
          "162048.676000",
          "162048.682000",
          "162048.685000",
          "162048.688000",
          "162048.691000",
          "162048.694000",
          "162048.697000",
          "162048.699000",
          "162048.702000",
          "162048.705000",
          "162048.708000",
          "162048.711000",
          "162048.714000",
          "162048.717000",
          "162048.720000",
          "162048.722000",
          "162048.725000",
          "162048.728000",
          "162048.731000",
          "162048.734000",
          "162108.677000",
          "162108.680000",
          "162108.683000",
          "162108.686000",
          "162108.689000",
          "162108.691000",
          "162108.694000",
          "162108.697000",
          "162108.700000",
          "162108.703000",
          "162108.706000",
          "162108.709000",
          "162108.711000",
          "162108.714000",
          "162108.717000",
          "162108.720000",
          "162108.723000",
          "162108.725000",
          "162108.728000",
          "162108.731000",
          "162128.677000",
          "162128.680000",
          "162128.683000",
          "162128.686000",
          "162128.689000",
          "162128.692000",
          "162128.694000",
          "162128.697000",
          "162128.700000",
          "162128.703000",
          "162128.706000",
          "162128.709000",
          "162128.712000",
          "162128.715000",
          "162128.717000",
          "162128.720000",
          "162128.723000",
          "162128.726000",
          "162128.729000",
          "162128.732000",
          "162128.735000",
          "162208.677000",
          "162208.680000",
          "162208.683000",
          "162208.686000",
          "162208.689000",
          "162208.692000",
          "162208.695000",
          "162208.697000",
          "162208.700000",
          "162208.703000",
          "162208.706000",
          "162208.709000",
          "162208.712000",
          "162208.715000",
          "162208.717000",
          "162208.720000",
          "162208.723000",
          "162208.726000",
          "162208.729000",
          "162208.732000",
          "162208.735000",
          "162208.738000",
          "162208.740000",
          "162208.743000",
          "162208.746000",
          "162208.749000",
          "162208.752000",
          "162208.755000",
          "162208.757000",
          "162208.760000",
          "162208.763000",
          "162248.676000",
          "162248.679000",
          "162248.682000",
          "162248.684000",
          "162248.688000",
          "162248.690000",
          "162248.693000",
          "162248.696000",
          "162248.699000",
          "162248.702000",
          "162248.705000",
          "162248.708000",
          "162248.711000",
          "162248.713000",
          "162248.716000",
          "162248.719000",
          "162248.722000",
          "162248.725000",
          "162248.728000",
          "162248.731000",
          "162248.734000",
          "162248.736000",
          "162248.739000",
          "162248.742000",
          "162248.745000",
          "162248.748000",
          "162248.751000",
          "162328.677000",
          "162328.680000",
          "162328.683000",
          "162328.686000",
          "162328.689000",
          "162328.692000",
          "162328.694000",
          "162328.697000",
          "162328.700000",
          "162328.703000",
          "162328.706000",
          "162328.709000",
          "162328.712000",
          "162328.715000",
          "162328.717000",
          "162328.720000",
          "162328.723000",
          "162328.726000",
          "162328.729000",
          "162328.732000",
          "162328.735000",
          "162328.738000",
          "162328.740000",
          "162328.743000",
          "162328.746000",
          "162328.749000",
          "162328.752000",
          "162408.677000",
          "162408.680000",
          "162408.689000",
          "162408.691000",
          "162408.694000",
          "162408.697000",
          "162408.700000",
          "162408.703000",
          "162408.706000",
          "162408.709000",
          "162408.712000",
          "162408.714000",
          "162408.717000",
          "162408.720000",
          "162408.723000",
          "162408.726000",
          "162408.729000",
          "162408.731000",
          "162408.734000",
          "162408.737000",
          "162408.740000",
          "162408.743000",
          "162408.746000",
          "162408.749000",
          "162408.768000",
          "162408.771000",
          "162408.780000",
          "162448.677000",
          "162448.680000",
          "162448.683000",
          "162448.686000",
          "162448.689000",
          "162448.691000",
          "162448.694000",
          "162448.697000",
          "162448.700000",
          "162448.703000",
          "162448.706000",
          "162448.709000",
          "162448.712000",
          "162448.715000",
          "162448.718000",
          "162448.721000",
          "162448.724000",
          "162448.727000",
          "162448.729000",
          "162448.733000",
          "162448.735000",
          "162448.738000",
          "162448.741000",
          "162448.744000",
          "162448.747000",
          "162448.750000",
          "162528.676000",
          "162528.679000",
          "162528.682000",
          "162528.685000",
          "162528.688000",
          "162528.690000",
          "162528.693000",
          "162528.696000",
          "162528.699000",
          "162528.702000",
          "162528.705000",
          "162528.708000",
          "162528.711000",
          "162528.713000",
          "162528.716000",
          "162528.719000",
